HandOpen,HandClose,Wrist Flexion,Wrist Extension,Supination,Pronation,Rest
119,115,81,1,22,20,1
126,174,148,1,9,8,5
103,199,192,1,5,4,33
65,178,198,7,1,3,61
27,125,168,74,1,1,76
12,55,106,158,2,2,78
6,23,43,219,9,5,63
1,9,18,235,60,56,36
1,4,9,198,121,117,15
1,2,4,133,163,159,5
1,0,1,54,171,168,3
15,1,1,24,139,141,1
59,9,0,9,88,92,1
109,74,37,4,35,40,1
131,143,109,1,17,15,2
129,190,179,2,6,8,10
97,200,202,1,3,3,39
52,163,191,22,2,2,66
21,103,142,98,2,1,81
8,42,71,180,1,2,77
4,18,28,224,21,19,57
1,7,11,223,83,74,31
2,1,3,173,142,123,14
0,12,84,45,165,157,5
1,196,187,2,158,153,2
103,25,11,1,16,16,2
48,2,2,175,2,0,2
3,10,82,98,17,17,1
1,199,191,6,170,153,56
71,26,12,0,18,14,60
113,2,0,106,1,2,6
6,10,81,170,14,16,1
1,191,196,5,175,163,6
30,28,11,2,19,18,71
132,2,1,107,2,1,39
11,9,86,166,11,17,1
0,173,190,6,174,153,1
26,57,11,1,19,14,28
125,3,1,104,1,3,76
10,1,80,169,17,17,9
0,113,191,5,175,164,1
25,119,9,2,19,19,0
127,3,1,101,1,2,58
11,2,28,168,15,12,60
1,120,217,5,172,159,3
24,117,23,1,21,17,0
132,3,0,99,1,2,6
12,1,24,215,13,16,72
0,115,206,13,175,163,37
25,121,23,0,21,17,3
130,3,0,94,1,1,0
12,2,19,219,13,17,29
1,115,221,14,175,154,79
25,127,22,2,21,15,10
126,3,2,94,1,2,1
11,1,22,216,8,19,6
2,113,200,13,154,159,74
25,124,25,1,56,17,41
133,3,2,95,2,2,3
11,1,16,221,1,6,1
1,108,201,13,106,142,27
23,126,22,1,90,45,73
130,3,1,95,6,3,10
12,1,15,223,2,0,2
1,110,200,12,52,106,6
27,125,25,1,168,79,75
130,4,0,91,10,6,42
11,2,15,223,0,2,3
1,108,206,13,53,57,2
24,135,23,1,169,156,27
131,4,1,89,11,9,76
11,2,21,224,0,1,10
1,107,198,14,53,13,0
22,132,22,1,168,156,6
130,4,2,88,10,19,74
12,0,13,225,0,2,41
2,104,194,13,50,7,3
19,130,27,0,165,137,2
132,2,2,87,12,33,24
14,1,10,224,1,2,77
1,100,223,13,48,2,10
23,133,25,2,164,119,1
131,3,2,83,11,80,6
13,1,9,231,0,4,70
2,100,178,13,48,2,42
24,135,55,2,157,46,3
131,4,2,83,11,156,0
14,2,1,224,2,11,25
1,98,127,14,48,1,76
19,175,117,0,168,54,10
130,7,2,84,11,153,1
12,2,1,227,1,10,5
0,36,135,12,44,2,72
25,198,115,2,163,59,41
135,18,3,81,11,157,2
12,1,1,225,2,11,0
1,35,124,14,53,0,24
24,195,114,1,171,51,76
135,19,3,78,11,164,11
12,2,0,227,1,11,1
1,33,155,15,42,1,3
24,200,112,0,170,50,66
137,19,3,74,12,152,45
13,1,2,225,0,10,3
1,29,125,16,42,2,2
18,199,114,1,180,50,24
129,19,4,77,13,152,76
12,3,1,233,2,11,11
1,31,112,14,39,1,2
21,196,152,2,156,50,6
133,18,4,74,11,161,70
12,1,1,231,2,10,38
1,27,111,16,43,1,3
21,196,128,2,172,49,1
133,18,4,73,14,156,24
12,1,1,225,2,12,75
1,27,116,17,35,1,11
19,198,108,2,166,40,2
135,21,2,74,13,155,4
15,1,1,228,0,11,68
1,27,132,16,43,0,43
18,198,120,2,180,47,1
129,21,3,69,11,167,1
13,1,0,232,1,11,24
2,24,122,17,39,2,75
20,198,117,2,169,42,9
134,20,3,66,11,157,1
14,2,2,231,0,11,0
1,24,120,17,45,0,49
19,197,123,0,176,44,60
141,21,3,67,12,162,4
13,1,1,229,0,10,1
1,23,122,16,34,1,3
17,195,122,1,165,43,70
135,21,4,66,15,164,48
14,2,0,230,1,12,4
2,18,122,16,35,2,1
18,196,119,0,169,37,24
133,22,3,63,15,158,74
15,1,1,228,0,13,10
1,18,123,17,30,2,2
18,196,135,2,171,35,6
134,22,3,64,13,153,71
14,3,1,239,0,12,41
1,17,118,16,38,1,2
19,195,127,2,169,33,2
134,23,3,58,14,151,22
14,1,2,231,0,13,75
1,16,120,17,33,1,9
19,196,125,1,167,35,3
133,24,4,59,13,162,2
13,1,0,229,0,10,45
1,16,116,17,31,2,65
19,198,122,0,162,37,5
137,25,4,57,13,167,0
16,1,2,230,1,14,2
1,14,119,18,24,1,68
20,195,135,2,161,33,41
135,24,4,59,14,146,2
14,2,2,230,0,12,1
1,13,111,18,33,1,24
15,198,127,1,173,39,78
131,24,2,52,14,163,9
14,1,0,238,1,14,1
1,12,110,19,30,0,2
17,198,128,1,169,32,50
133,27,5,50,18,167,63
14,3,1,228,2,14,4
2,9,110,20,26,1,1
18,171,131,0,170,26,4
137,55,3,49,15,161,72
14,3,2,236,2,14,44
0,1,107,20,27,1,3
17,121,127,1,169,30,2
134,112,4,49,15,160,24
14,4,2,234,1,14,78
2,1,98,20,32,2,10
17,122,199,1,166,31,1
133,114,8,41,15,168,4
16,3,2,251,2,15,68
1,1,46,23,22,0,46
15,117,202,1,174,29,3
128,116,15,43,16,170,1
14,5,2,232,1,15,18
2,0,41,22,18,2,81
18,116,194,2,165,25,12
126,121,18,42,14,164,0
12,3,0,230,2,13,2
2,1,51,21,34,1,66
17,114,219,1,162,29,45
136,120,17,46,16,163,3
14,3,1,235,2,16,1
2,2,45,21,19,2,24
16,115,206,1,173,20,80
135,124,15,41,18,163,10
15,4,2,235,0,15,1
2,1,42,23,22,2,4
18,113,206,1,173,23,68
134,120,17,33,19,164,46
15,2,2,236,2,15,3
2,1,49,26,19,2,1
19,110,210,2,172,19,22
137,124,18,34,21,153,83
15,3,2,228,2,15,12
1,1,41,21,15,2,1
14,111,201,1,171,26,3
136,128,16,34,20,156,66
16,4,0,231,0,15,48
1,1,44,22,17,0,3
15,105,202,0,171,19,2
133,126,16,36,18,160,20
18,4,1,232,1,16,81
2,2,41,24,16,0,13
15,105,200,2,168,21,2
135,134,17,31,18,156,2
16,3,1,230,2,13,72
2,1,41,25,18,1,52
12,105,199,0,164,19,3
140,130,18,31,17,159,0
16,4,0,231,1,16,19
1,2,29,23,18,1,79
16,102,218,1,161,23,12
132,136,23,28,19,163,1
16,4,1,234,1,16,2
1,1,39,27,16,2,70
13,99,206,1,166,20,51
134,180,17,26,17,162,4
16,10,1,234,0,19,2
1,1,34,25,13,2,19
15,100,205,2,169,17,79
137,136,17,29,20,165,12
17,4,0,236,2,16,2
0,2,33,25,12,2,1
14,94,214,1,163,18,67
132,178,22,27,22,163,47
16,9,1,231,2,18,2
1,1,29,25,8,0,0
11,33,201,2,144,14,18
132,201,18,23,41,160,79
18,17,0,237,2,18,12
2,0,33,27,1,2,3
12,33,200,3,100,13,1
135,198,18,19,96,153,63
15,17,2,235,6,18,50
0,2,36,27,1,0,4
12,33,204,2,61,15,1
138,198,18,17,168,164,22
15,19,1,237,10,17,78
1,3,30,30,1,1,12
13,32,206,1,56,10,1
134,197,19,19,162,160,1
15,19,1,235,11,17,68
2,1,25,28,1,1,48
12,27,197,2,64,17,1
137,197,20,19,175,166,1
15,22,1,237,9,17,19
1,3,27,31,1,2,80
10,27,204,2,10,11,11
133,197,21,16,171,161,1
16,21,1,229,20,20,2
1,2,33,28,3,1,63
9,22,207,2,9,15,50
122,200,17,19,147,157,2
34,21,2,231,46,19,1
3,2,35,29,2,1,19
1,24,201,1,1,10,80
90,196,20,17,102,163,13
99,22,2,233,97,21,2
8,1,25,30,4,1,2
3,19,206,1,2,14,66
8,197,21,13,47,164,50
118,22,1,233,160,21,1
32,1,25,32,10,2,1
1,17,196,2,1,7,16
2,199,19,12,57,136,82
85,21,2,232,182,42,14
99,2,28,31,13,3,0
7,19,204,2,2,1,1
1,198,22,12,44,97,65
8,22,3,232,169,132,49
114,2,26,30,11,5,4
35,19,212,2,1,2,1
1,195,20,11,46,49,18
2,22,2,230,167,153,80
86,2,27,31,12,11,13
100,17,203,2,2,1,2
3,199,21,8,44,56,1
3,25,3,201,172,168,65
45,2,27,71,10,10,53
126,17,202,4,1,0,4
8,198,20,1,47,44,2
2,24,3,136,167,155,15
8,3,21,144,11,11,78
117,13,206,3,1,2,13
34,195,22,1,38,43,2
1,24,1,139,176,161,1
2,1,26,142,13,11,63
88,14,202,4,2,2,52
110,198,25,1,37,51,4
5,24,3,141,164,159,0
1,1,21,140,13,11,17
41,11,206,2,2,2,79
126,200,24,1,39,43,12
7,25,1,137,169,161,2
2,2,22,143,14,12,3
8,11,208,4,2,0,60
114,196,23,2,37,34,54
34,27,1,132,172,161,3
2,1,23,148,15,12,0
1,10,217,4,1,1,14
78,195,24,3,35,41,80
104,28,2,131,163,164,14
4,2,16,149,13,11,1
1,10,205,4,2,2,2
38,195,21,1,35,39,64
125,26,2,128,171,168,52
8,3,25,148,16,13,3
2,9,205,4,1,0,0
5,169,22,2,32,40,13
113,58,1,127,166,155,79
33,2,14,144,14,11,13
1,1,201,5,2,1,2
2,127,25,2,28,42,2
82,117,2,122,170,159,65
106,3,15,152,15,12,50
4,2,209,6,0,0,3
2,118,23,1,31,43,0
41,121,0,125,163,161,14
127,4,14,153,13,12,80
7,0,208,6,2,1,14
1,117,26,1,32,36,1
8,125,0,121,170,163,2
112,3,15,159,15,12,63
36,1,212,4,1,1,52
3,112,24,1,28,37,2
2,124,3,123,178,164,1
79,4,12,156,15,12,18
104,1,211,4,1,0,81
4,112,29,2,24,33,12
1,125,2,121,169,159,0
38,4,12,158,17,12,2
126,2,204,4,2,1,66
8,109,27,1,28,32,50
1,127,1,116,174,163,3
8,3,14,160,16,14,2
119,1,208,4,2,1,15
40,106,28,0,24,26,84
4,128,2,112,165,160,15
1,4,12,157,17,14,2
79,0,203,6,2,2,2
105,110,25,1,17,31,63
5,131,2,112,164,163,51
1,4,10,165,14,14,5
41,3,202,4,2,2,0
130,105,27,2,27,30,15
7,134,2,111,165,161,83
0,4,9,165,15,16,15
6,0,179,6,1,1,1
115,106,54,2,17,25,0
37,131,2,113,170,157,62
1,5,2,162,19,14,51
2,1,144,4,1,1,3
79,100,109,2,22,30,2
109,135,3,107,169,163,13
4,4,2,170,16,15,83
0,1,131,5,1,1,15
39,97,113,0,23,29,0
133,174,3,109,170,160,1
9,10,0,163,17,13,61
1,0,132,5,2,1,54
3,96,110,1,19,27,2
111,179,3,108,167,160,0
37,8,1,166,17,13,13
2,2,127,5,2,2,79
0,36,120,2,25,25,16
79,205,2,100,167,161,1
109,18,2,165,16,16,2
4,0,125,6,0,1,62
0,33,115,1,14,23,55
36,195,3,102,161,163,3
127,17,2,169,19,14,0
9,2,129,6,0,2,15
0,34,127,2,13,26,79
4,202,2,96,171,162,15
117,18,2,218,18,16,0
40,0,121,11,0,3,1
3,32,129,2,16,21,61
1,198,4,97,178,154,50
78,18,2,224,17,16,4
110,0,120,12,1,2,2
4,30,121,2,7,23,12
0,197,3,95,162,164,80
34,19,2,219,42,16,13
128,0,122,12,3,2,1
8,31,128,1,2,22,0
1,203,3,102,118,159,59
2,20,2,176,79,16,50
113,2,127,7,4,2,2
38,27,121,2,2,17,0
2,200,3,94,69,169,13
1,20,2,225,173,19,79
78,0,127,13,10,1,14
113,25,133,1,2,13,1
4,200,2,89,60,167,2
2,21,2,224,167,21,57
32,2,128,14,10,2,57
131,24,120,1,1,17,4
10,196,2,85,60,164,1
0,20,1,223,159,17,13
36,2,116,13,10,2,81
131,23,141,0,0,13,15
10,201,4,87,54,166,1
1,21,2,221,168,18,2
38,1,94,13,10,1,59
128,24,163,2,0,17,55
9,202,8,85,54,165,4
1,23,1,223,166,17,2
6,2,47,12,10,2,11
113,18,206,2,2,10,84
42,200,15,89,62,167,19
2,23,0,227,169,19,1
1,2,53,12,9,1,2
70,19,201,1,2,14,59
115,201,16,81,12,158,56
4,23,1,225,166,18,4
1,1,53,14,20,2,2
39,16,207,2,1,14,9
135,198,16,83,7,168,72
11,24,2,226,149,19,36
1,2,48,12,44,0,3
31,16,205,1,2,13,0
129,197,17,78,1,164,34
11,25,3,229,113,19,74
1,1,45,14,93,2,8
31,15,209,2,5,11,2
129,197,18,83,0,159,2
9,24,2,232,48,19,61
1,1,51,15,175,2,53
4,12,201,2,12,14,4
114,200,15,76,2,165,2
41,25,1,226,52,20,9
2,1,61,14,174,1,72
2,13,199,1,9,7,34
74,199,16,73,2,148,3
107,25,1,228,8,44,1
4,3,46,15,148,1,33
1,12,208,1,49,0,77
30,197,16,71,3,103,7
127,27,0,231,0,84,2
7,2,43,15,97,5,1
1,10,203,2,146,1,61
3,197,18,72,6,56,59
111,27,0,226,2,159,3
40,2,48,15,36,9,3
1,9,215,2,175,0,7
0,172,18,71,13,9,71
73,56,1,230,1,141,35
110,3,44,16,44,42,2
5,1,203,1,182,2,0
2,121,15,68,12,2,36
30,116,2,230,0,101,73
128,3,39,17,43,90,7
11,2,202,1,169,5,2
1,120,18,70,12,1,1
28,117,1,231,1,52,57
131,3,51,18,47,162,59
11,2,202,0,165,12,4
0,115,15,64,12,1,2
31,122,0,236,0,48,10
134,3,40,18,53,160,79
9,1,202,2,178,11,15
2,119,17,61,12,1,0
1,124,1,228,2,44,1
107,4,48,16,36,156,59
45,2,212,0,160,11,57
1,112,16,60,12,2,4
2,124,1,230,1,46,1
68,4,39,18,49,157,9
117,0,203,0,180,10,73
6,118,16,57,14,0,35
0,124,3,229,1,52,2
34,4,33,18,36,162,0
134,0,204,1,181,11,33
11,111,18,57,14,1,75
1,129,1,238,0,46,9
28,3,45,19,39,162,1
133,1,210,0,170,12,1
10,108,20,58,12,0,58
1,132,2,231,1,42,56
36,4,34,17,41,159,6
131,1,207,2,171,11,0
9,107,18,54,13,1,9
2,130,1,234,2,43,73
0,3,34,19,36,151,38
106,3,209,2,171,10,1
45,108,18,53,16,0,0
3,131,0,233,2,34,31
0,4,34,19,36,162,75
71,0,202,1,176,14,7
115,100,22,54,15,2,1
5,137,2,237,2,41,2
1,3,64,21,36,159,55
27,0,193,0,166,12,58
128,100,21,49,14,1,4
10,137,0,238,2,36,1
2,5,49,21,34,166,7
27,2,202,1,167,13,74
127,98,19,46,16,0,41
11,177,1,236,3,37,2
2,8,31,21,37,168,1
26,1,201,2,165,14,30
126,38,22,45,15,3,76
9,199,1,232,1,35,8
1,18,40,21,31,161,3
0,1,204,2,164,13,1
101,36,21,45,16,1,55
46,199,1,232,2,49,53
3,18,22,20,26,169,4
0,1,201,2,174,13,2
67,34,25,45,14,1,4
115,203,1,237,2,34,69
6,17,26,23,30,167,42
2,1,216,1,182,15,3
28,32,23,41,14,2,0
133,201,2,234,2,36,31
9,20,26,21,25,166,73
1,0,203,1,160,14,7
1,30,19,39,15,0,1
106,203,3,236,1,30,1
51,19,21,23,32,160,53
2,1,201,2,168,15,55
0,29,25,39,17,1,4
64,200,1,233,0,31,1
117,20,26,24,24,167,7
5,2,199,2,168,13,71
1,27,21,35,18,2,36
25,197,2,234,1,32,1
134,20,27,23,25,166,1
9,2,210,2,168,14,30
2,28,21,34,19,1,75
2,205,3,235,2,30,7
102,21,23,24,24,168,2
51,1,202,1,176,15,1
3,24,21,33,19,1,52
1,196,1,233,1,25,59
65,20,22,23,27,153,4
116,3,212,3,180,13,1
5,24,21,29,18,2,7
0,198,1,232,2,31,71
25,22,18,23,11,160,38
138,1,205,1,172,16,3
11,19,27,32,16,2,2
1,200,1,235,0,26,32
24,22,24,24,24,165,79
135,1,199,1,169,16,9
12,21,23,26,15,2,3
2,196,2,232,2,23,2
22,22,19,24,19,166,51
133,1,204,0,177,13,61
12,18,23,26,17,2,5
0,200,1,230,1,22,1
26,24,18,24,13,164,6
135,0,199,1,158,16,74
11,18,23,28,16,2,37
0,198,1,234,1,21,1
24,22,20,25,23,158,2
137,2,208,0,167,16,25
12,15,22,24,18,1,76
1,198,1,234,1,24,10
19,23,16,26,19,161,1
131,1,208,3,182,16,4
12,17,26,24,20,2,71
2,199,1,233,2,18,40
26,24,18,27,16,162,2
133,1,223,1,172,15,2
11,15,25,22,21,0,27
0,202,1,236,1,23,76
18,24,14,27,14,167,10
136,1,207,1,180,19,2
12,14,27,18,22,1,5
2,197,2,232,2,16,71
17,27,24,29,11,161,41
129,2,206,2,169,18,2
12,13,28,18,17,2,0
1,201,2,237,1,18,30
24,25,10,29,14,161,80
133,3,194,1,181,16,9
11,10,24,16,18,1,3
0,199,3,232,2,13,1
22,27,19,29,22,167,51
132,2,207,1,192,22,66
12,10,22,17,21,2,6
2,200,2,230,1,15,2
20,27,25,31,15,160,5
130,2,201,3,172,19,72
13,7,26,15,20,3,40
2,174,2,231,3,12,1
17,57,18,30,10,164,1
129,4,204,1,174,19,27
13,1,29,14,21,1,80
2,123,1,238,0,13,10
19,118,11,30,12,166,1
130,3,204,2,163,21,6
12,1,23,15,22,1,74
1,115,1,230,2,15,42
19,124,18,30,7,159,3
133,3,214,1,160,18,1
12,1,21,12,46,0,23
1,119,2,230,3,9,81
18,124,8,31,2,151,10
135,5,179,2,113,45,1
13,2,57,12,118,3,5
2,113,2,237,3,0,71
19,124,2,32,0,119,43
131,4,147,1,117,84,2
13,1,108,11,102,4,1
1,116,2,227,3,0,27
17,125,1,32,0,53,77
131,4,147,2,102,153,11
13,1,108,10,104,9,0
2,108,2,233,2,2,5
18,124,2,34,2,12,70
134,4,133,1,126,168,44
12,1,128,8,103,18,2
0,104,3,196,3,1,0
16,139,1,75,1,11,24
137,5,123,4,88,160,77
14,1,111,0,211,18,13
2,100,2,135,9,1,1
16,110,1,141,2,12,5
129,2,130,3,51,163,71
13,0,132,0,165,21,43
1,97,3,133,12,1,1
15,254,1,145,1,8,1
132,12,121,4,44,139,26
14,1,127,1,162,44,79
1,104,5,133,10,1,11
17,134,1,149,2,1,2
130,3,118,4,53,103,4
14,1,112,0,173,89,70
1,102,2,138,10,6,40
17,132,1,153,2,2,4
136,3,134,5,42,52,0
14,1,106,0,168,164,25
0,89,3,124,10,12,76
17,170,1,153,1,0,10
139,10,123,5,35,51,0
15,1,126,1,94,160,2
1,106,4,127,16,10,68
16,133,2,152,0,1,43
136,3,122,5,2,52,3
14,0,128,0,216,163,2
0,81,2,123,41,12,25
15,178,1,157,3,1,78
133,9,122,5,2,57,9
14,2,116,1,76,160,1
1,57,3,116,151,10,1
14,231,2,153,6,2,54
131,19,117,4,2,44,65
13,2,116,2,55,167,6
3,18,3,122,178,13,1
14,148,1,151,13,2,3
133,22,118,5,1,44,73
14,1,121,2,28,176,47
2,56,3,95,172,11,3
13,219,1,196,11,2,1
129,19,132,10,1,45,24
14,1,134,0,47,162,76
1,57,4,95,167,11,10
15,221,1,208,11,1,1
132,23,114,10,0,49,4
14,2,105,1,46,171,70
2,23,3,116,170,13,45
18,162,2,196,14,2,3
136,26,131,7,1,40,1
13,1,103,1,50,156,22
2,24,5,95,193,11,78
14,185,0,209,16,1,10
127,15,107,10,1,39,2
14,2,132,1,19,152,3
1,63,4,167,151,11,66
13,200,1,113,13,0,46
128,16,122,2,2,43,4
13,1,169,2,34,167,0
3,37,4,54,190,14,27
12,244,0,224,16,2,82
127,23,106,15,1,41,10
13,1,149,3,32,165,2
1,22,4,94,189,13,4
11,181,0,230,20,3,68
133,24,126,25,1,44,48
15,2,68,2,46,95,4
1,34,2,76,162,27,1
13,192,0,217,17,1,19
131,15,86,9,1,2,76
17,1,309,2,24,128,11
2,14,19,34,181,50,1
4,208,1,201,13,3,2
100,24,139,11,1,1,69
32,1,237,1,25,83,48
1,4,10,8,166,126,1
2,125,0,149,13,4,0
62,73,112,59,0,1,20
82,3,129,2,18,39,79
7,3,4,33,166,153,12
2,160,2,318,25,14,1
3,111,2,41,1,2,3
99,3,142,2,26,34,68
61,2,88,0,154,128,48
4,128,4,160,23,14,5
0,103,12,142,1,1,0
115,4,155,5,46,89,23
146,12,57,1,172,136,77
6,194,4,191,23,7,11
1,48,13,106,2,0,1
14,3,240,3,29,0,3
65,1,12,0,161,164,68
19,122,29,190,25,53,48
2,156,62,185,1,1,2
8,6,244,6,29,1,1
90,1,7,2,166,83,19
43,35,10,156,15,134,78
5,171,43,62,1,6,12
0,17,200,4,22,4,3
90,37,92,1,164,54,1
138,204,6,49,16,229,64
15,77,348,327,0,20,47
0,7,67,27,79,2,3
10,0,88,0,146,142,1
244,177,4,68,17,252,20
34,42,85,202,1,12,78
2,3,170,23,66,2,12
27,0,78,2,167,128,2
74,188,13,114,14,78,2
29,98,217,159,0,7,68
2,45,14,9,36,2,46
13,109,1,3,188,0,3
177,88,253,75,19,160,2
32,144,135,254,2,48,22
2,4,73,16,45,4,78
1,5,4,2,158,1,12
44,265,69,18,24,200,1
67,69,131,293,2,49,1
4,4,143,13,26,4,65
0,1,3,1,160,71,50
7,79,19,41,15,118,3
109,65,436,209,2,9,0
61,5,13,15,26,1,18
5,1,42,2,174,8,80
2,0,51,99,23,1,13
58,22,195,284,1,153,1
122,315,9,16,10,37,1
5,7,2,2,178,16,66
2,114,25,70,17,15,49
115,17,457,225,2,289,2
77,625,21,11,49,12,2
4,19,2,1,185,1,18
2,160,95,73,24,33,77
62,179,111,193,1,204,12
110,21,44,14,13,17,1
4,0,1,2,201,1,2
1,65,69,71,18,43,68
2,211,310,232,2,145,47
57,24,17,8,15,49,3
111,26,1,2,183,3,0
3,8,1,9,25,71,18
1,149,283,335,2,101,78
54,4,116,38,14,4,11
72,189,20,2,220,2,2
4,114,90,0,21,56,3
0,53,116,108,1,229,70
36,10,16,175,0,75,51
197,0,3,5,177,5,4
15,152,57,2,58,2,1
1,83,300,122,2,120,18
36,5,15,116,1,121,80
142,229,2,4,118,4,12
20,109,45,1,106,8,0
2,36,240,156,2,243,2
4,9,14,90,1,24,66
95,20,8,5,155,2,50
86,73,155,1,118,0,4
4,199,119,67,3,70,2
0,5,4,217,0,231,16
43,1,1,15,126,12,82
104,75,44,2,146,1,14
4,444,209,86,5,72,2
0,12,73,224,1,125,2
25,1,4,13,142,5,67
136,24,91,0,99,0,53
18,241,222,19,6,13,3
1,82,22,369,0,145,0
1,60,3,21,67,74,16
127,44,80,1,188,4,83
21,385,186,69,12,28,14
1,22,10,229,2,145,1
3,18,0,19,76,36,2
78,357,172,0,193,1,64
96,60,159,105,15,37,48
8,3,4,209,1,188,3
1,0,1,9,75,7,0
13,168,100,1,197,2,19
115,131,160,70,12,1,83
18,4,5,246,2,136,13
2,67,2,19,86,70,0
1,95,95,1,195,5,2
93,14,209,80,14,2,68
100,16,9,214,2,37,52
3,273,1,18,48,175,3
3,120,29,1,188,13,2
70,15,247,33,14,2,18
72,10,14,287,0,77,86
6,77,0,36,49,177,13
2,311,8,1,230,9,1
0,15,84,30,10,2,1
101,2,291,207,0,27,63
20,69,7,38,57,179,51
2,126,15,2,202,62,3
1,12,214,54,14,3,1
98,2,91,210,2,4,15
102,100,5,17,36,168,86
3,44,1,0,215,38,14
0,182,190,53,17,2,1
43,4,125,242,1,2,1
111,69,7,18,38,97,63
7,147,3,2,192,165,53
1,3,120,48,12,6,3
1,13,169,232,2,2,1
79,250,5,21,44,63,15
103,116,1,0,195,183,80
3,2,177,93,15,11,12
1,46,89,278,0,1,0
61,344,6,21,55,52,2
81,89,2,1,219,179,69
9,4,178,39,12,14,52
3,1,61,242,2,0,3
31,125,8,15,51,105,2
133,118,1,2,190,117,18
15,6,84,41,16,5,81
1,2,216,228,2,0,14
26,0,22,19,47,79,0
95,214,1,0,192,152,2
28,9,32,28,15,16,64
2,1,213,234,2,1,52
0,255,32,22,7,64,5
53,203,3,1,190,191,0
83,9,34,45,36,15,14
10,1,241,245,1,0,80
2,210,33,21,5,25,15
30,151,1,0,175,161,0
105,12,0,56,70,13,1
7,0,165,225,4,1,65
1,388,74,22,1,5,54
2,329,3,1,115,161,3
133,12,1,49,115,29,1
31,3,177,191,4,1,14
1,196,192,30,1,7,79
1,64,6,2,99,126,14
93,5,2,31,181,58,2
103,0,128,228,7,4,1
4,123,146,30,2,2,62
1,107,5,2,38,108,51
26,2,2,24,216,106,3
135,1,113,220,17,2,2
11,168,78,23,0,1,15
2,219,12,1,49,73,80
36,8,1,43,201,151,16
117,0,201,226,17,11,3
7,28,116,21,0,2,1
1,341,4,2,19,73,63
2,18,2,22,190,158,49
76,0,119,234,17,6,2
99,73,178,23,1,0,0
6,112,4,2,46,36,14
1,7,1,11,209,198,78
38,1,132,266,19,8,12
103,53,166,24,0,1,2
12,247,4,2,35,4,2
1,8,2,35,195,142,61
33,0,141,217,19,51,49
94,1,160,17,1,3,3
36,104,4,1,43,0,0
1,109,2,26,204,77,14
3,4,137,250,18,136,78
99,3,88,30,1,5,12
78,0,5,2,32,1,2
5,660,0,26,208,58,2
1,41,77,240,20,134,58
22,4,212,29,2,12,50
106,62,24,1,25,1,3
8,29,0,24,203,17,2
1,223,66,230,18,200,17
1,6,206,23,0,15,79
89,133,15,1,12,2,13
58,137,2,19,205,21,0
4,6,93,241,19,168,3
0,1,222,23,0,12,62
15,70,16,2,36,1,52
115,255,2,12,190,32,3
9,21,50,243,19,186,1
2,1,230,18,3,16,11
4,29,26,1,33,1,80
95,161,2,35,200,33,14
47,17,49,224,18,197,0
3,4,207,20,2,22,2
0,6,17,2,26,1,60
39,159,2,12,189,20,56
100,76,46,224,17,212,3
14,5,285,31,2,12,2
3,192,13,1,15,2,13
18,149,0,13,211,42,81
125,95,39,232,23,154,15
5,6,207,28,1,15,1
1,40,21,1,13,1,2
10,209,1,11,200,34,60
108,21,51,247,24,171,54
13,2,202,30,2,16,4
1,84,17,1,32,2,1
3,155,2,25,204,17,9
96,26,50,219,20,235,71
25,2,221,35,1,21,29
2,9,26,1,26,1,0
0,179,3,11,204,29,0
14,73,61,220,21,177,36
84,4,213,28,1,18,75
39,3,14,1,15,1,9
2,329,1,17,200,33,1
2,45,46,240,24,240,0
65,1,225,34,2,17,62
112,12,17,2,28,0,54
2,196,0,5,202,61,3
1,31,45,203,23,160,1
50,5,296,72,2,11,13
95,1,15,4,17,1,79
7,96,1,2,189,9,15
1,214,52,140,22,144,1
2,17,213,130,1,42,1
90,2,17,4,14,1,58
69,135,2,2,210,1,50
4,116,60,132,23,171,5
1,4,215,179,1,58,1
35,1,18,5,12,3,13
119,19,1,1,212,0,81
9,220,83,132,25,76,13
1,14,199,157,2,173,1
18,0,14,5,16,11,1
121,74,2,2,206,1,60
27,167,43,91,25,63,53
1,4,215,202,1,176,5
5,43,18,13,15,19,2
104,45,2,3,201,0,7
27,283,64,160,25,71,72
4,21,239,133,3,172,29
0,2,10,2,1,12,1
37,42,1,1,182,1,0
69,242,46,168,51,41,35
6,22,222,140,1,163,72
2,2,17,5,2,9,7
2,127,2,1,128,2,2
99,158,46,122,109,2,2
69,6,210,159,3,126,60
4,1,34,4,3,55,55
1,113,1,2,135,3,4
18,53,36,129,115,2,1
105,4,214,159,2,122,11
10,1,27,6,2,84,78
1,1,1,1,132,4,14
17,234,34,126,121,2,1
104,71,219,139,3,69,3
14,3,18,4,2,225,59
1,2,0,3,128,10,55
25,364,48,125,123,2,3
103,179,198,171,3,59,0
7,5,29,5,1,157,10
0,13,1,2,118,10,82
2,246,31,121,126,2,15
114,53,238,143,3,55,0
46,3,20,4,1,155,2
3,1,1,2,142,13,61
0,102,58,139,105,1,51
71,129,242,157,2,60,4
97,3,18,5,1,179,1
11,0,0,1,131,9,13
1,137,38,132,123,1,85
18,71,218,145,4,6,16
104,5,27,6,2,154,2
6,0,1,0,131,44,1
2,251,48,131,121,2,56
0,59,207,171,4,1,55
71,3,22,6,1,66,5
57,3,2,2,116,158,2
4,3,40,107,142,7,11
2,220,223,151,5,2,77
16,40,21,6,1,53,15
109,3,2,1,130,180,0
10,10,41,151,121,13,0
1,187,239,160,4,1,56
19,48,23,5,1,55,54
124,3,1,1,101,179,5
13,2,43,116,126,14,1
1,124,220,169,4,2,8
16,98,38,4,0,29,70
127,6,3,0,116,189,34
10,1,22,111,117,11,1
2,74,227,168,4,1,1
19,108,24,4,2,86,33
113,49,1,1,99,154,71
14,2,26,114,177,7,8
1,77,187,206,6,0,1
20,78,22,5,2,6,2
122,21,3,0,47,154,59
10,1,66,117,216,49,56
1,45,240,164,16,2,4
17,159,25,5,2,3,1
128,24,1,2,48,107,12
10,1,30,120,191,99,82
0,97,209,161,15,6,13
26,209,25,5,1,2,0
111,24,2,3,40,48,2
10,1,30,75,195,164,54
1,0,242,248,16,8,49
10,158,16,11,2,2,4
94,106,2,2,42,7,2
20,3,22,111,197,172,8
1,28,222,154,17,56,70
1,176,26,6,0,3,32
86,16,2,2,41,2,0
78,1,49,88,209,114,2
6,6,199,218,16,109,32
0,235,22,13,1,2,68
11,43,2,1,50,0,7
113,3,18,99,202,113,0
9,2,223,219,18,102,1
1,117,21,13,0,4,54
1,45,1,2,44,1,52
90,3,25,77,201,87,4
75,0,227,229,17,148,0
6,69,21,14,2,6,11
2,164,1,2,23,1,78
27,18,34,82,194,32,13
104,1,191,230,18,166,1
8,61,29,14,1,15,0
1,212,2,1,39,2,56
2,14,47,62,207,50,50
70,2,216,213,18,151,3
66,36,21,15,1,10,0
6,196,2,1,38,0,9
0,26,15,102,211,34,73
18,1,225,190,16,156,29
122,124,24,6,1,17,2
12,195,1,2,39,1,2
0,7,36,92,205,29,33
16,1,219,231,18,166,66
137,62,15,14,0,13,7
10,163,1,2,34,1,2
0,53,27,86,209,35,1
6,3,229,239,22,168,54
105,29,26,15,2,14,50
21,254,3,0,29,1,4
1,13,17,105,207,23,0
27,1,210,191,16,172,7
121,56,22,6,2,16,67
17,186,0,2,34,0,25
0,11,19,119,198,33,2
0,0,186,167,18,167,2
102,43,22,8,2,13,26
57,148,1,0,40,0,67
4,25,34,71,195,19,6
1,2,169,220,19,172,2
63,15,18,18,2,13,1
109,190,1,1,30,0,50
6,32,50,80,182,18,51
2,1,206,242,21,178,3
4,28,26,17,0,13,0
101,194,1,1,34,3,5
28,24,10,71,203,33,69
2,2,229,270,18,127,31
1,51,31,14,2,14,2
76,190,1,2,23,0,0
76,18,14,65,189,29,29
6,1,224,246,19,161,70
1,0,30,18,1,12,8
15,144,3,1,27,0,3
94,49,25,55,192,38,0
40,2,213,207,21,160,55
2,2,39,22,2,12,49
1,100,3,1,23,0,4
73,36,8,102,200,15,0
81,3,223,169,21,168,9
8,19,50,5,1,21,69
0,162,4,1,30,3,28
5,43,2,63,206,22,3
98,3,133,221,20,154,0
71,2,138,14,1,12,29
4,18,4,0,24,1,72
1,244,1,73,212,14,8
41,29,126,237,20,162,2
100,1,125,18,1,19,1
7,108,3,1,17,1,51
1,59,3,45,200,5,54
10,4,97,274,21,150,4
120,1,136,14,1,36,2
14,17,5,1,18,2,8
1,148,1,71,204,1,73
6,13,73,247,22,116,35
114,1,195,18,0,69,1
27,24,11,1,25,4,1
2,179,2,81,221,1,30
0,9,61,235,17,73,72
75,2,155,15,1,132,8
65,82,10,0,24,6,2
8,137,1,76,196,2,2
1,23,89,250,21,26,52
19,2,220,16,2,158,53
107,2,11,3,15,16,4
11,127,2,76,197,2,1
2,77,54,228,23,34,8
13,5,204,16,1,190,68
107,20,19,2,14,18,30
11,89,2,45,188,2,1
2,184,80,249,22,11,1
7,7,181,23,2,162,37
96,3,10,2,13,16,76
62,65,1,55,189,2,9
4,188,68,223,22,12,2
0,10,186,20,3,152,1
34,2,14,1,15,23,54
119,94,0,38,194,2,56
9,142,54,237,24,23,3
1,4,259,16,1,179,2
9,0,13,1,16,16,10
90,47,0,67,192,0,80
51,145,87,202,23,19,15
4,17,185,14,3,177,3
1,1,10,0,14,21,1
20,4,2,92,191,2,55
118,255,105,264,22,5,55
6,24,150,16,1,153,5
1,2,6,0,18,41,1
3,112,2,47,181,2,9
124,155,55,215,21,0,73
28,6,197,14,2,121,35
2,1,13,1,18,111,1
1,1,2,49,191,3,1
73,181,70,228,22,1,33
86,61,231,17,0,111,77
6,4,10,1,25,88,9
0,1,2,46,185,5,0
6,114,60,224,21,0,0
101,117,204,23,1,44,53
52,4,9,1,16,158,57
3,2,2,42,189,9,6
2,62,18,249,21,1,1
76,48,210,15,1,2,7
112,17,22,1,5,156,73
4,2,2,42,167,43,38
2,0,7,258,49,2,1
9,196,189,21,3,0,2
119,33,96,0,1,102,31
22,4,6,74,93,87,75
1,2,2,243,150,5,10
13,146,93,22,5,0,1
124,73,139,0,0,47,9
11,3,5,46,68,156,73
2,2,2,224,184,11,39
5,133,64,28,11,0,3
107,88,195,3,2,19,1
20,6,11,31,64,210,33
1,1,2,221,172,7,75
0,16,55,23,10,2,10
61,194,187,1,1,13,2
84,16,22,42,49,159,9
7,2,3,240,185,20,78
1,17,18,24,11,2,48
12,167,212,1,2,11,3
109,21,12,32,46,158,0
20,2,0,221,175,27,32
2,8,39,21,13,1,79
2,147,183,2,1,2,11
95,94,9,26,63,148,0
45,6,2,207,180,42,11
2,2,6,26,12,1,85
1,261,142,1,1,0,22
32,54,47,57,35,117,2
129,4,2,208,177,67,0
8,5,2,21,13,3,63
2,29,107,2,2,1,63
1,151,155,17,65,57,4
100,12,4,255,175,174,2
27,1,1,26,12,13,9
3,51,101,0,1,2,71
1,220,97,37,65,46,42
77,17,7,248,182,150,1
89,2,2,21,13,10,1
9,73,11,1,1,2,30
2,194,179,24,62,47,78
4,8,14,220,176,166,10
105,2,1,31,14,12,1
32,21,35,1,2,2,9
3,307,196,19,48,51,74
1,19,13,246,179,132,38
68,3,2,28,13,10,3
89,2,58,1,2,0,2
9,254,181,13,60,47,34
1,31,16,226,195,158,77
1,2,1,24,11,8,10
90,3,80,2,1,1,1
75,104,177,15,46,9,10
4,153,7,242,179,148,79
1,9,0,25,13,51,17
32,3,3,1,0,2,0
121,105,181,14,53,3,0
7,116,82,238,177,95,57
2,3,3,35,16,135,60
3,1,2,1,1,5,5
95,108,90,36,47,1,0
68,103,180,225,186,34,9
3,3,9,25,15,154,76
1,3,1,2,1,10,42
44,78,72,16,46,1,3
104,145,223,216,183,47,0
7,6,11,33,14,144,33
3,10,2,2,1,13,77
2,106,56,24,38,0,11
87,90,202,220,189,42,1
79,7,14,23,13,160,8
4,0,2,1,2,11,72
0,56,58,16,40,1,40
44,324,206,216,178,47,3
96,14,21,34,13,130,1
17,2,1,2,0,12,30
3,40,57,31,42,2,74
1,170,174,191,191,22,9
94,15,16,27,16,161,2
55,0,2,1,0,13,2
4,65,47,18,36,1,55
1,154,207,224,184,28,60
29,9,13,29,12,175,4
108,2,1,1,2,13,2
6,3,58,5,47,2,8
2,148,204,216,180,38,72
7,35,15,59,14,157,40
99,2,2,3,1,11,2
56,16,56,2,55,2,1
3,196,203,145,193,19,31
1,66,13,133,15,161,77
37,4,2,3,2,14,10
100,2,30,1,51,0,1
6,212,187,139,178,43,7
2,98,16,125,12,180,71
1,6,1,3,1,12,41
97,2,83,0,43,2,3
34,55,183,176,196,32,0
3,203,15,129,15,144,27
1,16,2,4,0,9,79
33,1,34,2,39,2,8
93,61,221,120,172,4,3
15,184,18,111,12,144,1
1,13,0,3,3,64,55
5,1,86,0,47,3,65
85,35,156,130,188,0,5
73,183,16,129,16,72,1
5,9,2,3,2,153,9
1,3,49,1,67,8,75
40,21,176,132,147,2,40
106,164,14,136,12,25,3
8,28,1,3,0,142,2
2,2,45,1,57,11,34
3,2,207,136,172,2,75
85,134,15,142,14,21,10
60,83,1,3,0,171,1
5,4,34,0,46,14,8
0,0,207,124,171,0,70
26,95,25,137,16,37,41
106,170,2,2,0,146,2
10,7,36,2,37,19,0
2,1,203,130,190,1,29
26,74,18,142,22,23,80
131,183,2,3,3,154,9
7,20,47,1,22,13,2
2,0,199,126,171,1,0
18,14,16,138,13,17,53
97,159,1,4,1,166,62
21,16,46,1,37,14,5
1,1,226,125,142,1,2
0,45,21,150,23,12,7
59,167,1,4,2,157,73
83,13,26,1,30,12,43
7,0,194,128,171,1,2
1,52,20,139,16,15,2
2,190,0,5,2,161,23
89,35,35,2,39,14,71
58,2,205,119,159,0,9
3,75,23,145,10,24,1
1,147,1,4,0,153,0
29,19,40,1,41,13,48
104,1,252,121,200,2,62
6,28,18,147,17,21,5
1,179,1,3,1,153,0
10,17,32,2,13,14,5
120,1,196,122,174,1,71
15,37,22,143,15,18,47
1,184,0,4,0,159,4
12,21,32,2,24,21,2
118,2,192,117,205,1,27
19,22,19,143,20,19,76
1,172,0,4,1,169,11
2,13,24,1,31,18,1
105,1,178,112,208,2,6
27,31,17,148,16,18,68
3,185,0,4,1,153,42
2,16,36,0,11,16,1
61,0,215,110,228,1,2
97,52,19,145,17,16,25
10,192,2,4,2,165,76
1,19,26,1,30,17,11
28,2,191,108,184,1,0
105,22,20,150,19,17,5
7,185,2,5,0,159,68
2,21,23,2,19,17,47
0,2,192,105,193,2,3
80,24,21,145,17,13,0
71,190,1,3,2,169,27
5,18,24,2,5,21,74
2,1,185,110,131,1,7
33,10,14,152,37,13,1
96,189,0,4,2,158,1
13,21,43,2,3,18,54
2,1,187,106,93,1,61
8,17,26,156,128,10,5
82,191,1,5,6,164,0
60,25,21,0,0,23,6
3,0,174,96,92,1,69
2,19,19,195,125,9,43
18,168,2,10,6,132,2
114,18,26,2,0,45,1
14,2,198,101,19,2,24
1,18,20,162,183,2,77
25,184,2,4,19,111,11
89,20,17,1,1,92,1
13,1,192,104,28,5,5
2,12,22,134,187,2,72
0,182,1,4,13,53,46
94,24,28,1,1,151,2
63,1,209,91,13,8,1
4,12,22,198,169,2,27
1,181,1,11,30,4,81
18,22,10,2,1,138,9
91,1,186,88,9,40,2
15,10,26,199,150,2,0
1,184,1,11,45,2,47
2,25,32,2,2,107,65
86,2,235,95,1,69,4
73,10,21,208,93,5,0
5,180,1,11,114,1,2
0,21,21,1,6,68,65
10,1,173,86,0,154,41
112,11,11,208,46,11,3
11,188,2,11,148,2,2
1,27,30,0,12,49,24
36,2,193,95,0,160,79
111,9,19,204,60,12,10
12,160,2,10,163,0,2
1,44,13,2,11,51,4
17,3,204,87,0,161,67
97,2,23,212,50,13,42
14,122,2,10,148,0,4
1,83,29,2,11,59,2
3,4,208,93,1,150,24
89,2,26,209,59,10,82
60,58,1,13,178,1,11
4,177,23,2,8,48,2
0,14,190,84,1,152,3
18,1,14,214,14,10,67
101,47,1,12,189,1,47
8,175,13,1,27,55,3
2,12,191,84,3,148,1
2,2,22,207,31,12,19
75,52,2,13,153,1,73
68,175,17,0,23,55,10
3,11,225,88,1,160,1
2,1,27,212,14,11,4
24,48,3,13,173,0,69
98,176,17,0,20,43,36
16,9,198,81,2,155,1
1,1,21,207,15,14,0
3,5,0,12,178,2,19
85,155,14,0,18,38,75
65,51,212,78,1,152,10
4,3,26,208,1,12,2
2,1,1,13,156,0,4
22,108,17,1,38,37,70
112,103,197,77,2,152,46
7,3,18,212,0,11,2
0,2,2,12,98,0,1
2,106,12,1,145,46,19
81,112,196,74,4,178,78
58,3,25,208,2,13,9
3,1,1,13,53,1,2
2,101,10,1,177,53,1
10,98,212,69,8,146,41
121,6,23,206,1,11,58
9,1,2,13,3,0,4
1,46,25,1,123,41,1
4,168,205,64,61,155,2
68,14,22,209,4,12,64
84,2,1,13,0,2,40
6,40,25,1,126,41,2
1,188,206,69,101,152,1
19,15,22,221,3,12,19
87,0,1,15,2,2,75
14,47,19,1,107,43,11
2,183,195,68,102,171,1
0,14,25,209,3,13,1
85,1,1,14,1,1,63
71,57,8,2,84,30,41
4,180,174,65,148,162,2
0,17,64,215,8,13,2
17,1,4,14,2,3,19
104,44,1,0,50,39,75
9,214,127,64,172,163,9
2,17,89,216,9,11,1
0,2,6,15,3,2,0
84,13,2,0,9,30,44
73,178,64,65,162,173,64
5,15,187,216,46,13,5
2,0,12,14,3,1,0
16,38,2,1,0,40,2
100,178,77,65,80,158,63
7,15,192,213,157,13,38
1,1,16,13,5,1,3
2,46,1,0,1,28,0
78,180,72,63,45,160,18
65,14,182,217,185,15,76
3,0,13,15,10,2,11
1,35,1,3,0,29,2
15,174,58,63,28,164,4
102,16,198,216,169,15,69
11,3,13,14,15,1,46
1,30,2,1,0,30,4
13,200,75,56,42,163,0
106,12,204,217,170,14,18
9,1,13,17,16,1,74
2,28,2,2,1,24,11
3,188,46,55,37,158,1
87,18,190,224,200,17,2
64,2,14,17,14,1,65
5,30,1,1,1,25,52
1,177,62,51,46,162,5
19,18,188,210,177,14,0
100,1,14,14,15,0,20
11,29,2,0,2,32,76
1,181,57,51,15,163,13
9,16,192,212,173,16,2
97,1,12,16,14,2,1
41,24,1,1,0,26,61
2,185,56,50,19,162,44
1,19,196,216,163,15,2
34,1,15,18,15,1,1
95,25,1,0,0,24,20
9,184,61,49,30,162,82
0,16,188,217,171,16,13
1,0,14,17,16,1,1
65,28,2,0,1,28,2
60,184,48,43,30,169,66
8,17,189,212,186,17,47
1,1,14,17,13,1,2
8,14,1,1,1,26,1
94,183,69,45,39,147,14
48,16,189,215,156,21,75
3,2,14,17,15,0,11
1,21,1,0,0,26,2
33,185,48,42,19,153,6
84,18,181,214,203,15,69
8,1,14,19,17,1,47
2,31,1,2,2,18,2
0,199,43,40,26,158,1
91,15,204,219,186,18,18
59,1,16,22,18,1,80
4,21,2,2,1,19,11
0,182,47,41,41,165,2
8,18,203,212,180,19,2
103,1,14,18,14,1,66
17,18,3,1,2,17,51
1,179,45,35,22,161,4
1,21,202,221,191,18,0
71,1,16,18,14,2,17
61,17,2,1,2,17,80
4,183,56,35,33,160,12
1,20,209,210,186,17,2
3,1,16,18,16,2,1
85,25,1,2,1,16,65
48,176,37,33,23,165,44
1,21,185,218,174,19,3
0,1,14,22,17,0,1
49,17,1,2,1,13,18
112,185,44,31,30,163,76
7,19,197,215,168,21,12
1,1,16,21,17,2,2
25,15,2,1,1,12,2
92,189,44,31,18,159,62
29,22,200,213,178,20,48
2,1,14,22,20,1,3
0,11,0,1,2,13,1
64,186,45,33,12,159,10
71,22,194,209,170,17,76
4,0,16,20,20,0,14
1,16,1,1,1,11,1
34,180,35,27,29,159,2
101,22,199,208,173,20,61
10,1,15,21,15,0,49
1,13,0,1,2,13,3
25,175,35,25,15,163,0
92,22,194,212,201,21,16
14,2,19,21,18,1,78
2,15,1,1,1,2,14
3,177,47,26,25,142,1
113,22,200,214,175,50,1
29,1,18,21,17,2,61
2,11,1,0,1,0,48
0,182,38,25,17,101,4
49,22,197,218,174,87,2
102,2,17,21,18,5,16
7,13,1,2,2,1,76
1,181,34,23,17,47,12
15,22,202,219,156,154,1
96,1,16,23,23,11,1
18,11,0,1,2,1,63
1,185,38,18,10,47,48
0,26,202,211,187,158,4
70,2,20,26,17,11,2
85,9,1,1,2,1,15
5,163,36,17,2,47,74
1,50,202,212,175,158,11
3,4,19,24,41,10,2
81,1,2,1,2,2,2
46,114,29,26,0,46,59
3,100,199,218,116,161,46
0,2,18,22,105,11,3
36,1,1,2,2,3,1
87,113,29,18,1,44,14
12,97,201,213,120,159,75
1,7,18,27,83,12,12
16,1,2,2,5,3,0
93,61,25,15,3,50,2
24,176,195,214,66,142,66
1,12,18,26,147,11,51
2,2,0,1,11,1,3
66,53,34,15,0,30,0
86,177,199,214,48,156,13
5,14,19,25,171,10,84
1,1,2,1,9,2,13
7,54,30,13,2,45,2
87,183,193,211,15,152,0
36,13,20,26,191,12,62
2,2,1,1,24,0,45
1,53,30,12,2,35,3
49,175,195,215,4,165,0
82,13,20,29,143,13,17
13,0,1,2,43,1,84
2,50,25,10,3,38,13
10,182,199,217,0,158,1
117,14,22,30,122,12,2
10,0,2,1,101,1,59
0,45,26,11,2,40,47
9,178,198,212,0,154,4
93,12,18,27,129,12,0
54,0,0,2,82,1,15
4,49,22,8,4,33,82
2,182,204,186,1,159,14
41,14,19,63,48,12,2
99,1,2,3,162,2,0
12,47,25,1,10,28,62
1,180,193,126,2,158,49
22,13,20,127,52,15,3
101,1,2,4,164,3,1
10,37,18,0,9,29,13
0,183,196,126,1,154,78
8,15,22,126,11,13,14
91,1,1,3,177,1,1
48,41,23,2,22,28,2
2,183,198,130,1,155,62
1,15,20,131,4,12,56
32,2,1,2,151,2,5
105,41,15,0,56,23,0
4,175,201,124,3,156,10
1,14,23,129,0,14,71
4,2,0,2,103,2,14
92,41,19,2,104,27,1
57,182,202,119,2,160,2
4,16,19,133,2,13,60
1,2,1,4,115,2,50
38,40,19,1,99,30,4
106,179,201,123,5,162,2
6,15,21,133,2,15,11
1,1,1,3,49,0,74
7,34,17,0,168,24,14
93,178,201,118,13,160,1
50,14,21,135,2,14,0
3,2,2,3,44,1,60
1,41,17,0,166,25,51
56,182,201,112,12,163,4
89,17,22,136,2,16,0
12,2,2,4,56,2,12
1,34,19,0,168,18,77
6,184,202,114,12,159,13
97,16,22,139,3,15,2
54,2,2,4,36,0,2
2,32,18,1,183,22,60
2,183,199,112,13,163,54
24,16,21,139,2,14,3
98,0,2,5,43,0,1
12,34,18,0,168,18,14
2,180,196,109,14,158,76
6,16,22,143,1,15,12
94,1,1,4,37,1,1
50,33,13,1,177,22,0
3,180,202,107,14,158,60
1,16,22,140,2,14,48
38,1,2,4,46,1,4
95,34,12,2,181,18,1
12,182,196,104,13,160,11
2,16,25,144,1,19,77
4,0,2,4,30,2,16
90,26,13,0,188,18,0
52,188,199,105,15,150,2
4,18,25,146,2,13,60
0,2,1,4,53,2,49
15,29,16,1,174,19,3
96,183,204,104,17,163,2
13,18,26,145,0,17,6
0,1,3,4,37,1,68
4,29,11,1,195,18,31
85,185,197,101,16,155,2
47,17,23,142,2,18,2
2,1,0,5,33,2,32
1,18,17,0,191,17,72
31,181,206,102,14,151,7
98,17,26,143,0,17,0
10,0,1,4,43,2,1
1,24,11,0,175,14,60
6,183,203,100,15,164,53
85,15,27,148,1,18,3
54,2,1,6,35,0,1
2,21,8,0,190,11,9
1,184,175,94,10,160,76
33,18,55,190,2,19,31
104,1,4,9,39,1,2
6,23,0,1,191,16,0
2,181,126,38,16,156,34
2,17,117,213,2,16,72
90,1,3,21,32,1,7
57,19,2,1,176,16,1
3,185,127,26,19,172,2
1,19,110,209,2,16,57
39,1,4,22,28,0,56
96,19,1,1,174,10,4
16,185,127,25,16,169,2
1,18,122,211,2,19,10
4,1,4,21,26,1,79
90,18,2,3,180,13,13
56,183,128,25,17,161,2
2,20,118,214,0,19,2
2,2,3,24,28,2,55
30,17,1,1,187,13,54
97,183,119,22,16,166,4
14,21,123,214,1,20,1
0,2,3,21,32,1,7
6,13,1,1,195,8,75
88,185,117,23,15,139,32
59,22,114,211,1,45,2
3,1,2,21,34,2,0
0,14,2,2,166,0,30
32,186,117,23,18,98,70
95,20,128,215,1,123,7
12,0,1,24,17,5,2
2,14,1,1,177,2,2
0,186,116,18,18,42,53
95,20,124,211,1,160,62
66,1,3,24,17,11,3
4,13,0,1,163,0,1
1,184,112,19,17,45,7
26,21,127,208,2,155,71
99,1,4,22,19,10,29
14,14,0,1,182,0,1
0,183,106,16,20,51,0
0,21,129,212,1,157,29
81,2,4,23,34,10,70
55,13,1,1,168,2,9
2,186,110,13,18,47,0
1,22,133,213,1,160,0
30,1,5,27,33,11,56
98,15,1,3,183,3,55
13,186,112,14,18,41,3
1,25,130,205,1,157,1
1,1,3,24,14,11,5
84,11,0,1,189,1,73
61,180,109,18,17,43,33
4,21,124,208,0,161,3
1,2,4,24,24,11,1
23,12,2,1,164,0,31
98,181,118,10,18,43,73
15,21,125,203,1,159,7
1,1,4,26,7,11,1
3,11,2,3,157,2,0
88,188,105,14,50,44,50
57,23,121,215,2,160,56
3,2,5,26,2,12,5
1,7,0,1,116,1,0
34,162,104,10,84,35,6
98,50,130,210,6,154,70
15,2,5,26,2,12,29
0,1,1,1,65,2,1
3,121,113,13,185,41,1
88,116,133,210,9,162,31
65,3,4,28,2,12,77
4,3,0,1,10,2,10
1,111,104,7,187,33,1
22,106,136,177,20,155,8
99,1,5,65,2,10,74
11,2,1,5,11,1,30
1,111,103,2,199,42,2
4,105,141,131,25,159,2
86,3,4,127,1,13,31
62,1,1,3,11,0,77
3,107,102,1,188,33,9
1,110,136,123,25,156,0
19,2,4,127,2,14,1
99,1,1,3,22,2,51
15,113,98,1,187,29,54
0,105,180,128,22,160,4
1,3,9,129,0,13,2
79,0,1,5,15,1,7
60,104,45,1,191,27,75
4,118,203,121,25,153,37
2,3,17,126,2,13,3
28,1,1,3,18,3,0
95,102,35,2,189,27,31
15,109,205,120,25,161,74
0,3,17,133,2,14,9
2,2,2,3,8,1,1
77,103,36,1,161,28,1
63,118,202,116,55,157,54
3,3,17,128,3,13,57
1,1,1,3,2,1,5
27,103,41,1,110,28,1
93,113,206,115,99,166,4
16,3,18,133,6,15,72
1,2,1,4,1,2,38
2,103,31,0,65,27,3
82,118,216,113,171,165,0
69,4,17,134,13,15,28
5,1,1,4,2,2,78
2,97,30,1,61,27,8
19,165,207,108,192,154,1
97,7,17,137,14,15,2
17,0,2,4,1,0,55
2,47,31,0,60,25,59
1,180,208,111,182,160,5
86,15,19,139,10,14,1
57,1,0,4,0,1,6
2,41,30,0,54,23,71
0,186,209,109,183,164,42
25,15,21,136,12,15,4
96,2,3,3,1,2,0
17,41,27,2,60,22,28
2,188,207,106,172,159,73
2,15,19,143,10,15,9
83,2,2,5,0,0,2
61,38,30,0,51,26,2
3,187,215,106,189,157,56
1,17,21,137,12,15,58
19,2,2,5,2,1,4
100,35,26,0,51,21,0
9,187,212,102,174,162,5
1,15,21,148,12,18,74
1,1,2,5,1,1,41
82,35,23,2,56,19,3
58,185,205,95,190,161,1
5,14,20,188,11,15,23
1,0,0,10,1,0,74
17,36,26,0,49,23,9
96,186,209,97,179,162,1
14,16,21,193,10,17,2
2,1,2,8,2,1,49
2,33,19,0,59,18,55
83,189,205,36,174,160,5
62,19,23,210,13,16,1
5,1,2,18,1,1,5
1,31,23,0,49,17,68
20,180,209,33,164,161,42
97,16,24,212,11,18,4
16,1,1,22,1,2,2
2,35,18,0,58,12,23
1,190,203,26,155,161,73
84,15,20,207,10,21,11
59,1,0,22,1,2,1
3,30,19,2,52,11,4
1,190,212,31,196,157,68
24,19,23,206,13,17,37
104,2,1,20,1,2,2
8,29,18,0,36,11,1
1,185,207,27,167,160,32
2,16,21,216,14,19,81
75,1,1,20,0,0,11
66,27,22,0,39,12,1
6,187,218,28,186,161,5
2,17,25,213,13,18,72
20,1,0,20,1,1,37
97,31,19,2,44,13,2
17,192,214,25,167,167,1
3,18,24,215,16,19,26
1,0,3,23,1,2,78
76,27,17,1,46,5,10
66,188,203,25,183,150,1
4,18,23,216,14,39,8
1,0,2,23,1,2,73
18,22,16,2,31,2,35
90,190,207,20,204,106,2
14,19,24,209,14,86,1
1,3,1,23,2,4,23
2,26,13,2,39,1,78
78,184,204,23,187,54,10
72,19,26,211,14,154,1
3,1,2,24,0,8,5
1,18,15,2,33,1,66
11,186,207,17,202,10,38
98,21,25,212,14,162,3
18,2,1,25,2,21,3
2,18,15,2,21,1,24
2,186,204,16,190,9,75
74,22,24,208,17,144,9
69,0,1,24,1,44,1
6,22,15,2,41,2,2
0,187,204,17,173,0,50
16,20,25,216,13,99,63
96,0,0,26,1,129,5
20,19,16,2,32,5,0
2,188,205,15,188,0,2
1,20,25,209,19,46,71
76,1,1,27,0,157,39
68,20,15,1,44,11,2
4,187,205,14,177,3,0
1,22,27,211,20,50,26
13,2,1,28,0,158,78
100,19,11,1,33,10,8
8,191,207,12,189,1,2
1,22,26,220,19,43,2
1,1,2,27,0,151,50
73,15,12,1,29,10,64
68,191,206,13,187,1,4
5,22,28,213,16,46,2
0,0,3,27,1,161,4
14,14,9,1,32,11,70
106,187,184,12,180,2,43
9,23,57,207,16,42,2
2,1,4,28,2,158,0
2,14,2,1,30,11,25
80,185,147,8,189,0,78
61,22,118,182,19,44,8
4,0,4,61,2,159,1
2,14,0,3,19,11,0
15,191,124,0,183,2,46
103,22,118,129,17,40,56
9,0,3,121,0,163,4
2,14,0,4,30,12,0
0,192,127,2,200,1,4
79,23,113,132,17,40,72
73,1,3,117,2,160,42
6,13,0,3,28,9,3
1,189,128,1,187,0,2
11,23,124,117,19,8,25
92,1,3,124,0,143,80
18,12,1,3,30,50,10
1,188,123,2,180,3,0
1,24,124,125,19,0,4
70,2,4,131,1,91,70
63,10,2,4,19,141,41
3,189,123,1,184,6,2
1,23,118,128,21,2,1
14,0,4,126,1,36,25
99,8,0,3,14,157,76
18,161,122,0,213,13,11
1,53,122,117,18,0,1
0,3,2,125,2,38,4
74,1,1,5,22,163,70
73,120,124,1,193,14,42
5,105,134,118,18,0,2
1,2,4,129,0,31,1
13,1,2,5,27,159,20
96,117,110,1,181,12,78
20,107,107,121,22,0,10
2,1,3,125,0,34,1
1,1,1,5,17,162,2
66,112,113,0,186,12,75
72,110,131,105,18,1,54
6,2,3,131,2,29,4
1,2,2,4,15,166,1
12,115,127,1,197,14,22
101,111,118,105,24,2,72
11,3,2,136,1,33,9
2,1,2,3,15,169,0
9,112,128,1,190,13,1
87,109,137,108,20,1,46
43,4,3,135,1,32,70
3,0,2,4,19,163,5
2,112,119,1,185,15,0
44,113,133,102,22,0,1
87,2,5,142,1,27,71
8,3,0,4,17,164,46
3,112,105,1,178,13,3
0,113,151,124,19,2,1
73,3,4,132,2,25,19
74,1,3,4,8,156,80
6,106,112,1,135,14,10
2,115,160,108,47,1,2
11,3,4,135,3,30,3
107,0,2,3,2,162,69
8,108,66,2,123,13,50
1,118,194,109,93,1,2
2,2,7,135,6,25,1
74,1,2,4,1,160,17
73,107,55,2,71,15,80
5,112,243,103,181,0,12
2,2,21,145,10,22,0
10,1,1,3,0,175,2
91,107,29,2,65,18,71
19,116,198,103,170,1,50
1,4,22,147,9,19,3
2,0,1,4,3,159,0
75,104,52,3,15,14,19
71,116,212,95,189,1,76
5,3,22,196,22,21,12
1,1,2,9,1,164,1
14,105,43,1,9,17,0
97,121,216,37,155,0,66
24,4,16,213,51,17,46
3,1,2,18,2,161,3
1,103,22,2,1,16,2
68,120,140,36,128,0,20
70,5,22,220,103,21,77
6,1,1,20,1,164,10
0,99,48,0,1,17,2
9,163,229,30,148,1,2
93,8,9,217,98,15,66
45,0,3,21,7,170,50
1,36,1,0,1,20,2
0,185,198,28,62,2,2
42,16,119,202,184,14,18
90,2,2,18,14,169,79
12,42,2,2,2,19,11
1,190,234,38,56,1,1
15,14,111,258,184,17,2
98,0,2,20,11,161,73
21,39,0,1,0,19,48
1,187,230,17,57,2,3
1,14,64,186,192,14,0
69,0,4,58,13,164,17
71,39,0,3,1,17,74
5,196,58,24,47,2,9
2,17,241,266,180,15,2
10,0,22,26,11,164,0
105,36,1,2,2,18,42
11,191,161,5,31,2,64
1,15,119,208,155,13,5
10,1,8,47,13,164,1
105,32,1,3,1,18,1
12,188,0,34,58,1,65
1,18,249,173,198,17,49
10,1,75,53,13,165,3
101,34,4,4,2,19,1
10,189,170,1,54,1,20
1,15,255,125,182,7,79
7,1,8,91,13,139,12
86,35,18,4,1,40,0
47,182,59,2,66,2,2
3,17,111,58,180,2,67
2,1,4,220,17,107,46
38,29,0,20,1,83,3
99,189,115,3,56,4,1
13,17,208,89,184,2,14
1,0,6,169,14,50,82
9,34,1,14,1,159,12
95,192,23,1,18,11,1
49,17,172,87,174,1,1
3,1,178,146,12,46,65
0,28,62,8,1,164,40
37,179,57,0,40,10,2
98,15,64,101,175,1,0
12,0,36,221,9,48,17
0,40,85,8,1,162,83
8,157,143,1,1,9,14
82,22,73,41,139,1,1
43,1,22,255,54,4,1
2,17,12,46,2,133,64
0,182,211,2,0,44,49
37,26,26,33,96,3,2
91,1,3,226,168,0,2
9,27,33,33,7,103,17
1,171,106,0,2,97,81
1,16,47,15,59,6,13
62,0,2,242,193,2,2
71,25,77,13,8,45,2
6,150,127,1,0,151,65
1,16,97,2,1,11,46
7,1,5,327,128,2,1
85,42,10,61,72,43,1
45,204,200,5,5,153,17
3,22,162,40,0,10,80
2,1,6,118,105,1,15
33,35,2,32,130,43,2
84,191,287,1,4,162,1
10,18,25,0,0,11,65
0,1,1,148,72,2,47
4,84,9,95,157,36,2
82,183,151,6,7,152,2
46,20,157,0,2,11,20
3,0,4,43,65,1,79
2,26,179,187,175,40,12
32,192,223,23,12,162,1
91,21,21,1,1,12,2
11,0,1,50,68,0,67
1,17,1,235,178,36,51
6,189,185,12,17,157,2
84,21,62,1,1,12,1
45,1,4,132,48,1,18
2,35,6,167,161,37,81
1,225,192,7,21,164,12
34,21,35,2,0,13,1
93,1,4,111,49,2,1
10,19,0,170,157,37,65
0,155,43,14,15,159,49
8,14,215,7,1,13,2
88,0,33,63,23,1,0
49,36,1,186,253,36,17
4,182,6,7,18,153,81
2,13,338,2,0,12,13
32,0,35,57,11,0,0
85,11,2,239,163,39,0
10,170,126,7,18,168,64
2,12,104,5,1,12,50
4,2,17,18,19,1,3
82,9,1,133,189,36,0
47,212,69,59,16,159,13
3,41,185,3,0,12,83
1,1,7,62,39,1,13
34,2,0,250,178,34,1
92,120,14,36,18,171,1
13,112,210,2,1,15,65
2,3,50,81,15,2,51
9,0,1,304,193,29,3
85,80,19,46,15,165,2
56,143,268,3,2,13,14
4,5,32,2,29,1,79
2,1,2,271,159,24,12
28,87,92,227,20,168,1
93,112,56,6,0,16,1
11,17,64,6,66,0,66
0,1,5,170,162,37,53
5,43,2,40,17,168,4
84,171,151,3,0,12,1
53,9,103,0,50,0,15
2,3,3,146,207,38,80
1,13,0,63,25,194,15
28,219,136,6,1,15,2
89,23,119,0,31,1,2
11,3,5,22,199,38,64
1,2,3,203,16,168,50
6,170,153,27,0,15,3
78,55,116,2,42,2,1
50,2,3,52,194,39,15
4,0,0,324,21,177,82
0,137,152,22,2,12,12
28,67,186,2,51,2,1
90,5,5,81,215,1,0
11,0,1,223,16,114,64
1,65,130,25,0,40,53
5,135,149,0,3,2,3
90,4,5,19,177,0,2
53,0,1,264,40,100,15
2,342,115,38,1,66,82
1,90,133,26,12,3,14
29,9,3,21,145,2,2
92,12,0,303,47,67,0
10,1,205,14,2,167,62
0,169,133,2,6,10,56
9,77,4,103,145,1,4
81,4,2,168,76,86,0
50,5,168,6,5,179,13
4,116,80,2,0,12,79
1,144,3,90,73,1,13
37,2,0,211,172,58,0
98,0,61,18,10,180,1
14,244,208,3,0,8,63
2,107,11,14,70,0,57
3,1,1,273,200,40,4
86,2,64,10,6,122,0
64,14,194,1,0,15,13
3,274,6,102,25,1,80
0,15,1,187,162,27,14
27,12,21,7,20,148,2
90,294,177,0,2,23,1
11,104,31,74,23,3,62
1,3,3,263,180,18,55
6,6,9,13,24,126,4
80,147,185,1,1,42,0
47,43,124,137,32,2,12
3,64,5,192,170,1,80
1,8,2,6,20,138,13
28,90,170,2,3,40,1
108,50,114,116,12,9,1
9,1,3,206,166,3,60
2,24,2,8,19,121,60
3,120,173,1,1,30,3
86,48,93,64,13,2,0
43,2,6,130,186,1,14
2,1,2,35,18,48,83
2,37,112,1,2,80,16
37,390,123,91,7,5,0
92,48,2,215,173,1,0
12,3,3,15,50,1,59
1,2,31,2,2,136,57
2,264,243,33,1,205,5
71,14,31,311,120,9,2
55,30,2,18,94,6,12
3,110,114,2,4,146,82
2,198,167,74,0,18,16
0,6,8,193,84,3,2
118,0,0,7,157,19,1
21,129,103,1,9,79,62
2,115,93,3,1,89,52
4,24,6,210,20,34,4
63,2,0,32,178,0,1
57,130,2,1,25,41,12
2,25,202,2,2,162,84
2,4,42,101,12,38,15
5,71,3,163,189,2,1
51,23,0,4,21,79,1
26,134,221,2,0,193,60
3,53,50,126,1,8,52
0,5,3,159,154,1,4
84,235,2,4,56,11,0
47,72,102,2,4,175,12
3,7,129,122,2,39,82
2,140,7,103,120,1,16
12,48,2,4,102,100,1
7,107,37,1,2,147,1
45,7,168,43,0,6,62
2,1,21,259,110,1,50
0,34,1,13,98,3,3
2,222,108,1,6,194,0
110,10,88,119,0,70,17
38,1,6,115,60,4,83
1,45,2,3,181,0,16
15,111,72,1,11,201,3
83,7,206,119,1,40,1
8,2,30,191,55,2,59
1,228,2,6,144,0,55
1,127,28,2,9,15,5
11,27,221,127,2,145,1
58,97,13,111,0,12,10
6,25,2,3,151,1,83
0,268,52,0,51,98,16
1,25,131,124,3,138,1
131,3,21,158,1,15,1
50,57,1,3,112,1,62
9,106,16,1,118,158,57
1,3,210,47,3,34,5
42,0,24,217,2,3,0
121,109,1,7,110,1,10
14,219,10,1,89,28,81
1,8,238,83,6,189,17
19,78,30,160,1,28,1
100,71,2,15,62,2,1
5,310,29,1,176,0,57
1,13,189,42,11,145,53
5,55,26,223,2,30,5
85,136,2,9,41,1,1
30,108,24,2,172,1,9
2,2,198,1,15,52,79
0,384,30,160,2,147,32
1,110,2,68,62,6,3
63,13,22,4,189,1,2
70,1,213,2,10,48,35
4,29,31,113,1,202,77
2,163,3,141,29,15,7
33,8,40,2,179,2,1
97,1,224,2,10,83,1
21,62,20,141,0,189,58
3,88,1,125,59,17,55
11,22,14,3,164,1,5
98,1,204,0,12,60,2
11,119,22,178,2,195,9
1,98,2,134,48,18,74
0,115,29,5,179,2,28
64,2,170,2,11,84,1
79,86,25,137,1,184,2
5,171,1,127,51,17,34
2,59,44,2,199,2,73
39,4,208,1,11,27,8
88,6,21,94,1,165,2
8,139,3,186,42,12,0
1,20,25,10,184,2,57
0,0,178,0,17,90,56
83,13,42,131,2,169,4
83,209,3,131,46,14,2
24,22,4,2,175,2,9
1,3,235,0,15,78,73
29,2,35,58,3,223,32
104,109,2,262,36,7,2
6,64,2,18,169,1,1
0,5,150,2,13,34,32
9,1,154,115,1,151,78
57,1,4,156,39,43,9
73,186,1,6,185,1,2
6,36,160,1,13,2,1
2,40,74,86,0,150,59
11,20,4,207,41,72,59
80,253,2,8,180,4,5
11,21,58,2,12,0,1
1,3,186,41,2,98,7
0,77,19,225,33,88,73
85,127,2,9,167,6,37
60,49,88,1,13,1,3
6,3,159,2,1,1,2
0,125,19,136,35,115,34
35,138,2,101,178,58,77
57,6,67,2,18,3,9
5,1,221,1,3,0,2
0,78,13,160,39,75,0
33,259,2,86,179,156,58
68,18,84,5,13,9,63
42,2,216,1,2,0,4
3,39,10,65,19,45,1
2,219,1,153,168,194,7
55,10,67,16,14,16,76
114,102,190,1,1,0,37
4,18,16,118,40,11,2
1,216,1,157,174,179,0
1,14,8,6,14,21,31
106,204,194,0,1,1,80
32,145,46,101,27,49,10
2,19,2,177,176,113,2
23,1,6,8,13,14,7
48,91,160,1,2,1,75
37,121,83,140,42,1,37
2,21,5,150,177,93,1
0,2,2,6,15,79,1
11,12,180,0,2,4,36
140,205,111,61,26,0,80
12,7,3,198,192,86,7
1,1,1,10,14,160,2
4,1,169,2,0,8,1
69,91,75,86,33,2,56
30,208,5,199,179,15,63
3,6,0,9,14,212,3
1,1,83,1,2,7,2
47,60,208,46,37,2,6
55,205,13,181,195,1,76
11,19,2,21,16,92,41
0,2,63,1,1,104,2
38,30,193,68,27,4,1
76,279,12,203,180,0,31
9,22,1,28,15,74,75
2,2,68,1,2,168,8
1,145,212,25,46,13,2
75,73,13,221,169,2,1
52,4,1,35,14,46,55
4,1,89,2,1,183,57
2,6,224,53,19,10,4
0,193,14,215,175,1,1
87,27,1,21,17,65,7
29,1,75,1,2,134,78
2,61,235,27,26,10,41
1,235,22,223,179,0,2
1,25,1,18,17,70,2
90,1,38,1,1,187,34
66,13,218,16,40,12,78
4,186,21,206,165,1,9
2,142,1,23,15,82,3
22,4,85,1,1,151,2
107,59,203,34,32,8,55
4,155,27,236,187,1,59
0,16,2,24,18,28,6
24,2,17,0,2,171,0
59,6,175,16,30,16,6
26,161,17,211,173,1,72
2,50,1,23,18,25,40
5,2,65,1,1,153,2
76,3,228,26,26,20,2
49,191,32,200,170,0,29
6,39,2,29,16,5,80
1,3,47,2,1,167,10
17,7,212,12,22,38,2
82,80,17,189,166,2,5
12,43,2,33,16,1,76
2,129,47,1,0,126,41
12,9,212,0,28,62,2
72,191,25,245,170,2,1
45,63,1,66,18,2,28
1,3,32,3,1,65,78
0,2,231,2,17,159,8
55,132,19,147,175,8,1
85,207,1,99,19,0,0
12,7,60,9,0,28,57
2,1,191,1,14,187,62
30,63,16,34,182,24,4
118,227,0,243,17,1,0
8,15,29,16,1,17,5
1,0,222,3,21,185,75
64,45,18,50,189,26,41
63,276,1,222,16,1,3
25,11,60,17,1,5,2
2,0,154,2,26,149,27
2,5,18,76,168,52,77
67,177,1,234,17,4,9
125,45,64,15,2,1,1
6,3,209,1,11,107,1
1,96,17,84,182,114,54
25,269,1,193,19,3,60
81,21,31,21,0,1,5
15,2,230,1,17,84,1
1,25,19,59,166,113,5
1,115,3,190,15,7,72
38,53,24,12,2,2,41
61,2,202,2,17,72,2
5,1,25,52,176,151,1
1,151,2,186,21,12,32
21,51,15,10,2,0,84
114,1,233,2,14,37,11
15,2,27,37,172,177,2
2,92,2,218,17,10,3
2,106,47,13,1,2,68
46,3,150,1,7,39,43
78,0,21,55,155,176,1
4,82,3,223,36,14,0
1,216,18,14,3,2,28
49,9,223,0,2,67,77
115,1,24,53,109,153,9
5,55,1,225,73,16,0
2,101,49,11,5,0,1
24,26,197,1,2,62,55
89,2,20,46,65,159,60
14,0,1,173,159,7,5
1,202,8,22,8,1,0
1,81,194,1,1,4,3
66,4,41,26,10,138,70
52,1,3,243,168,49,45
1,127,14,23,15,3,3
2,41,170,1,0,1,0
21,4,37,52,9,105,25
84,2,2,214,152,99,78
12,34,5,18,40,5,11
1,181,158,1,1,1,1
0,9,85,60,0,50,5
50,2,4,213,117,123,70
91,2,2,18,76,8,43
6,129,90,2,4,1,1
1,46,186,37,1,41,1
11,3,11,228,59,140,25
88,1,1,10,162,21,77
15,148,84,1,7,1,10
2,136,202,105,0,16,2
0,4,9,211,16,180,5
75,1,2,10,181,44,75
55,75,36,0,14,3,44
12,277,197,171,1,0,2
1,15,21,168,11,165,0
44,1,1,5,174,42,22
64,23,14,0,18,2,78
4,200,221,115,2,1,10
1,17,30,148,11,84,1
1,2,2,5,165,142,4
62,205,35,0,19,9,73
86,132,258,110,1,0,47
7,4,16,170,10,48,2
1,0,0,4,151,147,0
18,68,43,2,20,18,26
91,195,203,110,1,0,79
21,14,15,149,11,48,9
1,1,0,7,166,159,2
0,26,18,3,21,13,1
68,145,228,65,1,2,51
62,12,24,205,5,38,65
6,1,3,16,148,166,6
0,13,20,1,46,16,0
3,232,210,94,3,2,4
119,10,28,195,1,53,72
22,1,1,15,108,139,44
1,42,19,2,89,9,2
0,205,221,81,5,2,0
31,9,27,185,1,1,24
97,2,2,8,53,148,81
10,37,23,2,155,61,11
0,184,241,11,11,3,0
40,24,25,237,1,2,4
112,1,2,21,61,89,72
6,17,3,1,143,156,47
1,189,189,9,9,7,3
10,13,76,151,2,1,2
87,1,5,61,9,28,23
20,6,2,2,145,126,78
2,169,165,0,43,20,11
0,17,130,164,3,2,0
53,1,2,104,1,72,4
48,0,0,2,99,133,69
4,118,166,0,133,4,43
0,46,113,162,4,1,3
15,2,2,76,1,14,2
134,3,3,4,46,147,24
10,46,113,2,172,26,81
0,343,127,102,9,1,11
12,11,3,192,1,0,1
82,1,1,7,8,119,3
26,60,146,2,143,75,73
1,164,111,93,54,5,44
1,7,2,222,4,0,2
75,1,3,10,1,74,1
74,0,93,2,103,162,24
7,115,180,86,91,12,84
1,57,8,231,4,0,13
3,2,2,15,1,110,0
69,1,103,0,35,136,3
45,128,164,76,164,4,68
2,90,5,207,11,1,47
1,4,1,9,1,81,1
53,1,83,3,52,107,0
100,129,220,19,165,8,22
6,176,15,182,12,1,83
2,8,1,36,1,38,10
2,1,57,1,53,177,2
109,53,223,12,157,12,3
11,240,16,199,10,1,71
1,8,1,26,1,22,49
7,2,68,2,46,148,3
51,19,201,12,164,17,1
62,173,12,256,12,1,22
2,42,1,22,1,23,79
1,3,70,1,47,162,11
10,36,214,41,172,19,1
105,92,14,226,14,1,1
9,128,1,25,2,15,68
3,1,65,0,44,181,46
1,14,193,19,171,26,3
69,148,14,231,12,2,2
72,21,1,33,2,17,22
7,0,44,2,63,178,85
1,45,230,5,156,15,12
3,136,12,204,14,1,0
85,48,0,63,3,40,3
62,4,73,3,49,150,69
4,11,225,1,165,25,48
2,129,13,144,17,2,3
46,20,3,130,1,23,0
105,1,23,4,50,154,22
8,24,207,2,166,16,84
2,96,12,159,13,0,14
13,111,1,149,1,12,2
76,2,60,5,51,172,1
23,17,215,1,164,21,69
2,166,17,163,14,2,49
2,51,2,122,2,41,3
40,2,70,4,34,189,1
65,13,234,1,173,20,19
8,211,9,195,14,1,79
0,19,0,142,0,1,13
0,1,12,3,45,145,1
67,9,209,0,181,43,2
64,193,45,135,14,2,74
4,22,2,107,1,0,50
1,1,9,2,29,120,3
25,0,171,1,175,105,0
95,167,91,123,17,4,24
13,49,4,138,3,1,80
1,4,1,5,42,129,12
22,0,123,1,165,65,1
88,79,183,124,13,3,0
24,212,4,113,0,1,68
1,9,0,4,42,44,52
1,1,101,2,168,162,4
75,79,136,144,15,13,2
76,177,4,115,1,0,20
6,15,0,4,39,39,83
1,1,122,1,177,171,13
8,0,169,172,13,10,1
111,117,5,105,2,1,4
20,36,1,2,37,67,70
2,1,112,2,170,157,49
1,3,105,114,14,8,2
53,97,4,150,2,0,0
66,138,1,5,37,9,18
6,4,95,2,173,135,82
1,0,187,113,16,32,13
10,61,10,124,1,1,2
114,222,1,4,41,2,2
12,11,139,2,158,78,67
2,6,139,114,15,135,49
5,56,3,159,2,5,3
55,183,1,4,28,2,1
36,20,118,3,170,36,21
3,3,133,123,19,217,84
0,14,5,117,2,17,13
17,188,2,3,36,0,2
122,31,106,1,167,101,1
14,2,169,96,17,114,66
1,63,5,215,1,4,56
48,188,1,10,30,1,4
100,17,99,1,177,43,0
6,2,200,115,16,174,18
0,105,9,145,1,11,84
2,147,1,6,38,2,14
92,5,20,0,163,48,1
54,2,180,168,15,177,1
3,56,18,159,0,14,68
0,272,0,5,27,1,53
30,13,22,0,173,24,3
111,1,214,113,14,206,1
5,82,17,137,2,9,16
0,231,2,3,30,0,83
2,9,46,0,167,5,13
59,1,219,95,16,146,2
64,1,23,239,2,75,2
4,187,2,12,33,3,66
1,95,6,1,170,1,51
25,4,211,117,14,94,3
79,1,41,147,1,138,0
21,111,2,3,32,6,20
2,149,1,0,157,1,85
2,6,193,86,17,56,12
69,1,82,226,3,162,1
48,113,4,8,32,10,0
3,76,2,1,166,1,66
1,5,97,52,14,50,49
12,2,215,244,2,218,3
120,52,10,18,25,7,1
9,206,1,1,166,1,16
2,21,107,37,16,3,84
8,2,153,221,1,130,14
80,49,5,21,17,57,0
31,172,1,2,157,2,2
1,13,96,38,15,1,64
2,0,218,223,0,107,53
19,31,10,22,20,126,3
85,245,0,2,169,4,1
11,17,88,31,15,0,20
1,0,184,221,2,79,80
27,103,11,25,24,152,13
96,120,1,3,179,5,2
21,12,100,29,14,1,1
2,1,170,211,2,55,72
0,149,6,22,18,158,56
34,101,2,0,167,14,3
77,3,80,41,16,1,2
8,0,202,223,2,40,19
2,155,12,21,16,178,81
9,92,1,1,165,18,16
75,6,97,36,17,3,0
46,2,199,238,2,35,2
2,50,13,22,25,242,65
0,185,2,1,159,11,51
20,17,93,38,16,1,3
80,0,192,204,0,14,0
13,75,11,22,18,178,17
0,230,0,2,155,16,82
7,17,90,30,15,2,12
81,2,206,211,1,57,0
64,32,10,24,19,154,2
4,187,1,1,168,14,70
1,29,101,22,22,1,53
12,3,161,214,2,29,3
104,69,5,26,14,184,1
9,207,1,1,164,23,15
1,15,87,24,16,2,86
2,2,199,225,0,9,15
76,42,14,24,15,178,0
58,143,1,2,165,26,1
5,13,100,18,18,2,65
1,0,177,224,2,4,56
23,45,6,26,6,148,4
83,162,1,1,151,81,0
14,29,94,17,33,4,14
0,0,229,214,3,1,84
2,9,14,25,2,107,15
82,147,1,2,98,119,1
61,53,99,17,113,3,1
2,2,201,216,4,0,64
0,1,12,24,1,82,58
12,172,0,1,62,167,5
85,62,67,25,170,9,2
13,4,213,215,9,2,13
2,0,12,26,2,18,80
1,112,1,1,17,176,14
51,89,80,14,171,22,0
56,5,218,217,18,1,0
4,12,12,26,0,18,63
0,59,2,2,18,160,59
50,205,89,14,166,21,4
93,9,230,218,16,2,0
10,2,13,26,1,22,11
2,57,1,1,10,167,84
3,188,85,9,164,16,16
79,29,227,190,18,1,3
67,2,12,55,1,38,0
4,15,1,2,8,175,66
1,209,68,1,148,23,57
23,24,206,145,37,2,4
105,1,13,120,3,37,1
9,33,0,3,0,130,13
2,261,70,1,108,14,84
1,14,234,143,79,2,14
74,1,22,97,4,10,0
57,49,3,5,1,183,2
4,215,76,0,55,11,66
1,24,215,87,150,1,59
24,1,13,203,10,28,5
82,35,0,10,0,183,3
8,232,71,0,56,16,11
2,14,215,75,157,1,86
0,26,14,217,9,26,17
74,78,1,12,0,159,0
62,228,69,1,13,18,1
4,7,217,60,165,0,65
1,1,17,187,21,27,59
2,27,0,15,0,147,5
76,203,59,0,7,20,2
41,20,211,73,144,2,11
4,1,15,220,43,37,84
1,1,0,15,3,146,17
19,256,70,0,2,23,0
105,63,215,63,102,1,2
9,3,15,225,91,25,63
2,0,0,16,4,147,56
1,114,58,1,1,18,3
68,138,212,63,49,1,2
58,3,16,220,162,1,13
4,2,2,17,11,148,81
0,161,83,2,0,41,15
14,78,230,61,48,3,0
98,5,15,218,164,1,2
16,2,2,15,10,123,67
2,159,51,1,2,91,56
0,69,233,59,39,6,5
78,5,18,209,145,1,0
68,0,2,14,9,53,13
4,27,39,2,1,159,82
1,250,213,53,6,14,13
6,15,14,212,152,1,1
83,2,0,15,38,47,1
52,37,76,2,2,207,63
4,138,242,57,1,10,56
0,5,21,218,89,2,4
40,0,1,17,124,62,1
81,0,24,1,3,180,10
8,107,187,48,0,12,85
1,100,24,212,52,0,15
9,4,3,14,163,66,2
64,0,54,2,13,167,1
58,108,199,57,2,11,60
4,229,15,225,48,1,55
2,9,0,17,156,56,3
19,2,45,0,8,168,2
91,174,260,47,1,10,10
12,48,21,211,4,0,83
1,0,1,18,158,55,13
3,0,53,1,55,169,0
72,84,213,51,2,13,2
51,236,16,217,1,2,61
5,10,0,19,59,49,57
1,0,19,2,133,170,4
21,91,191,46,4,11,2
71,207,22,213,0,1,11
19,7,1,18,54,35,79
0,2,40,1,145,181,16
0,11,242,42,9,11,1
50,88,25,214,1,1,1
74,110,2,19,2,37,61
5,3,43,0,130,172,57
2,38,212,45,45,12,3
26,199,15,213,2,0,0
95,14,0,18,0,46,9
12,1,37,2,95,175,77
2,41,221,52,163,13,36
3,195,15,210,8,2,2
93,13,2,16,0,38,2
60,0,70,0,34,177,36
5,22,291,37,148,13,79
1,224,17,215,13,0,8
22,27,0,22,2,37,1
93,1,43,1,47,130,2
17,10,176,34,158,7,61
1,192,22,218,11,0,61
2,15,2,21,1,10,5
43,1,27,2,32,154,1
75,13,202,41,144,27,9
4,207,16,216,13,2,74
1,27,2,21,2,5,37
20,2,42,1,36,142,3
87,15,217,30,165,60,2
21,202,16,209,15,3,39
0,21,1,20,0,1,80
0,2,39,1,38,95,8
86,13,225,32,180,150,2
68,188,19,220,12,8,1
5,23,1,20,0,1,59
1,0,37,0,14,23,63
32,7,220,28,184,162,5
97,136,21,209,13,9,1
17,40,2,21,1,0,9
0,2,32,1,56,7,78
2,0,230,28,136,129,35
62,135,24,216,9,54,1
65,98,1,22,2,3,1
7,5,26,1,1,1,34
1,1,211,26,184,76,80
15,80,21,213,58,153,10
93,170,1,22,3,10,1
21,8,29,2,0,1,7
1,0,217,31,110,82,74
3,17,19,219,57,128,40
57,198,0,21,4,4,3
93,25,31,2,0,1,1
6,1,215,25,57,34,34
1,11,20,215,115,177,82
12,190,0,22,25,14,9
101,29,30,1,2,1,2
12,3,218,16,15,39,2
1,17,20,225,132,157,61
24,154,2,25,29,14,59
103,20,48,2,2,2,5
9,2,222,24,53,31,1
2,18,19,214,172,179,7
2,201,1,24,30,20,79
73,24,29,2,2,2,41
89,1,205,20,44,27,2
7,13,18,208,153,179,1
3,192,0,24,16,22,31
23,24,34,1,1,0,79
91,1,218,23,35,26,7
20,13,20,214,193,169,0
1,196,1,25,9,17,1
5,22,27,2,1,3,58
90,1,220,18,1,26,61
72,18,20,216,122,166,5
4,183,1,24,58,17,1
0,29,25,2,2,1,7
7,3,209,19,2,25,74
59,28,21,222,78,166,38
75,177,1,26,156,16,1
4,30,24,0,8,1,2
2,1,223,17,1,25,30
57,7,25,211,33,170,81
126,190,2,26,164,16,9
6,51,17,2,20,2,1
0,4,220,14,1,20,0
4,0,21,218,6,171,56
79,159,1,27,133,17,59
46,64,27,2,34,1,5
2,4,207,16,1,25,0
1,1,18,223,1,166,4
61,51,2,26,143,18,71
92,186,26,2,83,1,40
13,13,208,15,3,21,3
2,1,22,216,0,159,1
11,66,2,26,79,15,31
88,187,22,2,181,2,81
18,12,209,13,9,24,11
2,6,24,215,2,177,1
0,23,2,26,16,18,6
86,178,19,2,181,0,72
62,8,213,10,20,25,43
5,2,23,217,1,171,3
0,14,0,29,30,19,0
16,179,18,3,153,0,27
103,34,217,9,17,18,82
9,1,23,183,1,169,10
1,11,0,62,20,18,1
2,198,18,3,174,2,7
79,29,210,2,26,18,76
61,1,25,128,1,170,42
5,11,3,126,27,21,3
0,169,11,4,188,0,0
14,19,208,1,16,16,27
86,1,27,132,1,171,84
28,7,0,127,16,18,10
3,151,9,3,177,0,0
2,85,187,0,24,20,4
56,5,57,122,2,175,74
88,1,3,129,18,18,41
7,123,1,3,172,1,2
1,105,143,1,21,14,1
9,2,116,126,1,180,30
81,2,4,130,15,27,82
43,128,0,3,163,3,10
3,134,136,0,22,3,0
0,2,115,124,0,131,5
40,2,3,131,27,40,72
86,142,2,3,165,2,43
11,142,136,2,20,0,2
0,4,114,121,1,120,1
13,2,3,139,26,99,26
88,125,1,2,142,6,79
19,115,137,0,20,1,10
3,3,115,118,1,47,2
1,1,4,137,16,147,6
61,120,0,3,179,8,74
63,117,144,0,21,1,48
5,3,109,124,1,18,2
0,2,3,141,13,145,0
16,98,2,3,172,10,27
98,169,122,2,23,0,81
25,7,127,110,1,11,9
2,1,2,131,11,165,3
1,57,1,3,175,22,1
62,197,122,1,22,3,53
68,15,116,119,0,18,67
4,1,2,134,8,180,6
1,67,2,4,166,21,0
5,200,134,0,46,1,3
81,11,125,116,3,9,71
39,0,4,143,0,172,44
2,74,1,4,119,54,3
0,219,128,0,82,2,1
41,18,121,111,5,0,26
95,0,3,140,2,113,77
13,55,1,4,52,117,10
2,180,135,1,165,3,2
6,14,132,105,11,2,3
89,2,4,147,1,90,72
47,47,1,3,38,140,43
2,179,122,1,169,5,3
2,17,135,110,8,1,2
28,0,3,140,3,30,26
87,43,0,4,15,164,79
10,189,127,2,175,10,9
2,15,127,106,24,1,1
3,2,6,151,2,42,0
78,41,1,5,13,166,50
47,183,129,2,157,11,62
4,16,125,111,23,0,5
1,1,2,142,3,42,0
33,54,2,3,1,173,6
94,192,112,2,166,11,78
13,14,139,104,42,0,46
0,0,3,147,3,48,2
7,34,1,5,0,170,1
80,201,104,1,113,13,24
46,15,141,104,105,1,83
2,1,6,146,2,45,11
1,42,1,3,2,176,0
29,174,110,0,97,12,4
91,17,135,109,142,1,73
10,2,4,155,5,45,46
1,44,2,5,0,165,3
5,196,109,2,60,11,1
80,16,139,89,176,2,24
52,2,4,191,11,46,80
4,36,1,9,0,163,11
1,194,116,2,36,12,0
31,16,128,36,170,2,3
93,0,4,221,12,40,69
12,44,0,18,2,167,45
0,190,113,1,41,12,3
5,16,134,32,177,1,1
78,0,3,224,16,37,24
52,47,1,22,2,166,80
2,196,109,2,52,14,10
2,16,141,32,176,2,0
29,1,5,221,17,33,3
93,37,1,21,2,168,77
12,200,109,2,46,12,47
2,17,138,30,150,2,3
5,1,4,217,12,33,0
82,49,1,18,2,162,24
41,197,105,1,25,15,80
3,16,146,32,179,0,10
1,2,4,216,12,33,1
30,44,1,23,1,171,5
95,196,103,2,47,16,71
11,18,145,30,180,1,46
0,0,5,216,11,34,2
1,43,0,22,1,167,1
78,211,105,1,50,14,26
52,16,141,25,180,1,79
5,0,4,214,15,31,11
1,36,2,22,2,174,1
22,224,101,1,34,15,4
96,16,142,29,163,1,65
13,1,4,209,12,27,48
1,35,2,22,1,165,3
5,191,118,2,49,12,0
81,16,147,30,137,0,24
50,1,5,215,12,33,76
3,38,1,23,2,162,11
0,201,100,2,31,15,1
31,16,151,18,169,1,1
90,0,4,214,11,39,67
10,35,2,23,1,168,48
1,200,99,1,40,12,3
3,18,192,26,168,1,2
84,1,9,222,13,24,24
58,38,1,24,2,163,81
2,201,32,1,30,17,11
2,17,209,23,173,2,2
37,0,20,215,14,30,4
98,41,1,25,1,157,69
14,200,31,1,35,15,49
1,16,215,21,176,1,3
2,2,20,214,14,17,1
78,40,1,26,1,161,22
51,193,29,2,36,14,77
1,16,210,17,174,0,12
1,2,21,211,17,22,1
28,42,1,24,1,165,2
102,200,34,2,29,16,68
6,19,223,16,177,0,54
1,2,22,219,15,22,3
5,34,0,26,2,168,1
84,199,36,2,29,19,18
64,18,216,19,184,1,82
4,1,21,211,15,24,13
1,33,1,27,1,161,0
20,197,23,1,31,16,2
87,18,205,19,186,2,67
13,0,22,218,16,22,48
1,30,2,25,2,174,2
3,196,27,2,35,18,1
81,19,213,13,164,2,20
65,1,21,218,14,19,82
4,25,1,27,1,157,13
0,194,23,1,31,17,2
26,22,214,14,162,0,3
93,0,24,215,17,20,69
13,25,2,26,2,168,50
1,204,18,2,30,16,3
5,21,215,11,169,0,1
86,1,23,222,17,12,17
56,31,1,27,2,162,77
3,194,19,0,26,21,15
1,18,215,10,167,2,1
26,0,23,214,15,15,2
87,30,2,28,0,176,66
12,201,16,2,19,20,50
2,17,212,9,193,2,4
2,1,26,177,18,15,2
77,32,3,60,1,165,19
60,196,19,2,36,19,81
5,19,217,2,160,0,13
0,1,26,133,14,15,0
20,26,2,127,2,165,2
98,194,18,4,20,18,67
11,20,208,1,186,2,53
1,1,27,133,17,15,4
7,27,2,128,1,163,1
82,194,11,3,18,17,16
50,21,206,0,185,2,77
2,2,29,128,21,14,13
0,29,0,124,2,170,1
23,192,18,3,29,20,2
84,17,214,1,177,1,66
13,1,26,125,17,16,46
2,31,2,129,0,168,1
2,200,14,3,28,21,2
73,20,217,1,174,2,16
60,3,26,122,16,12,79
4,25,1,130,1,167,14
2,203,13,3,22,20,1
20,19,209,0,179,0,0
109,2,24,120,19,14,63
8,29,0,132,1,154,52
2,185,9,4,19,19,2
3,21,186,1,169,0,0
78,2,67,123,13,12,16
58,25,4,136,2,158,79
3,195,1,3,18,18,12
2,20,137,2,164,2,2
28,1,123,119,16,13,3
99,25,4,135,0,163,67
16,195,1,4,19,20,53
0,20,129,2,192,3,3
4,0,125,120,17,10,1
78,22,3,129,1,167,14
57,198,1,4,16,24,78
3,21,135,2,183,2,13
1,2,122,124,21,12,1
19,21,3,140,1,165,2
89,192,1,4,17,23,67
14,23,129,1,175,2,53
1,1,122,113,18,6,4
2,24,3,140,1,139,0
83,201,1,4,18,45,17
63,21,128,0,172,3,84
5,1,126,118,19,1,14
0,18,4,136,2,99,0
20,203,1,5,17,132,2
96,23,119,0,182,5,63
16,2,143,112,20,0,51
2,20,4,140,0,52,2
2,196,1,2,11,161,2
76,22,122,0,180,10,14
63,1,136,125,18,1,82
4,18,3,144,1,59,13
1,198,1,4,14,165,0
18,23,130,2,208,10,0
90,1,122,111,20,1,63
14,21,4,142,1,48,56
1,201,0,5,10,167,4
0,20,124,2,189,11,1
80,1,129,113,21,1,14
63,17,3,143,1,44,78
5,197,1,3,16,162,13
1,22,129,2,182,13,2
20,1,126,106,24,1,1
96,19,4,144,2,46,67
15,198,2,4,13,166,56
0,22,123,2,179,10,5
2,2,138,107,20,1,0
74,20,2,148,2,45,14
60,197,0,6,8,173,78
4,24,131,1,160,14,14
2,1,143,101,51,0,2
24,14,5,150,4,42,2
81,195,2,4,0,160,64
17,22,117,1,133,13,50
1,2,137,103,95,1,4
0,16,4,160,5,41,0
79,198,1,5,1,161,14
59,24,117,2,58,13,82
5,2,143,102,181,1,14
1,16,4,151,12,38,1
10,195,1,5,0,167,2
91,24,114,1,49,14,66
16,2,140,96,184,1,51
2,16,4,192,10,33,3
2,193,0,11,1,159,1
78,23,108,1,54,13,11
46,2,142,95,180,1,80
4,16,4,193,12,40,14
1,199,0,10,1,176,0
15,22,110,2,38,12,1
93,1,135,94,167,0,63
16,14,4,196,11,35,52
0,199,2,9,2,170,4
1,24,101,1,55,15,0
76,2,138,32,177,2,12
59,16,4,216,11,33,79
4,199,2,22,0,165,14
0,23,105,1,46,14,2
17,1,151,32,175,2,1
96,14,4,219,10,38,61
17,197,1,22,1,167,53
1,24,102,0,53,15,3
3,1,142,27,189,2,1
79,13,5,217,12,33,11
55,195,1,20,0,165,80
5,23,102,0,44,15,16
0,2,149,26,180,2,2
18,12,4,226,13,34,0
95,193,0,21,1,157,58
16,24,107,1,52,12,54
2,1,141,25,172,1,4
0,13,4,212,12,26,1
75,195,1,25,1,163,11
64,25,121,1,53,14,80
5,1,143,24,175,0,15
1,13,4,216,13,27,1
16,195,1,22,1,158,0
89,25,94,1,41,14,60
15,3,188,27,171,1,53
1,12,8,217,12,31,2
1,196,1,24,1,166,2
71,26,37,2,41,15,11
61,2,218,21,184,0,76
2,10,20,216,13,31,16
1,194,1,22,2,159,1
23,26,31,2,44,13,1
94,1,212,23,183,1,55
14,10,22,216,17,33,59
1,193,3,23,2,169,4
0,26,31,1,33,16,0
76,2,221,17,174,0,10
69,10,21,217,17,24,77
5,198,2,24,1,169,16
1,26,27,1,44,16,0
25,2,228,20,179,1,2
91,11,21,212,14,27,57
16,201,2,23,2,160,53
0,27,28,1,41,18,3
1,3,218,14,197,2,1
72,9,21,214,13,23,10
70,171,0,25,1,170,77
5,54,25,1,57,18,17
2,3,214,16,194,1,2
14,1,24,220,15,17,1
98,123,2,26,1,168,56
13,112,28,3,49,15,55
1,3,214,17,182,2,4
1,1,22,214,14,24,2
73,125,1,25,1,166,10
66,115,21,1,32,17,76
4,2,213,16,174,2,14
1,0,26,217,13,19,2
15,118,1,27,2,174,0
95,114,18,1,35,17,55
16,3,209,16,180,0,52
0,0,26,216,16,24,3
2,122,1,26,1,163,1
65,113,19,1,34,16,8
59,3,231,13,201,1,72
4,1,27,213,13,19,33
0,120,3,26,0,164,3
14,114,18,1,34,16,0
95,3,211,3,170,2,32
17,2,25,154,15,17,76
2,122,1,50,2,165,8
1,113,15,3,48,17,1
59,3,221,0,172,1,1
65,0,29,124,14,14,56
6,120,2,230,1,172,57
1,120,16,6,26,20,5
11,3,209,1,186,1,1
92,3,22,118,15,18,9
19,123,1,166,1,175,71
2,114,18,5,17,18,34
1,4,217,10,149,1,2
79,0,25,173,15,17,0
61,116,1,51,0,169,32
5,119,13,3,25,18,69
1,3,223,1,174,1,10
12,1,29,142,16,12,2
97,110,2,178,0,161,10
21,129,14,4,25,21,81
1,4,212,1,189,1,18
2,2,27,78,16,13,2
74,114,1,115,1,163,1
71,123,14,4,23,20,56
7,3,219,2,185,1,58
2,0,26,1,18,11,4
11,116,2,203,0,171,0
92,120,10,73,28,20,8
18,3,211,4,180,0,70
1,0,28,1,18,11,36
0,115,1,145,2,166,1
66,119,9,150,23,21,1
69,3,192,8,200,2,31
6,1,59,2,16,11,73
1,110,2,87,1,175,8
13,119,1,165,22,21,1
102,3,151,4,176,2,2
11,1,141,0,19,13,53
1,110,3,177,1,166,54
10,119,0,140,19,21,4
99,3,128,4,190,2,0
22,1,125,1,17,6,6
3,112,2,99,2,144,68
1,118,1,213,24,45,38
59,4,134,15,170,3,2
71,1,127,2,18,0,2
4,114,4,291,2,107,26
1,123,2,202,17,96,73
10,3,135,8,186,5,9
97,0,130,2,18,2,1
20,110,4,77,2,49,1
2,125,0,172,24,159,55
1,4,120,7,189,9,58
64,1,126,2,16,2,4
71,110,4,53,0,11,0
4,122,2,287,31,169,8
2,3,126,20,176,20,71
5,2,127,2,20,0,37
90,111,4,68,1,6,2
42,121,2,169,18,147,1
2,2,128,16,183,53,29
0,2,138,4,21,3,75
47,111,3,227,3,2,9
98,118,2,136,14,99,1
10,2,120,3,191,139,1
1,1,138,2,17,5,52
12,112,3,63,1,0,65
100,128,0,219,9,47,5
10,5,132,13,174,163,1
1,1,130,3,39,10,5
14,104,3,121,2,1,69
108,125,2,86,0,46,42
10,3,133,47,135,166,3
0,2,141,3,83,13,0
9,108,5,140,5,0,24
87,130,1,189,1,43,73
45,3,112,24,80,164,10
4,1,145,2,185,13,1
0,105,4,11,8,1,4
37,127,1,266,0,45,68
88,4,118,15,21,164,38
12,1,133,2,177,13,3
1,104,3,104,20,2,0
8,130,0,118,0,38,26
89,5,116,3,13,170,79
42,1,141,114,185,14,10
3,97,3,76,20,0,2
1,171,0,117,1,34,6
42,7,115,3,17,169,70
93,1,149,8,180,13,39
12,44,4,194,23,1,3
1,197,2,41,1,34,1
6,16,106,28,16,167,26
89,0,140,3,178,13,76
47,39,6,140,23,2,8
3,193,2,135,1,40,2
1,17,107,2,14,165,1
37,1,144,1,191,14,48
89,42,5,230,19,2,52
11,199,1,161,1,38,4
2,15,100,3,12,171,1
9,1,148,126,192,13,3
89,43,4,208,23,2,61
47,197,2,25,1,37,30
2,16,106,1,12,169,2
0,0,156,29,199,12,1
37,43,5,275,21,2,25
89,196,0,16,2,36,66
11,17,100,1,12,166,8
1,2,151,2,168,14,1
10,42,4,140,26,1,0
96,196,1,103,1,33,44
23,17,112,3,11,168,51
1,2,145,37,174,14,5
0,46,4,93,27,1,2
68,198,0,90,0,32,7
79,18,94,5,8,171,57
5,1,194,2,161,15,29
1,37,10,151,48,0,1
8,195,1,251,2,32,0
89,17,95,7,2,167,22
53,1,200,66,115,15,62
3,45,10,286,99,1,7
0,195,1,15,6,28,0
32,17,97,3,1,172,1
87,0,192,0,59,15,42
10,40,9,167,169,0,49
1,197,2,102,10,32,3
9,18,39,1,1,171,0
86,2,212,19,69,14,4
45,36,18,312,162,2,59
3,200,2,30,10,30,35
0,17,27,1,2,180,1
29,1,221,37,54,17,0
89,37,22,212,178,1,23
12,195,2,49,11,28,66
2,18,27,1,0,164,8
6,0,228,1,69,15,1
84,34,25,168,172,0,0
46,201,1,76,12,24,42
4,17,24,4,1,167,53
1,2,213,0,58,16,5
32,35,24,107,172,0,1
94,199,1,139,13,24,5
12,17,25,7,0,173,60
0,2,223,1,58,18,37
6,34,23,44,170,1,3
89,199,1,263,13,19,1
57,19,22,18,0,162,18
3,1,218,20,47,16,65
0,31,25,183,166,1,9
31,196,3,185,12,23,2
94,17,18,5,1,164,0
11,1,219,1,53,16,45
0,35,25,200,177,1,54
11,197,0,83,13,23,4
95,19,19,5,2,169,0
22,1,219,2,53,17,2
1,33,27,105,175,2,57
1,199,0,198,13,18,37
68,17,18,7,1,163,2
76,0,218,1,43,20,1
7,31,27,96,159,1,21
2,207,1,223,13,20,67
6,19,18,13,0,164,8
86,2,212,1,29,16,1
53,30,23,114,172,1,2
2,197,3,288,13,19,40
0,19,17,9,1,168,60
30,0,216,2,52,20,5
95,33,30,136,178,1,1
13,196,2,155,12,15,4
1,19,31,8,1,165,55
6,1,221,1,65,18,35
82,32,24,86,163,2,2
51,190,0,179,13,20,1
3,18,24,15,0,173,18
1,1,207,2,38,17,63
28,28,34,75,179,2,8
93,193,1,123,14,20,0
13,19,14,13,2,171,0
1,2,248,2,53,21,38
5,28,37,61,177,2,53
84,192,3,138,13,11,5
57,19,16,19,0,165,0
4,0,244,2,40,21,5
1,29,30,62,177,1,57
26,198,2,203,15,12,35
90,20,52,33,1,165,4
12,2,263,4,41,19,1
1,28,57,62,186,1,20
5,198,4,178,21,13,64
85,17,14,12,1,163,9
53,1,226,1,33,21,2
4,37,61,86,194,1,2
1,205,4,228,13,13,45
33,20,4,12,0,168,54
104,2,209,1,5,20,5
6,26,76,75,175,0,2
1,199,4,196,33,9,3
5,19,0,21,2,147,59
83,2,149,0,1,47,34
50,30,127,90,154,3,2
4,201,16,264,64,0,1
1,21,5,17,2,105,22
29,1,167,1,1,87,67
93,25,106,99,90,6,9
13,195,3,227,163,1,2
1,21,25,15,6,61,1
3,1,237,1,1,168,37
85,26,14,52,38,11,53
58,195,1,243,186,1,4
5,21,27,10,16,52,1
1,1,92,3,1,164,2
28,25,118,31,40,10,57
90,198,16,217,190,1,38
13,19,75,19,13,56,3
1,0,266,2,0,163,1
7,23,85,87,30,12,18
84,198,3,198,190,1,63
54,20,45,16,18,54,9
2,2,534,1,0,176,2
1,24,21,26,32,12,1
27,197,20,195,172,0,38
98,21,192,14,15,50,53
13,1,93,2,0,154,6
1,22,5,50,36,9,1
4,202,35,268,176,2,2
78,22,13,22,13,12,55
55,1,373,1,1,176,39
3,24,9,24,40,21,3
2,199,11,254,199,1,0
23,21,230,11,23,5,16
96,2,59,1,1,138,67
15,19,8,83,28,50,10
1,196,3,176,172,3,1
2,22,9,20,13,1,1
78,2,192,2,1,97,57
56,22,47,74,29,140,35
3,198,3,207,186,7,2
0,22,1,9,20,1,1
25,2,172,3,2,46,15
101,20,101,0,22,167,67
7,196,3,146,176,13,11
1,21,9,51,14,2,1
3,1,71,3,1,46,2
88,18,119,2,13,167,57
53,197,4,84,165,12,36
3,23,11,203,11,1,2
0,1,457,8,2,40,1
28,23,113,2,32,164,17
94,201,3,31,175,13,67
15,21,0,299,17,2,10
0,2,294,15,1,40,0
3,18,98,0,16,159,1
79,194,5,82,196,11,54
58,21,66,244,17,1,37
4,1,196,16,2,44,2
2,20,88,1,21,163,0
25,200,4,17,187,12,13
94,23,1,266,19,0,67
14,1,66,20,0,44,10
1,19,263,1,20,171,0
3,199,109,69,202,13,3
84,22,2,198,17,2,56
60,2,264,17,0,36,43
4,19,178,0,17,165,2
2,198,11,27,178,13,0
25,22,68,202,20,1,14
91,1,374,21,1,40,64
13,19,17,0,16,164,10
1,200,2,65,188,13,1
2,21,116,242,17,0,1
79,2,58,41,2,37,58
57,17,37,3,19,174,40
3,197,2,10,196,14,2
1,22,17,255,18,2,1
20,3,275,21,2,34,14
96,17,20,2,25,170,64
13,195,0,25,175,15,10
0,23,46,265,16,0,0
1,0,322,17,1,32,2
78,17,22,0,17,162,55
58,198,0,41,161,15,39
3,24,68,235,24,2,2
0,1,169,16,2,36,0
25,14,31,0,15,166,15
97,193,1,29,188,12,70
16,20,113,232,21,1,13
2,1,170,32,0,33,2
3,20,23,1,8,173,1
79,195,0,62,149,14,50
62,23,150,208,39,1,38
5,0,166,23,3,29,3
1,16,4,4,1,163,0
23,202,0,8,122,15,14
91,23,91,248,87,1,69
15,1,216,20,4,29,11
1,14,12,0,1,161,1
2,204,1,1,70,13,1
76,22,78,224,174,0,52
59,2,233,67,11,31,37
3,23,14,2,1,172,3
2,201,1,0,70,16,1
27,23,44,159,149,2,13
102,1,215,173,11,27,68
8,14,17,7,0,168,10
1,228,2,1,53,13,0
3,19,59,100,165,0,2
77,0,200,93,10,22,53
62,12,26,18,1,164,39
3,189,2,2,75,17,2
0,23,193,83,156,2,1
21,1,67,254,11,32,14
107,11,7,11,1,159,64
8,195,1,3,34,12,10
1,23,50,97,185,1,1
2,2,191,171,9,35,0
77,15,50,13,1,132,53
55,193,3,0,22,16,45
3,24,0,100,174,1,3
1,1,133,156,32,25,1
19,13,101,4,3,155,15
98,195,2,1,9,24,65
14,30,10,93,211,1,9
1,2,216,183,49,30,2
1,7,25,15,3,203,1
76,175,1,1,1,21,34
62,63,7,67,151,1,59
3,4,236,209,96,62,6
1,0,24,11,4,148,2
24,138,1,1,0,24,1
101,95,0,84,62,2,52
6,6,166,226,218,25,45
1,1,126,11,8,163,3
2,53,4,2,1,17,1
77,209,14,122,35,1,11
62,15,127,161,140,26,64
4,2,52,5,28,194,11
1,43,4,2,1,16,2
18,192,0,62,18,1,1
94,15,140,151,130,3,55
16,1,89,9,27,96,44
1,138,6,1,2,96,3
1,125,0,12,38,5,0
75,3,66,219,133,1,14
53,1,230,22,21,69,67
4,56,18,1,1,188,12
1,188,1,45,27,11,1
18,13,106,211,211,1,1
97,0,64,14,25,92,50
17,41,8,2,1,177,46
2,211,0,17,10,13,1
0,14,24,219,176,9,1
70,1,263,32,29,2,10
58,82,7,2,1,224,66
4,183,1,6,14,53,12
1,10,1,196,191,2,2
19,0,138,109,34,2,0
97,68,158,2,1,107,55
18,237,5,1,24,37,43
1,13,1,210,189,3,3
2,0,112,93,34,9,0
79,49,149,4,2,47,11
60,213,4,2,4,108,64
4,17,0,165,203,4,11
1,2,149,123,59,1,2
14,61,166,3,2,131,1
94,201,7,1,0,92,51
16,14,1,161,122,10,44
2,2,148,112,133,2,2
2,97,96,2,6,161,1
78,216,6,1,2,71,9
63,11,2,149,120,13,61
6,10,78,142,115,1,25
2,102,192,4,3,4,3
13,158,32,1,1,155,1
94,5,0,119,106,35,32
17,0,49,110,152,0,65
2,62,223,4,2,20,6
1,204,18,1,2,193,0
75,19,2,154,110,28,2
69,0,75,88,124,1,50
5,100,235,4,5,35,46
1,154,14,1,1,313,4
16,2,0,50,87,54,1
97,259,103,252,188,3,11
17,160,154,20,10,29,67
1,38,5,1,1,225,12
2,3,2,37,120,22,0
76,0,83,197,121,2,0
57,199,211,14,4,2,50
3,52,15,0,1,111,46
0,3,1,70,95,83,3
17,1,52,208,161,5,1
94,48,206,14,7,1,11
16,199,15,3,2,88,66
1,16,1,71,27,160,13
2,3,44,211,179,27,2
76,23,226,11,14,2,1
65,187,13,1,0,203,53
5,5,1,68,40,20,45
1,0,18,215,172,2,4
15,128,207,19,14,0,1
94,214,20,1,1,54,8
15,6,1,61,62,159,62
2,16,24,189,184,15,27
0,66,235,23,14,0,1
74,181,16,2,1,187,0
61,10,1,50,38,95,28
5,2,17,235,195,8,66
1,11,243,11,14,1,6
19,173,17,0,1,17,1
93,11,1,69,47,262,0
13,0,57,195,185,18,52
2,102,212,13,15,2,47
1,219,20,1,0,18,4
57,7,0,69,32,191,2
70,2,77,208,183,22,7
5,48,203,14,15,2,64
0,81,25,1,0,110,30
15,33,2,104,81,74,1
112,4,70,205,183,19,1
13,117,213,9,15,1,26
1,18,18,1,1,25,63
15,122,1,65,39,128,8
95,14,28,243,180,16,2
18,132,203,18,13,0,1
2,32,33,0,1,62,51
2,3,3,88,36,120,46
65,14,18,194,192,34,4
71,14,223,10,16,3,1
5,321,31,1,1,4,7
1,10,2,53,35,111,64
12,31,31,162,185,68,27
91,88,243,16,17,2,2
16,390,24,2,2,2,0
3,8,3,48,32,56,30
1,2,46,258,178,158,61
57,92,201,14,15,13,6
67,125,27,2,1,0,2
7,160,1,56,40,51,2
1,40,51,136,185,137,49
1,275,218,31,18,10,48
99,15,28,2,1,1,3
98,1,3,74,25,42,1
5,40,23,179,195,153,7
2,291,238,27,14,9,60
32,30,35,2,1,2,29
87,0,2,75,40,83,2
9,152,30,272,177,158,1
1,58,211,11,15,43,27
1,116,31,1,1,3,62
69,4,1,80,35,7,6
64,47,8,210,194,179,1
4,83,216,21,18,40,2
0,157,60,2,1,3,48
3,34,4,68,26,30,45
68,290,2,188,191,161,5
49,28,155,21,17,36,1
1,24,142,1,1,1,8
4,37,3,53,18,6,61
69,181,2,197,184,138,29
59,28,180,11,21,92,1
4,3,81,0,3,4,1
2,1,5,53,17,1,25
0,105,1,248,192,17,67
81,77,50,14,20,165,8
79,5,221,2,2,6,1
7,1,13,30,16,0,0
2,15,1,220,184,66,47
8,221,89,15,19,161,48
170,43,182,1,2,14,3
28,3,12,46,23,15,0
1,55,1,279,188,7,7
1,302,79,22,19,158,61
61,22,234,1,0,14,31
64,10,15,35,25,1,2
6,187,1,183,200,14,1
1,63,82,20,21,170,24
2,71,175,3,2,33,66
105,9,13,49,31,1,7
28,141,1,282,196,17,1
3,42,88,16,17,182,1
1,3,229,1,2,22,42
87,3,18,37,21,0,46
67,145,1,160,185,31,3
4,139,89,31,18,207,0
2,4,181,2,1,25,7
32,0,12,37,26,4,59
122,95,1,166,190,18,33
12,263,97,22,20,107,2
1,35,202,1,2,21,1
4,1,10,88,18,1,24
123,31,1,254,188,26,60
18,86,67,13,20,125,6
1,155,222,0,2,15,1
0,5,14,55,27,2,1
81,195,2,170,220,30,45
32,154,61,20,17,174,51
4,8,234,2,2,15,5
2,1,15,19,19,2,1
5,16,1,229,190,23,2
118,192,80,23,19,167,60
37,11,216,2,3,21,32
2,1,16,87,15,2,1
1,22,0,207,186,88,0
47,186,75,16,25,157,26
75,8,221,0,2,19,66
4,1,15,44,13,1,7
0,9,2,230,193,19,1
8,197,70,17,24,194,0
89,63,189,2,1,21,42
26,5,15,18,18,1,46
2,26,1,256,205,30,4
2,44,66,21,21,171,1
61,286,196,2,1,33,4
111,6,20,31,26,2,61
5,2,1,212,189,17,33
2,60,74,19,21,203,1
0,274,219,1,0,17,1
55,17,16,140,35,3,24
40,43,1,216,194,19,66
3,127,64,11,24,166,7
1,44,222,1,1,23,1
80,2,18,103,9,1,0
48,19,2,148,179,10,44
20,264,58,6,45,148,49
2,24,230,1,2,29,3
1,2,16,95,1,3,0
120,10,1,199,121,1,5
65,165,42,11,99,126,63
3,126,214,1,4,36,37
1,10,21,93,1,3,2
45,105,1,183,71,1,1
69,96,44,10,175,139,22
5,5,240,2,9,98,65
1,122,18,87,1,7,9
2,109,0,183,11,2,1
48,80,32,10,185,76,0
15,5,260,1,20,158,41
2,3,24,85,1,10,55
1,98,3,191,14,3,5
33,184,44,8,199,34,0
75,8,226,1,23,184,3
30,0,19,29,2,7,57
3,106,2,211,7,1,34
70,118,14,21,161,24,3
126,3,214,2,55,185,1
10,1,20,27,3,20,26
1,67,2,206,1,1,65
1,57,25,19,111,5,7
6,130,248,1,107,162,2
123,3,16,27,3,46,0
25,265,1,204,1,2,44
1,135,42,21,114,1,51
76,4,245,1,106,130,4
85,0,14,17,2,86,1
4,249,2,206,2,5,4
0,176,48,20,117,0,59
19,8,212,2,112,19,35
190,0,27,23,2,180,1
22,10,2,190,2,13,1
1,195,41,21,106,1,22
17,16,204,1,115,49,58
77,1,20,19,2,141,7
62,33,0,199,0,10,1
5,211,33,20,124,1,1
3,17,230,2,105,63,42
89,1,21,26,4,185,51
80,52,1,206,1,11,3
5,247,43,22,106,1,0
1,28,257,1,110,37,2
57,1,21,24,3,188,59
95,1,1,208,2,15,36
47,180,27,20,107,2,3
5,48,227,2,108,68,0
1,11,21,24,3,138,20
46,5,1,211,1,6,63
74,134,28,25,101,0,9
3,36,221,3,104,0,2
0,2,17,19,3,162,1
30,18,2,207,0,50,42
90,84,32,22,113,2,52
11,158,228,1,110,1,4
3,4,20,26,2,128,1
4,0,2,206,1,51,2
66,135,51,22,109,4,57
72,121,201,1,98,0,32
4,3,23,33,6,51,3
1,36,1,193,1,182,1
5,216,22,21,58,13,19
133,28,227,2,194,1,63
44,1,22,15,12,53,10
2,0,2,211,1,169,1
1,138,27,26,43,18,2
85,104,209,1,190,1,54
82,3,26,11,14,58,44
8,0,1,223,1,177,3
1,204,29,25,54,11,1
3,128,216,1,190,2,18
79,2,31,30,15,35,61
17,18,2,191,2,192,10
5,222,18,24,47,16,2
2,44,198,2,177,2,3
22,3,30,4,15,22,59
80,7,2,163,2,172,35
11,120,10,45,36,15,3
0,75,208,3,192,0,1
9,4,24,2,15,46,19
54,1,1,126,0,163,69
74,52,9,91,79,11,10
5,210,187,6,173,0,1
1,23,62,2,15,31,2
57,5,5,71,1,150,57
76,58,1,202,43,15,39
10,283,171,11,178,2,2
0,11,94,1,16,28,2
18,0,4,73,0,155,13
135,107,0,180,40,11,72
10,141,88,12,183,1,13
0,23,208,1,15,26,1
24,3,12,80,2,185,3
124,111,0,211,51,19,56
17,78,89,14,179,2,38
1,5,200,2,15,52,2
8,0,11,72,2,148,1
65,134,1,204,40,17,14
85,102,83,12,187,1,64
5,14,227,0,15,58,8
2,1,13,69,1,192,1
53,63,1,196,46,10,1
85,260,75,13,180,1,40
24,9,212,1,15,15,54
3,1,13,61,0,183,5
1,95,0,202,38,24,1
85,53,82,14,195,1,3
68,60,210,1,15,20,57
4,2,15,66,1,178,38
1,35,0,198,45,17,2
31,362,80,11,191,0,1
83,21,238,1,16,44,24
10,3,13,74,1,175,71
1,36,1,215,38,9,10
4,166,73,12,187,2,1
88,9,209,1,16,11,3
65,1,14,64,3,160,60
5,28,1,207,38,27,40
0,175,76,13,192,2,2
24,33,201,1,16,1,1
102,3,13,58,1,126,17
6,1,1,206,35,93,62
2,164,18,15,181,6,9
1,73,196,1,19,1,2
75,4,15,65,1,73,1
72,1,1,196,39,134,35
5,25,38,14,195,8,55
1,244,223,2,14,2,5
34,33,16,53,2,32,0
119,2,2,211,34,174,1
6,75,60,14,190,14,58
2,144,218,1,17,1,39
9,16,20,55,1,34,2
111,1,2,202,34,164,2
35,261,50,15,180,17,17
3,143,217,2,17,0,64
0,5,15,46,1,36,11
47,1,1,206,26,200,1
116,62,41,16,184,15,3
5,212,212,1,20,2,57
0,12,20,71,0,27,38
23,0,2,199,28,168,2
90,84,66,15,196,13,1
20,194,215,1,16,0,20
1,13,19,54,1,18,65
2,0,1,206,23,168,10
94,98,72,15,193,21,1
66,217,207,0,20,2,1
4,13,22,57,1,16,53
10,1,2,204,35,167,37
48,31,23,15,192,17,2
97,246,239,1,18,2,0
6,10,17,56,1,33,14
2,0,2,204,33,171,63
16,62,53,16,189,25,11
101,241,212,0,18,0,1
14,7,17,49,1,13,1
1,0,1,202,23,184,53
7,141,50,14,182,21,39
80,149,221,1,20,1,2
40,13,20,50,2,27,0
3,1,2,197,28,165,16
1,82,49,16,188,16,65
32,170,225,0,18,1,11
79,10,20,41,2,34,0
21,1,0,200,32,156,0
1,57,54,15,187,17,53
1,143,236,0,22,2,41
82,13,17,45,2,10,3
57,11,0,205,28,178,1
4,84,67,17,193,19,14
1,213,213,1,20,0,63
23,14,20,51,0,9,11
102,0,2,212,29,151,1
9,159,37,18,186,40,1
3,117,212,2,22,1,56
3,5,16,44,1,0,42
87,3,1,205,19,110,3
71,131,47,15,192,85,0
6,98,232,1,22,5,10
2,5,20,40,2,2,64
26,1,2,203,18,73,12
141,68,2,17,192,176,2
7,165,190,1,16,11,0
2,19,41,44,1,1,55
5,1,3,214,19,61,42
79,52,2,15,193,149,3
37,384,174,0,20,11,1
2,22,106,40,1,2,13
1,2,3,205,40,41,69
47,66,0,17,177,146,11
103,198,163,0,18,11,0
9,7,96,43,2,0,1
1,0,4,210,26,62,56
20,96,1,18,186,155,37
95,283,89,1,23,13,3
18,20,226,38,0,1,0
0,2,11,213,26,39,11
0,4,2,16,189,170,63
49,211,104,1,22,14,10
75,82,160,38,0,2,0
6,4,4,208,24,60,0
1,1,1,20,188,182,55
6,72,101,1,21,9,42
106,338,162,42,1,0,4
53,11,5,204,19,2,1
2,2,3,17,187,129,15
1,101,92,1,25,53,67
74,73,206,36,0,2,11
85,3,11,208,64,1,0
9,0,1,17,175,89,0
2,48,87,1,21,138,50
11,180,216,40,1,5,42
103,8,12,213,27,1,4
12,0,1,18,185,89,0
0,29,95,1,21,138,12
1,191,225,35,2,11,64
91,14,13,214,12,2,12
68,2,0,22,187,62,1
4,3,85,0,21,151,1
2,155,204,30,1,10,49
4,69,13,210,25,1,48
106,4,2,20,197,58,3
13,2,86,0,21,149,2
1,68,215,34,1,11,10
8,216,11,208,6,1,63
98,11,1,18,177,54,12
70,2,86,1,48,176,2
4,142,215,31,2,11,2
0,118,13,211,1,2,60
5,2,1,20,120,57,43
90,2,102,1,109,165,2
45,101,179,34,3,12,2
3,163,7,209,1,1,10
1,4,2,21,125,53,66
50,42,78,2,100,182,14
85,149,211,28,3,9,0
10,30,14,208,2,1,1
0,3,0,21,123,13,49
12,0,88,1,102,162,43
115,114,214,29,4,22,4
8,59,13,211,1,3,0
2,5,1,21,123,4,7
3,1,79,1,110,117,64
81,28,218,25,2,54,28
59,187,15,204,0,3,2
5,27,1,19,122,0,1
1,2,77,1,106,96,29
31,63,223,27,2,138,61
123,194,12,211,1,5,7
9,12,1,20,119,1,2
0,1,78,1,106,54,1
0,2,216,22,3,149,53
84,129,13,213,0,12,46
72,40,1,23,115,1,4
5,2,84,1,108,69,0
1,4,233,24,5,155,9
19,193,16,205,1,10,61
103,40,1,21,119,2,30
8,1,73,1,109,52,2
2,2,220,24,2,161,1
9,61,14,212,1,18,32
64,210,0,23,116,2,59
108,8,80,2,107,42,6
5,1,229,22,3,160,0
0,123,15,209,1,12,1
36,136,1,22,121,1,51
83,4,73,1,113,19,42
12,0,224,22,3,188,4
1,115,16,215,0,16,2
58,173,3,23,103,1,10
105,9,57,2,117,54,70
12,2,208,19,4,163,13
1,60,15,202,1,13,2
11,250,0,24,109,1,0
96,14,71,1,114,43,50
14,2,231,19,4,168,43
1,72,12,201,2,13,3
0,229,0,21,110,0,0
113,22,94,1,118,48,7
34,2,241,18,3,135,61
2,18,15,208,1,11,27
1,228,1,23,111,0,1
47,19,75,2,112,53,1
58,45,250,22,4,156,29
14,143,18,208,1,14,63
1,99,1,22,113,0,7
8,5,53,1,112,32,1
105,0,221,15,2,171,2
46,82,16,211,1,21,48
2,178,0,22,110,2,47
3,7,61,2,107,34,4
93,1,206,17,3,149,2
56,9,12,215,1,10,10
4,158,0,27,107,0,68
1,64,37,1,114,43,12
4,4,215,17,3,154,2
122,1,24,206,1,13,0
20,70,2,24,116,1,50
1,307,54,0,126,26,44
0,9,221,12,5,182,3
66,2,18,211,1,14,1
71,95,1,24,101,2,10
4,181,52,0,120,46,70
1,10,223,10,2,193,12
25,2,17,210,0,15,1
115,22,1,25,106,0,1
9,264,43,1,120,29,48
0,11,213,11,3,157,43
2,2,18,211,1,17,3
93,91,1,26,97,2,1
89,185,70,1,167,32,12
6,20,265,13,8,144,74
1,1,23,207,2,17,14
33,92,2,26,46,1,0
121,257,46,2,188,39,0
9,24,226,13,14,189,44
1,2,19,210,2,15,45
0,41,1,27,41,3,2
116,192,40,3,192,27,1
23,15,223,10,18,136,7
2,2,19,216,2,13,59
1,74,2,30,41,1,31
53,157,42,2,187,25,2
84,14,220,11,15,176,2
8,1,21,208,1,14,25
0,73,1,28,45,1,58
0,165,46,1,187,25,6
77,13,229,10,17,171,2
69,1,21,206,0,21,1
6,91,0,25,34,1,48
0,161,36,1,190,33,45
10,7,219,9,14,141,2
112,1,21,182,2,16,1
12,0,3,58,35,2,5
0,165,37,2,194,27,54
32,54,215,0,18,206,35
117,2,21,125,1,14,3
8,1,2,117,38,2,1
2,121,36,3,193,0,25
0,120,226,2,17,141,59
86,3,22,131,1,43,6
59,1,1,128,41,3,1
3,210,30,5,187,1,0
1,138,221,1,17,121,47
39,4,22,125,1,72,46
84,0,2,124,35,3,4
18,257,49,4,190,1,1
0,128,221,0,16,57,6
0,4,21,125,1,152,64
71,2,2,124,33,8,30
71,100,28,2,184,1,3
4,139,221,2,17,10,1
1,11,22,125,1,205,26
11,0,0,120,26,14,59
97,169,52,4,209,1,7
34,69,225,1,16,8,1
3,3,22,129,2,164,1
1,1,1,118,32,32,47
77,100,25,2,192,2,49
56,145,220,2,18,1,3
3,4,22,126,0,98,1
2,1,1,123,32,127,7
27,37,22,2,189,5,59
112,178,217,1,19,2,31
6,14,24,126,1,89,1
1,2,0,134,28,159,1
5,6,18,4,187,6,25
65,203,217,1,17,1,61
80,53,24,120,1,30,6
5,3,3,131,29,143,3
1,18,25,3,185,24,0
3,194,219,1,22,1,47
79,19,22,122,1,22,52
56,1,2,132,39,150,5
2,72,23,4,195,19,1
0,305,220,0,19,1,7
42,20,23,114,1,8,63
74,2,2,134,28,157,27
5,42,27,3,194,43,1
0,231,223,1,18,2,0
2,13,25,113,1,1,25
61,0,1,130,23,144,64
72,39,13,4,194,64,10
5,197,223,0,19,3,0
2,24,25,119,1,1,6
6,2,1,137,30,45,58
70,17,12,4,189,156,30
59,157,219,0,19,9,1
4,27,27,116,1,2,0
1,2,3,133,27,24,22
37,52,13,4,187,174,63
93,146,233,1,19,17,9
12,26,29,114,0,1,3
1,1,0,129,26,17,0
8,25,13,5,192,170,46
99,160,219,1,20,20,50
40,37,26,111,0,2,5
1,3,3,134,31,14,1
0,31,10,3,203,176,5
28,190,209,0,21,19,59
73,14,27,109,1,1,30
19,1,2,140,20,16,3
1,37,9,4,198,151,1
3,201,190,2,20,23,24
89,16,62,108,2,0,63
47,2,3,138,18,7,6
3,8,1,3,190,146,0
1,164,132,0,21,49,1
52,91,127,107,1,4,42
68,4,1,141,19,1,48
18,2,1,5,193,95,4
0,277,141,1,20,134,1
7,52,122,111,1,4,4
115,5,4,147,16,0,55
22,2,0,4,193,62,30
2,95,134,0,21,175,2
9,135,130,104,1,11,1
85,23,4,145,19,0,23
82,5,0,5,187,52,66
5,78,125,1,20,172,8
1,106,135,107,1,10,2
14,7,4,133,20,2,1
106,1,0,4,203,42,43
13,37,128,0,22,150,46
0,222,131,103,2,12,5
6,19,4,141,32,2,1
94,0,0,4,200,32,3
63,23,127,1,25,167,56
4,208,133,105,2,10,29
0,21,5,142,12,1,2
51,2,0,4,190,37,2
73,30,124,0,20,169,25
24,205,135,101,2,9,62
3,23,3,143,5,0,8
7,1,1,4,193,14,2
74,32,121,2,34,175,1
63,200,142,101,2,18,42
3,19,2,134,0,1,49
0,2,1,4,123,8,4
44,55,123,1,109,116,1
105,208,140,108,2,46,4
6,20,5,146,0,4,63
0,1,1,4,122,1,31
8,16,110,1,93,102,3
92,204,140,96,6,104,0
29,23,5,183,0,2,19
2,2,3,8,79,0,64
1,27,116,0,195,90,9
36,189,140,32,10,138,2
112,20,4,210,1,6,1
5,2,1,20,53,1,41
1,29,112,2,166,36,50
13,188,146,33,7,142,4
95,20,5,215,2,13,1
23,2,0,20,28,0,3
2,32,116,2,158,51,57
3,191,145,34,29,149,33
75,21,5,212,0,11,2
71,1,1,20,17,1,0
5,24,112,1,230,53,22
1,187,149,29,31,178,64
8,18,3,211,2,14,8
95,4,1,21,11,2,2
34,26,120,2,198,32,0
3,198,145,26,33,157,42
1,20,3,213,3,13,50
50,2,2,21,4,2,5
76,22,103,0,153,29,2
11,198,149,31,66,151,2
2,21,5,206,3,15,57
14,1,1,20,0,2,35
104,25,103,1,109,36,3
14,195,155,30,123,172,0
3,21,5,207,3,13,21
0,1,1,21,1,1,64
72,23,105,1,128,30,9
18,205,152,26,114,151,1
3,20,5,212,3,12,1
1,1,1,22,1,0,39
25,23,105,0,130,36,55
85,201,157,26,112,152,4
7,21,5,213,3,12,1
2,0,0,24,1,0,4
1,22,95,1,109,30,59
56,206,206,22,130,152,34
86,22,11,211,4,16,2
8,0,2,23,2,0,1
2,19,97,2,66,26,21
4,209,207,20,147,150,64
95,23,11,211,6,9,9
44,2,1,23,1,1,1
3,24,96,1,88,1,1
1,198,205,23,188,117,41
39,20,9,213,14,59,54
104,0,1,22,1,3,4
4,25,31,2,74,1,2
0,194,228,25,139,73,4
15,18,21,210,16,130,56
113,1,1,22,1,6,35
8,25,27,1,18,1,2
2,207,221,22,241,22,1
0,17,24,210,14,154,19
63,1,2,25,3,14,63
61,21,25,1,36,0,9
9,183,220,17,246,25,1
2,21,23,216,20,153,1
2,1,2,24,2,12,39
85,24,22,1,40,2,50
62,203,220,19,185,27,5
3,23,24,210,10,165,0
1,3,0,25,1,18,2
40,8,23,1,50,2,56
112,190,219,17,201,25,38
4,39,24,207,18,152,3
0,2,1,25,1,14,1
2,0,23,1,62,1,19
83,178,223,21,160,23,63
79,88,24,214,10,142,9
5,4,1,23,1,20,1
1,1,17,2,59,1,0
31,69,215,10,193,9,40
92,194,25,212,21,130,55
14,11,2,26,0,33,3
0,2,18,0,49,2,1
22,74,225,12,206,1,2
130,177,26,202,10,119,56
11,9,2,23,0,84,36
0,0,17,1,74,4,2
2,18,222,15,183,1,0
86,212,28,222,6,55,19
59,27,2,25,0,139,61
3,1,16,2,8,7,8
0,15,222,14,157,0,1
32,202,25,216,42,15,1
95,28,1,26,2,152,43
14,1,17,1,1,20,58
2,15,213,14,96,0,5
2,194,27,213,162,33,2
68,21,1,25,6,172,2
87,2,15,1,0,26,55
5,23,218,16,22,1,38
3,204,26,211,190,29,2
28,20,1,28,17,128,0
84,2,11,2,2,25,20
14,13,218,10,23,2,64
1,181,28,208,194,66,9
6,21,2,27,23,152,2
73,1,12,0,0,10,0
57,20,215,10,48,0,35
5,212,32,218,173,25,51
1,21,1,30,21,153,4
38,1,13,2,3,18,2
93,23,216,9,10,1,0
14,200,30,176,163,18,54
1,24,1,64,16,151,41
6,1,9,4,1,21,3
86,22,189,1,25,1,1
57,203,65,139,173,10,15
2,24,5,115,14,147,61
0,2,2,2,2,37,10
25,18,145,1,45,1,2
107,208,133,137,163,18,1
9,25,3,117,17,208,52
1,1,2,3,0,15,34
6,13,127,0,43,2,2
87,239,127,126,194,21,0
59,24,2,123,21,147,17
2,0,1,3,1,14,70
2,11,137,2,34,0,11
12,199,138,132,176,5,0
117,26,3,122,10,122,2
19,2,1,3,2,47,55
2,18,130,0,18,3,37
25,199,137,125,185,1,2
99,24,3,118,17,108,1
12,2,2,4,2,83,14
1,11,123,2,43,5,63
5,205,137,132,192,1,10
93,26,4,125,20,50,0
60,1,2,4,0,148,2
4,14,121,1,21,8,54
1,216,136,119,175,0,39
34,23,4,131,19,9,3
106,1,0,3,2,148,1
8,9,113,2,37,38,13
2,161,154,129,174,1,69
2,60,4,123,18,1,11
85,3,1,2,1,105,1
58,0,120,1,29,89,2
4,133,138,122,202,4,54
2,113,3,132,21,1,39
22,2,2,2,1,42,3
89,1,123,1,24,139,2
15,133,143,130,184,9,14
0,111,5,131,21,2,62
3,2,1,3,2,12,9
86,2,117,1,32,172,1
66,130,145,114,161,21,2
5,113,3,144,21,0,34
1,4,1,5,1,2,55
25,1,112,1,28,158,6
102,129,145,116,176,37,1
6,114,5,136,21,2,1
1,4,1,5,1,0,55
3,2,111,1,34,99,44
88,121,150,120,183,124,3
63,103,5,137,18,5,1
4,2,1,3,0,1,13
0,2,113,2,24,50,66
24,148,150,117,174,161,9
104,108,4,133,18,11,2
8,3,1,4,1,1,1
3,2,106,2,40,47,37
1,112,150,120,173,161,57
85,112,5,136,27,11,5
61,3,1,3,0,1,2
4,0,101,1,18,41,0
1,126,156,111,185,146,52
18,116,5,135,18,10,40
98,2,1,3,1,2,2
15,2,102,1,22,45,1
2,126,153,117,181,152,15
1,114,4,139,22,11,63
78,3,0,3,1,1,12
61,1,103,1,33,49,0
5,136,156,105,186,149,1
0,114,4,138,21,9,54
18,4,1,3,1,1,43
95,0,94,0,14,4,4
19,131,209,116,184,142,1
2,119,12,139,18,55,13
1,2,0,3,0,2,67
82,0,95,1,17,1,11
66,125,209,110,175,97,1
3,122,10,140,20,125,1
1,2,1,4,2,5,53
25,0,91,1,9,1,47
106,132,199,127,177,37,2
10,109,11,140,50,159,1
1,4,2,5,2,12,19
15,2,95,0,3,0,66
98,124,206,108,117,32,8
16,120,9,136,95,178,2
0,4,3,4,6,13,1
0,0,26,0,2,1,30
90,123,217,109,70,42,60
62,122,22,147,179,154,6
3,3,2,4,10,12,1
2,1,28,2,2,1,0
31,125,216,103,79,38,51
106,122,22,147,162,158,41
10,4,1,4,9,12,3
1,1,24,0,2,1,2
20,121,221,99,9,32,14
98,129,24,190,161,157,64
17,3,1,9,47,13,11
1,0,27,1,4,1,1
2,124,237,42,1,33,1
75,129,24,212,119,160,55
64,4,2,20,83,11,45
5,1,19,1,4,1,2
1,126,221,40,1,31,1
25,119,24,222,79,165,12
105,4,1,21,176,16,63
9,1,16,1,11,1,8
0,119,222,38,2,32,1
2,121,29,199,76,191,1
84,2,1,16,178,14,33
68,1,16,0,10,2,55
4,115,220,115,1,26,4
1,123,25,185,44,168,1
19,3,1,8,157,12,1
103,1,19,1,9,1,49
9,101,216,35,2,33,39
1,119,26,202,11,161,4
5,2,1,18,196,14,1
87,2,13,1,19,1,15
75,130,222,30,1,27,69
5,121,29,216,9,164,11
1,3,1,21,162,16,0
18,1,11,1,51,1,2
97,119,223,29,2,31,47
17,126,26,202,1,154,46
1,2,0,14,110,14,4
1,1,12,0,101,1,0
76,113,222,12,1,19,10
64,122,31,258,1,155,66
5,3,3,22,108,15,13
1,1,9,1,113,1,0
20,118,192,30,2,25,0
99,124,59,205,0,156,52
17,4,4,32,111,14,39
2,2,0,2,109,1,4
1,114,128,36,2,30,0
77,128,134,233,0,164,10
63,4,5,19,110,15,66
3,0,1,1,107,1,11
1,100,131,28,3,29,0
16,128,128,194,0,170,1
108,3,3,16,112,14,48
9,1,1,0,105,1,44
1,120,138,15,2,31,4
1,116,128,269,1,158,1
78,4,5,19,111,16,10
67,1,0,2,107,0,67
4,113,129,25,2,23,13
2,138,135,208,1,165,1
15,4,3,23,109,16,1
92,0,1,2,95,2,46
15,113,136,30,5,16,42
0,128,131,220,1,156,3
1,2,2,21,29,14,0
87,1,0,0,175,1,12
75,112,129,30,12,18,67
5,133,134,247,2,165,11
1,4,4,17,47,16,0
16,1,0,1,181,2,2
91,113,124,34,15,16,53
17,133,138,251,1,159,46
1,3,3,21,31,18,3
1,1,1,1,182,1,1
77,116,121,15,12,19,9
64,137,139,191,1,166,61
4,3,5,21,41,16,23
1,0,0,2,167,0,1
15,130,124,53,10,19,1
100,110,146,210,0,161,32
10,2,4,25,58,17,60
1,1,0,1,178,2,5
20,111,117,5,13,18,0
108,132,140,205,0,151,0
10,2,4,62,46,17,52
2,0,1,3,184,3,46
17,113,121,2,12,13,2
105,131,146,164,0,166,1
10,4,3,74,56,16,7
0,0,1,4,175,1,63
17,112,116,2,9,17,30
104,137,147,20,1,179,3
10,4,4,180,3,19,1
1,0,1,19,157,2,28
11,109,114,1,68,18,60
103,138,158,182,3,148,7
10,4,4,99,0,20,0
2,1,2,20,97,1,1
14,99,108,1,158,13,46
113,175,145,77,6,159,47
8,6,4,181,2,18,4
1,1,0,13,37,1,1
0,58,105,0,193,13,6
77,193,155,142,14,164,60
71,15,5,125,2,21,27
5,0,1,4,50,2,1
1,54,103,1,174,12,1
14,202,147,87,13,154,28
106,17,4,173,1,18,57
9,1,2,26,29,2,6
1,44,110,0,175,11,2
1,204,148,118,16,166,1
76,17,5,187,1,24,48
68,1,0,7,36,2,46
5,44,104,2,173,9,4
0,205,159,76,12,138,1
15,18,4,221,1,41,8
95,1,1,9,62,3,61
19,43,97,1,171,1,28
2,204,201,22,15,109,3
0,16,10,268,0,82,1
78,2,1,24,39,5,27
79,44,102,3,190,2,62
6,196,155,18,12,52,7
2,17,5,235,0,154,0
9,0,0,23,60,8,1
96,44,92,2,173,1,45
41,198,212,51,14,10,44
4,17,12,330,0,161,2
1,1,2,16,41,21,1
44,49,90,2,185,1,7
90,195,206,17,17,10,68
9,16,10,314,1,161,27
1,0,0,16,43,22,2
1,43,92,1,184,1,1
75,204,209,0,14,8,27
72,17,11,407,1,140,60
4,1,0,110,27,42,6
1,37,86,3,176,2,1
9,201,215,0,14,1,1
97,18,12,179,1,100,45
45,1,1,71,35,92,45
4,41,88,3,191,5,4
1,203,206,2,21,1,1
40,17,11,128,1,46,6
95,0,0,145,17,149,59
10,39,87,4,188,10,26
1,200,210,6,20,1,3
13,17,12,68,3,37,1
107,3,0,514,34,160,28
11,37,94,19,180,12,61
2,203,206,64,18,1,8
11,17,12,193,1,45,2
107,1,0,26,39,159,0
11,45,78,2,190,11,44
1,203,207,89,17,2,45
13,18,13,238,2,41,2
99,0,2,31,33,164,1
20,36,89,1,185,10,8
1,201,214,1,16,1,58
1,19,12,27,1,47,27
70,1,1,162,15,168,1
73,41,80,27,150,12,1
5,206,212,3,20,1,23
2,18,12,60,1,50,58
14,1,1,211,32,154,7
96,37,85,5,180,13,1
20,202,208,4,14,0,1
2,19,13,312,1,39,45
1,2,0,90,25,165,44
75,35,73,128,189,14,4
69,203,209,5,17,1,1
4,20,15,130,1,47,7
1,2,1,253,28,155,63
16,35,76,7,193,11,31
98,209,211,1,17,1,3
22,16,12,58,1,33,2
1,0,0,224,37,157,24
0,49,79,43,180,12,62
68,207,223,4,15,2,8
79,16,14,29,1,38,2
6,0,1,248,30,156,2
0,31,71,13,188,11,45
9,202,214,2,18,1,46
90,19,16,127,1,41,4
45,1,1,36,25,151,1
3,36,79,5,188,11,8
1,203,215,2,19,1,62
41,18,15,119,0,38,30
92,0,1,115,28,133,2
10,31,66,5,194,10,0
1,205,214,1,19,2,27
10,21,14,48,1,37,63
102,1,2,299,24,133,7
11,33,68,15,197,10,2
1,210,219,37,18,0,1
5,18,16,264,2,28,43
93,1,0,76,19,122,52
50,30,63,6,183,10,4
4,204,214,1,18,2,2
1,21,14,93,2,29,4
37,0,2,211,14,129,60
95,33,63,21,194,9,32
11,212,213,1,21,2,2
2,21,13,156,2,1,1
8,1,0,305,18,93,24
102,22,62,10,197,79,57
22,209,218,1,21,5,7
1,24,16,108,2,1,0
2,0,0,193,20,26,1
71,29,60,6,180,124,41
80,201,219,1,21,11,49
5,21,17,104,1,2,5
0,0,1,172,18,26,2
10,28,59,10,211,128,4
96,202,217,1,17,9,59
22,20,14,147,0,1,32
3,1,1,73,4,2,3
1,30,53,5,173,109,1
72,203,229,2,42,41,24
72,21,18,119,3,2,62
6,1,1,180,1,2,8
3,27,56,5,126,62,0
11,204,223,6,101,104,1
101,22,16,173,2,5,44
11,0,1,197,2,1,50
0,25,55,6,112,30,5
11,208,224,1,94,136,0
100,21,16,272,4,11,5
13,3,1,157,1,2,62
2,29,50,5,75,24,32
7,211,222,1,164,124,1
91,20,18,179,8,10,1
52,2,1,277,1,1,23
3,27,50,11,11,21,62
0,201,225,1,185,123,8
31,21,18,214,21,11,0
94,1,1,105,1,1,1
14,27,32,2,22,28,37
1,201,223,6,170,128,48
8,20,22,199,26,11,4
88,1,1,66,2,2,1
46,26,42,3,9,15,4
4,206,226,2,170,129,56
1,20,20,82,44,14,34
36,3,1,181,2,1,2
102,26,43,11,1,23,0
5,202,234,0,133,125,20
1,22,19,151,90,10,61
10,3,3,166,6,0,9
102,21,39,5,1,17,1
13,194,223,17,55,128,1
1,21,22,145,173,10,43
8,2,0,104,11,4,51
94,25,38,4,1,21,5
52,209,218,1,57,123,1
2,25,22,149,182,10,3
0,2,3,106,12,2,59
36,20,35,3,1,19,37
95,204,221,5,56,131,3
11,22,21,142,187,13,1
1,1,1,110,11,2,23
8,24,33,5,2,16,62
93,202,219,16,57,132,9
49,22,21,178,180,13,2
4,1,2,31,11,1,1
2,21,33,3,2,13,43
35,203,212,2,61,127,53
94,22,21,172,192,14,4
13,2,1,30,11,1,2
2,24,29,3,2,15,4
11,201,220,1,64,127,57
94,23,25,130,174,12,32
25,1,2,159,13,0,3
2,22,28,5,1,18,1
0,203,223,1,55,129,18
63,22,23,122,191,13,63
76,0,0,186,11,1,9
6,25,29,10,1,10,1
1,190,223,2,56,124,0
3,21,24,133,196,13,39
88,1,1,89,13,2,47
65,19,31,5,2,15,4
4,204,219,1,60,135,1
0,21,23,155,187,15,3
32,2,2,188,11,0,56
98,18,29,6,2,10,36
11,184,220,1,53,123,2
0,20,23,97,161,12,1
5,1,1,207,12,1,19
92,20,20,14,2,15,61
56,208,220,1,55,123,8
2,23,24,129,189,13,1
1,1,0,137,12,1,0
32,17,22,7,1,9,42
99,204,222,0,55,108,55
11,24,24,252,195,29,5
1,1,1,195,12,1,0
7,18,18,7,0,2,3
96,206,224,0,54,85,59
55,22,26,44,193,89,35
3,2,2,215,11,8,3
0,19,18,7,1,0,0
31,206,218,1,54,13,18
97,23,33,3,176,122,63
13,3,2,250,16,13,7
2,20,20,45,2,2,1
5,204,192,2,56,13,1
88,24,23,37,197,130,39
56,2,2,240,13,12,54
3,18,9,45,2,0,5
1,206,201,1,42,9,2
33,21,57,2,183,116,2
97,1,2,154,11,34,52
13,16,2,100,1,3,40
1,203,148,10,37,2,4
6,22,123,12,189,88,1
81,1,4,184,14,101,17
66,18,1,41,1,3,64
4,205,197,3,49,1,7
0,23,125,33,173,46,1
31,2,5,212,14,119,0
95,18,2,14,2,7,38
13,202,175,0,33,2,54
0,23,160,0,184,7,3
6,2,4,157,14,109,0
86,17,10,87,2,32,1
54,208,249,5,52,2,55
2,25,34,1,185,1,40
1,2,2,106,13,81,3
31,14,8,101,0,97,1
97,195,135,2,60,8,19
13,24,143,2,158,0,65
0,1,13,171,12,4,10
5,14,39,68,2,116,0
89,206,236,2,38,38,3
56,24,51,2,183,3,58
3,2,4,42,16,1,40
1,10,9,299,0,78,2
28,199,260,14,61,97,0
99,25,22,1,175,7,17
14,0,1,111,13,1,65
0,15,25,168,1,8,10
3,204,149,6,37,117,1
90,24,46,1,181,33,1
56,1,3,128,15,3,59
4,15,17,126,1,1,41
0,198,195,9,46,79,3
29,24,30,2,191,103,1
97,2,9,109,16,6,16
15,16,1,187,1,0,68
0,200,104,9,48,38,10
5,24,54,1,200,123,1
89,1,6,65,14,7,1
61,12,0,263,1,2,55
4,200,192,18,34,7,38
0,26,63,1,187,112,4
25,1,29,141,14,35,1
95,14,28,163,2,2,18
15,206,19,8,39,1,68
1,25,271,1,177,71,10
4,2,21,123,16,102,1
91,13,1,181,1,4,2
59,204,232,6,35,0,52
3,24,176,2,185,33,44
1,1,8,81,14,134,3
29,13,1,219,1,11,1
99,199,134,10,44,0,16
11,25,278,1,183,32,65
1,2,27,151,15,123,10
4,13,6,115,1,9,1
89,201,264,5,36,2,1
63,26,281,1,194,4,56
4,2,10,79,14,108,38
2,13,90,232,2,38,4
27,199,71,14,22,3,0
99,24,113,0,193,1,15
14,0,5,215,13,68,65
2,15,29,134,0,113,9
4,203,178,9,35,5,2
86,26,22,1,175,2,1
60,0,7,78,15,28,35
5,12,3,146,1,125,59
1,201,339,20,27,8,4
27,27,36,0,188,2,0
104,1,2,77,14,4,2
8,8,119,251,1,109,55
1,176,290,12,29,37,41
2,59,26,2,187,3,3
82,2,2,26,18,1,0
62,2,1,219,1,69,15
3,127,18,20,33,105,66
0,121,170,2,192,5,8
24,4,5,75,17,1,2
94,1,68,218,2,29,1
18,123,126,16,23,123,39
0,115,292,0,181,10,58
3,2,7,72,19,1,5
86,1,10,169,1,23,2
62,125,220,11,34,120,2
3,116,33,2,191,12,54
2,4,2,31,17,2,43
25,0,58,219,2,24,3
99,125,325,21,15,121,2
16,115,16,2,177,9,14
0,3,1,101,19,2,64
5,1,34,159,1,1,9
85,123,279,4,28,103,2
58,115,42,0,187,44,1
4,3,3,50,19,2,36
2,1,40,240,1,0,56
22,120,280,19,37,59,6
97,118,93,0,164,109,0
15,3,5,72,17,6,1
1,1,25,251,0,1,51
2,123,231,10,25,23,41
82,118,26,0,201,122,3
64,3,43,71,18,10,1
4,1,82,205,1,0,12
1,124,213,13,24,24,69
25,122,9,1,177,120,11
95,4,1,61,19,9,1
14,1,35,240,0,1,0
3,121,294,12,34,1,54
4,122,18,1,186,92,46
85,3,2,10,18,88,4
60,1,33,211,1,6,1
3,126,304,13,29,2,12
2,120,13,1,175,19,63
23,3,1,61,20,136,11
98,0,39,220,0,13,1
16,123,241,16,24,2,1
2,123,25,1,182,20,48
2,4,1,111,22,124,43
84,1,42,151,2,13,3
61,118,111,6,18,1,0
4,124,56,1,179,18,13
0,2,3,29,21,129,65
29,1,17,239,1,13,12
106,116,228,19,17,0,1
10,129,28,0,183,19,1
1,3,1,111,23,120,51
21,1,56,130,2,10,44
100,120,95,8,15,1,2
7,128,52,1,183,24,0
1,4,2,99,19,128,13
1,0,1,222,1,13,68
83,114,133,14,18,1,13
68,123,82,1,186,26,1
4,4,5,9,22,141,1
0,1,2,225,0,13,50
19,121,72,36,20,1,40
99,124,243,3,186,17,3
14,2,9,4,20,123,2
1,0,1,214,2,11,11
1,114,49,67,19,1,64
83,128,144,4,188,20,11
64,4,16,1,21,128,0
3,1,1,111,0,11,2
0,107,22,152,12,1,51
24,128,155,5,190,17,41
106,4,25,0,22,124,3
8,0,3,158,0,11,1
2,109,2,167,9,1,15
3,134,201,5,174,14,65
79,4,43,0,49,125,10
66,2,4,110,2,13,0
3,123,1,142,2,2,2
1,145,165,5,94,18,48
25,4,132,1,129,126,39
94,0,4,161,5,16,3
17,113,1,171,1,3,0
2,122,172,4,50,26,12
2,4,98,1,178,88,65
81,1,5,187,10,27,10
65,111,2,136,0,2,0
5,128,54,5,68,1,1
1,4,311,5,179,86,50
23,1,10,90,11,108,45
102,102,1,182,2,4,2
9,113,76,8,66,1,1
2,3,195,2,177,43,12
1,2,15,38,12,103,66
77,119,2,290,1,10,10
67,126,87,15,50,2,0
4,5,207,2,182,47,0
1,1,17,134,12,129,51
18,110,1,221,2,8,42
100,127,31,7,73,2,3
9,3,268,0,161,16,0
1,1,28,84,11,151,9
0,105,1,210,2,6,62
77,143,68,18,63,1,26
69,5,183,1,174,6,3
5,1,10,57,12,87,1
1,114,2,171,2,113,31
15,134,12,37,67,7,57
98,4,216,2,171,6,6
17,1,13,5,10,23,0
1,111,0,227,1,127,0
2,133,80,64,70,4,47
77,3,253,4,177,1,43
64,0,8,3,13,8,3
4,104,2,141,1,156,1
1,125,1,133,52,33,7
18,4,228,3,180,3,65
102,1,54,2,11,0,28
9,97,3,222,0,50,4
1,187,1,109,32,54,1
0,8,170,3,177,1,31
75,0,130,5,10,0,60
69,41,4,159,1,26,7
4,206,3,60,50,172,2
0,17,159,4,171,47,0
19,1,45,1,10,4,47
105,54,4,124,0,107,45
9,211,1,174,47,97,3
2,17,73,6,167,25,0
0,1,226,1,10,2,11
79,39,15,112,1,19,62
70,199,2,152,51,163,12
4,17,31,3,167,82,0
2,1,220,0,11,4,0
24,56,21,77,1,20,47
104,187,1,219,50,159,51
9,15,65,9,179,42,4
1,0,237,2,11,2,1
0,40,23,43,1,11,7
76,202,1,203,36,196,60
65,16,36,16,182,14,27
4,0,205,1,13,2,1
1,81,32,36,2,24,1
15,212,1,290,53,136,28
103,13,87,23,160,8,62
9,1,159,1,13,2,8
1,53,20,19,1,9,1
1,209,1,244,16,129,0
79,16,71,20,184,96,51
73,1,201,1,14,8,46
5,41,23,37,1,0,2
1,197,2,204,51,17,1
16,19,37,21,185,235,8
103,2,213,2,14,7,60
11,41,25,13,0,2,28
1,211,2,240,47,146,3
19,20,22,15,199,47,1
104,1,266,1,11,2,27
9,29,16,37,0,29,60
2,190,0,188,59,5,8
0,17,18,11,189,199,1
76,0,220,1,16,6,2
72,29,37,35,2,34,50
5,203,2,252,40,9,52
0,15,27,20,184,29,3
16,1,220,2,10,30,0
94,79,20,81,1,11,6
21,216,1,254,40,11,59
2,22,23,13,156,88,27
1,1,214,1,18,162,2
74,32,23,33,0,13,0
71,198,2,211,47,2,26
4,15,40,17,162,17,67
2,1,230,2,21,136,7
12,41,21,49,2,9,0
109,176,2,217,35,1,0
11,14,32,13,192,90,46
1,2,241,1,27,143,44
14,40,30,15,2,10,3
98,171,2,178,59,1,1
18,13,23,15,188,34,4
2,2,240,1,18,62,59
0,80,34,10,3,12,29
80,250,1,248,19,1,3
74,17,24,13,158,50,1
4,1,264,0,14,106,25
2,14,19,16,0,7,61
14,219,2,229,76,2,6
100,26,48,25,139,2,0
8,3,219,1,17,119,1
1,26,28,18,1,33,49
2,184,3,227,53,10,44
73,14,27,23,197,3,2
72,1,193,1,18,65,1
6,18,25,42,1,82,8
1,240,0,246,20,5,60
12,22,76,18,178,0,31
102,1,141,2,19,38,3
10,18,26,36,2,126,0
1,219,1,234,45,31,29
14,34,25,19,213,1,62
103,3,230,1,14,21,6
11,81,33,47,1,98,2
1,153,2,212,24,11,0
10,17,10,20,209,1,49
99,0,221,1,21,19,47
20,95,36,85,1,48,4
1,304,3,244,36,130,0
1,16,18,22,210,7,6
72,1,211,1,21,2,58
81,59,28,34,1,91,31
4,194,1,257,66,161,2
1,15,18,23,205,19,0
13,5,216,1,21,1,24
106,33,32,13,1,133,59
11,236,2,201,55,79,6
1,10,2,35,216,4,1
12,0,204,2,21,2,1
101,172,66,52,0,23,46
11,177,4,212,29,215,48
2,21,2,17,231,11,3
11,1,113,1,19,0,2
99,117,144,18,1,46,6
24,131,5,216,41,151,58
2,179,1,18,214,26,33
1,25,148,1,25,1,2
71,177,127,30,2,164,1
76,21,2,206,40,75,24
6,1,1,36,194,22,62
1,93,130,3,22,0,7
10,196,130,45,1,36,2
95,39,4,237,30,140,2
21,0,0,17,208,15,47
1,73,99,1,24,2,49
0,155,188,19,2,39,3
77,52,8,206,32,158,1
80,2,1,37,200,17,5
6,378,72,1,21,1,62
1,85,198,1,2,36,34
10,34,13,194,18,152,2
103,3,0,41,190,8,0
11,1,88,2,20,0,19
1,106,209,1,2,0,63
12,71,14,200,39,125,6
106,68,1,146,212,35,2
11,133,98,4,25,2,0
1,108,229,2,1,1,48
10,18,21,79,6,188,50
99,1,0,255,191,55,3
22,72,74,13,49,6,2
1,166,209,0,3,4,5
0,37,16,102,1,17,57
73,3,1,145,158,155,30
76,161,44,5,100,20,2
5,288,225,2,1,1,1
1,18,14,199,0,16,24
6,0,2,92,145,156,65
89,452,52,4,100,11,8
58,59,228,0,2,1,1
3,3,20,73,2,12,0
2,18,1,235,152,137,49
39,390,47,12,110,17,51
97,75,262,0,4,0,4
9,4,14,55,2,18,1
3,4,1,232,138,139,2
1,13,34,15,92,7,54
74,86,204,2,5,1,37
75,22,17,88,1,0,3
7,20,2,224,88,71,1
1,0,18,15,195,83,20
8,332,207,1,13,6,64
91,29,18,87,2,1,9
50,2,2,182,63,1,2
3,238,47,8,177,138,1
0,96,255,1,11,39,41
35,25,16,17,0,4,52
99,0,2,230,116,0,5
10,232,15,27,146,149,1
1,398,215,2,4,54,4
6,15,20,9,0,4,57
94,3,2,191,79,2,36
54,116,43,56,208,73,3
3,163,200,2,11,164,0
1,8,20,1,1,7,19
38,0,1,151,81,2,67
98,99,37,135,199,3,8
11,193,228,2,10,140,1
2,7,31,0,0,50,1
9,0,1,97,84,2,41
94,2,46,249,193,1,52
57,265,264,10,10,180,4
2,185,14,1,2,21,2
1,4,1,142,82,2,2
32,11,28,121,156,3,56
97,413,269,3,13,22,34
12,17,21,0,1,106,3
0,71,1,135,68,10,0
8,153,63,118,204,2,17
91,187,181,4,17,43,64
51,7,21,1,2,212,9
4,3,1,140,60,6,0
2,121,46,123,188,2,1
37,172,225,2,11,7,41
97,7,36,2,0,149,49
12,1,1,137,77,30,4
0,4,36,124,200,2,1
6,245,228,4,12,1,2
91,21,22,1,1,98,60
53,1,2,129,65,102,40
3,6,10,114,204,2,3
1,76,256,2,15,0,0
32,66,25,1,0,76,19
97,2,2,133,58,172,65
14,64,22,120,209,13,9
2,122,203,2,10,2,2
5,122,24,0,1,64,1
91,2,1,133,79,222,41
54,41,37,134,189,6,54
3,72,276,3,14,2,5
1,190,24,0,1,28,1
36,67,3,131,74,107,2
103,20,9,132,186,32,56
5,197,219,2,13,1,36
0,8,60,1,3,3,1
7,1,3,139,71,171,0
95,0,2,117,212,104,18
59,139,142,3,11,3,62
2,66,159,0,1,29,10
2,3,5,129,71,126,0
32,0,1,131,192,26,2
97,1,173,3,13,3,57
13,332,80,0,1,4,41
1,63,5,124,64,117,2
5,3,2,126,202,42,0
89,1,67,3,13,3,17
58,237,193,0,1,2,64
3,106,12,126,52,76,9
0,3,0,138,188,95,1
32,165,75,3,13,8,1
98,122,214,1,2,2,41
14,27,12,120,70,2,53
1,4,2,130,225,111,4
2,10,99,4,12,85,0
87,284,202,2,1,4,1
65,25,10,125,60,0,54
3,1,1,139,204,81,43
0,114,114,4,16,109,3
26,113,144,1,1,4,2
97,4,6,120,68,0,16
14,0,0,133,205,89,61
1,20,71,5,11,125,7
4,123,221,2,2,23,2
89,46,14,122,70,1,0
56,4,0,132,196,40,35
3,53,42,2,13,127,57
0,272,209,1,1,37,5
28,13,15,119,45,2,1
97,1,1,137,206,57,2
12,45,53,4,15,141,59
0,296,226,2,0,12,38
4,15,12,125,48,2,4
88,0,0,141,202,50,0
56,74,50,4,14,132,15
3,195,205,0,0,7,64
2,25,14,126,44,0,8
28,2,2,139,211,11,2
94,112,68,4,16,123,1
13,46,180,0,1,30,42
1,5,13,95,53,1,57
0,0,1,200,206,1,5
78,8,112,12,18,65,0
78,223,141,1,1,110,1
6,72,7,72,66,5,52
0,5,1,176,194,2,45
26,17,35,8,14,73,2
97,82,227,0,0,122,0
14,9,21,19,31,6,16
1,35,2,210,205,2,64
3,7,34,29,15,19,9
88,106,196,2,0,130,2
58,128,16,32,36,9,1
3,7,0,206,204,1,35
1,2,62,16,15,10,54
19,79,228,2,0,160,5
80,208,16,48,43,24,1
16,9,2,224,210,3,2
0,1,49,18,17,19,54
1,1,202,1,2,111,39
137,132,24,36,50,17,2
46,72,1,221,200,1,1
3,3,55,17,16,2,17
1,1,215,0,1,98,69
62,108,24,54,44,79,10
90,53,1,231,213,5,1
16,4,66,18,16,0,2
0,18,214,1,2,29,54
28,53,15,40,32,128,40
95,140,0,210,213,30,2
18,5,60,17,17,2,1
1,1,221,2,2,60,18
2,118,14,42,46,200,67
52,213,1,222,210,10,11
62,10,29,18,16,1,0
4,0,190,1,1,28,0
0,224,19,48,32,138,53
55,144,1,216,189,24,44
86,4,42,20,16,2,3
8,2,228,1,0,28,0
2,130,18,63,36,166,16
1,122,1,211,210,13,62
74,4,76,17,17,1,11
62,2,186,1,0,1,0
14,90,11,42,42,137,2
2,133,1,262,205,29,56
33,4,72,14,20,2,41
49,1,197,0,1,2,1
4,189,10,43,34,103,1
2,215,1,222,204,50,12
1,9,44,20,17,3,65
4,1,243,1,3,1,12
57,9,18,47,30,105,1
15,210,1,225,210,50,1
1,21,48,21,19,5,53
6,2,204,2,0,1,39
88,64,19,27,34,54,3
76,243,1,246,220,140,2
5,31,33,23,17,9,13
1,0,239,2,1,2,61
47,43,18,37,37,7,12
96,190,0,221,184,91,0
21,32,33,18,18,83,1
1,2,208,1,0,6,52
8,73,22,40,30,2,39
24,172,1,215,206,23,3
130,16,31,18,18,183,0
7,1,193,3,2,9,12
9,13,21,24,39,2,67
25,127,1,217,185,2,10
68,74,25,19,18,136,1
8,3,237,1,1,70,1
1,2,28,28,29,2,58
71,246,1,221,207,0,43
159,28,14,22,18,59,2
8,85,226,2,1,117,0
1,6,22,28,28,7,15
0,114,1,221,219,2,68
63,43,46,21,15,46,10
91,2,211,3,1,111,2
10,1,21,19,18,12,1
5,64,1,227,197,0,52
2,323,43,21,20,8,43
92,11,216,1,2,111,3
59,1,18,41,26,43,0
5,115,1,217,227,3,14
2,126,24,18,18,0,69
52,5,219,2,1,116,12
29,0,28,42,23,85,0
4,119,2,205,187,6,1
1,92,5,20,21,1,51
41,6,176,1,2,96,39
74,0,42,18,24,110,2
22,17,3,227,199,5,0
0,193,2,22,20,1,17
1,11,148,2,1,22,68
62,40,117,32,31,127,13
131,109,4,227,197,16,2
5,158,1,23,25,2,1
0,5,144,1,2,16,51
33,1,108,30,22,144,41
93,100,2,216,205,21,2
16,137,0,22,21,0,0
3,4,129,2,0,7,13
1,2,102,37,14,115,66
68,113,1,201,199,34,11
42,132,0,23,33,2,2
11,5,147,2,3,1,0
1,1,150,19,25,88,48
95,24,4,244,210,88,42
88,138,0,25,21,9,4
15,12,157,1,2,1,1
1,4,140,39,21,19,15
28,147,4,192,201,185,66
147,99,2,26,23,10,12
8,7,161,1,2,2,1
2,0,107,25,26,15,1
0,29,2,223,201,165,48
27,181,1,24,22,18,40
153,35,156,1,2,1,3
5,3,144,25,23,27,0
2,38,4,222,207,163,11
32,185,1,23,23,11,66
100,14,154,1,0,2,11
5,0,121,28,12,11,2
0,18,4,223,213,167,0
29,190,2,22,25,14,50
90,15,134,3,2,1,42
55,1,133,19,34,2,2
2,109,3,229,218,172,1
1,66,0,29,21,23,14
103,4,147,1,1,1,69
22,1,122,14,17,0,13
2,0,2,213,209,118,1
2,164,0,25,27,80,0
44,42,138,2,0,6,54
121,2,153,25,14,0,48
6,1,4,215,209,75,2
1,393,1,29,25,119,0
0,47,122,2,1,2,8
119,3,130,19,17,1,59
25,2,3,220,194,18,26
3,10,0,24,25,147,2
2,189,161,1,1,15,0
66,14,121,18,10,1,29
54,5,3,225,206,14,58
3,68,1,27,22,147,5
1,144,129,2,2,25,0
3,11,132,18,16,2,1
161,1,3,215,217,20,52
43,45,1,24,23,153,45
3,213,128,3,2,22,2
5,15,127,19,17,1,1
102,2,3,226,210,8,9
24,2,0,24,21,162,59
2,211,130,1,2,20,24
2,30,155,14,8,2,2
114,2,5,216,178,0,2
74,1,1,32,54,102,30
3,115,109,1,4,78,59
1,136,119,9,1,4,6
2,14,4,212,130,1,1
75,5,0,54,111,63,0
61,147,146,2,2,134,47
5,20,152,1,1,8,44
1,2,5,140,135,2,3
30,8,0,118,120,14,0
97,198,130,3,2,102,7
12,119,152,1,1,15,61
1,2,5,139,111,2,26
45,0,2,108,126,20,2
134,111,125,3,3,139,1
6,114,147,1,2,21,30
0,3,4,148,120,2,61
27,0,1,122,106,12,8
88,129,98,3,2,136,1
21,79,184,1,1,21,2
1,5,8,140,130,2,52
1,2,2,125,122,12,44
32,126,54,4,4,154,3
82,177,219,0,1,18,1
26,6,17,137,120,0,6
1,0,1,127,126,0,61
14,145,43,3,2,133,28
110,197,231,1,1,45,3
8,4,17,126,122,3,1
2,1,1,116,122,1,23
0,88,44,3,3,70,62
51,200,223,2,0,124,8
93,10,21,141,128,4,2
9,1,1,123,117,1,1
2,55,46,4,3,40,44
19,235,226,2,1,136,44
89,17,22,164,116,9,4
41,1,2,133,114,1,0
2,108,43,3,2,5,8
17,127,220,1,1,132,64
81,4,22,136,124,45,29
31,2,1,123,130,3,2
3,85,43,2,3,2,2
0,163,212,2,1,82,25
27,8,21,136,115,130,58
110,1,0,121,127,7,8
7,43,27,2,4,0,1
0,170,219,1,1,37,0
5,16,21,140,126,160,47
87,1,2,120,136,12,46
53,2,39,4,3,1,3
4,237,223,1,1,46,0
2,22,21,130,128,132,9
23,3,2,134,115,8,60
116,2,41,3,4,0,27
6,132,230,2,1,0,2
1,76,21,136,124,112,1
0,3,2,133,119,62,25
29,1,32,4,4,3,62
111,110,224,0,2,2,8
3,146,21,130,111,71,0
8,3,2,133,122,125,0
132,1,37,2,3,7,49
42,82,225,0,1,2,48
3,192,23,114,112,42,2
1,8,1,125,144,145,0
71,2,31,5,4,11,6
94,55,224,2,1,1,61
13,169,22,127,116,63,30
1,23,1,135,133,166,3
17,2,30,4,4,10,2
89,46,220,1,1,1,25
17,174,23,126,115,42,61
0,15,2,126,127,139,8
8,53,26,4,4,17,1
99,62,245,0,0,2,1
72,172,26,140,112,25,43
5,9,1,129,134,161,50
1,0,12,4,3,13,5
22,28,205,1,0,1,0
78,178,26,116,109,42,3
27,11,1,135,127,157,60
1,86,30,3,3,7,33
2,64,210,1,1,0,2
71,150,20,124,109,17,0
37,9,1,137,126,132,20
1,0,22,4,4,17,64
1,35,221,1,1,1,7
16,194,22,127,116,19,1
104,20,1,137,130,129,1
9,2,21,4,5,26,45
2,25,221,1,1,2,44
0,227,25,121,96,3,3
64,21,2,142,181,119,1
80,1,22,4,7,54,4
6,42,219,1,0,4,61
1,155,24,119,41,2,33
12,24,2,137,203,82,2
87,2,22,3,18,149,0
27,20,241,1,1,8,26
0,124,28,129,37,1,63
0,11,2,142,204,37,8
122,3,17,3,16,171,2
59,7,226,1,0,9,0
4,120,26,115,39,1,44
1,79,1,142,211,12,46
42,3,16,4,21,141,3
99,26,232,1,1,25,1
11,225,23,125,32,1,2
0,29,2,144,207,5,56
22,2,12,3,18,132,34
98,2,225,1,2,53,3
14,130,29,131,36,4,1
1,83,2,129,205,1,24
2,3,14,3,22,81,65
89,2,223,2,0,133,9
81,100,26,119,49,9,2
6,79,2,140,197,2,1
2,5,13,4,16,39,43
9,0,215,2,0,146,46
98,159,30,109,33,14,4
40,141,1,148,212,0,0
3,4,10,5,20,40,6
1,1,226,1,2,136,61
24,20,27,119,33,11,31
84,180,2,148,202,0,2
21,31,12,3,21,15,1
1,2,221,0,2,132,24
0,29,32,111,22,21,63
76,267,1,154,201,2,9
41,22,8,4,21,12,0
2,0,193,1,2,141,1
1,28,66,104,29,16,42
46,216,4,146,213,3,50
67,15,0,4,20,31,4
30,1,143,0,1,154,1
2,36,134,121,31,8,3
3,177,3,146,198,1,60
78,27,2,5,22,0,36
35,0,130,1,0,119,4
3,34,133,110,31,48,1
0,293,4,149,199,2,23
63,13,1,4,21,0,64
110,58,130,1,0,66,8
6,27,133,107,26,157,1
1,202,3,149,213,8,0
1,8,0,5,21,2,42
97,1,124,1,0,18,50
61,36,143,107,40,143,4
4,209,4,155,196,8,0
1,17,1,5,22,0,5
41,2,126,1,0,2,64
106,72,141,107,30,135,37
6,157,4,148,209,38,3
0,21,0,4,23,2,1
7,1,119,1,2,2,24
79,36,136,103,25,53,62
47,217,5,157,206,129,7
3,12,1,4,21,7,2
2,1,134,1,2,1,1
39,5,143,108,22,18,44
106,148,3,152,209,129,53
13,85,0,4,20,14,3
1,5,120,1,1,2,2
30,2,147,101,29,18,3
86,130,3,140,204,135,61
9,32,2,5,23,19,35
2,2,122,1,2,1,3
0,2,143,101,18,19,1
47,88,3,141,212,178,22
73,179,1,4,24,12,64
7,9,117,2,1,0,9
0,1,147,105,15,8,1
4,98,4,162,205,113,0
95,196,0,4,24,25,42
31,23,114,1,2,2,54
2,1,149,109,16,1,5
2,39,5,161,214,138,0
37,232,0,5,24,53,2
84,23,111,1,1,3,55
9,0,152,105,19,1,37
1,31,5,154,204,20,3
1,219,1,5,26,133,1
50,23,107,1,1,11,22
62,1,153,96,15,1,63
4,45,5,204,206,60,9
1,249,1,12,26,135,1
2,25,102,1,2,8,1
53,2,151,96,10,1,36
52,1,5,209,222,17,57
2,321,1,11,27,147,4
1,39,109,1,1,17,1
28,3,155,96,17,2,1
94,2,4,200,208,20,55
18,158,0,9,27,162,36
2,116,101,2,2,21,3
12,3,159,37,11,0,0
77,4,5,218,207,11,20
24,164,1,22,26,149,63
2,95,98,2,2,19,9
0,5,197,27,4,0,1
60,1,9,223,168,11,1
50,90,0,21,63,183,39
3,188,40,2,3,16,53
1,11,216,35,1,1,5
13,1,22,218,142,27,1
66,1,1,23,97,156,2
23,204,33,2,4,17,55
2,51,221,29,2,1,41
1,4,22,223,97,12,3
57,87,2,23,213,143,0
59,223,32,1,11,16,16
6,14,222,26,1,1,66
1,0,22,212,64,9,10
1,26,2,22,197,125,1
94,240,29,1,14,29,2
51,16,220,24,1,2,57
2,1,22,218,65,1,37
0,34,1,22,207,104,3
42,178,29,2,13,76,0
89,21,216,29,1,4,17
14,1,23,220,66,2,64
1,20,1,24,203,42,9
7,170,28,1,12,134,2
92,27,223,27,0,8,1
69,2,22,230,58,2,38
5,22,1,22,196,6,58
1,191,26,1,16,130,5
51,20,221,27,2,39,1
90,2,24,215,61,2,1
16,23,1,23,212,1,57
1,195,25,2,15,87,39
8,13,220,18,2,109,2
102,2,22,223,62,4,2
21,2,1,27,195,1,23
2,198,25,1,20,59,62
1,62,220,24,2,149,9
34,4,25,218,68,9,2
66,1,1,23,174,2,2
12,110,21,2,13,9,40
1,104,220,21,1,125,56
17,3,33,217,59,32,6
101,1,2,25,226,2,1
8,143,15,0,17,1,2
2,118,211,18,1,99,54
1,4,24,211,54,118,40
101,1,2,25,203,4,2
28,118,14,0,17,1,2
0,113,218,24,0,52,16
2,2,26,221,54,135,64
57,1,1,28,206,10,9
89,137,26,2,13,1,0
7,107,228,28,0,47,1
1,2,27,232,59,136,38
12,2,2,26,214,7,57
87,141,19,0,19,1,5
21,103,222,20,1,12,1
2,3,26,219,52,148,3
0,2,3,24,208,19,56
58,144,15,2,23,2,38
90,104,223,18,1,10,2
15,2,27,209,51,148,0
1,2,2,26,204,18,18
24,136,15,1,18,2,69
