HandOpen,HandClose,Wrist Flexion,Wrist Extension,Supination,Pronation,Rest
2,5,13,2,1,0,1
2,12,6,1,1,2,2
1,17,3,1,4,3,1
1,13,3,1,5,4,1
1,7,0,1,5,2,0
0,3,1,0,4,2,3
0,1,1,2,2,2,7
2,2,1,4,1,1,10
1,0,1,7,1,1,14
3,0,1,5,0,0,9
7,1,0,4,0,1,6
12,1,33,3,1,2,4
13,1,18,1,1,1,1
10,2,28,2,1,8,3
7,8,34,2,1,12,1
4,13,16,1,2,8,1
3,11,6,0,0,5,0
1,11,29,1,1,11,0
1,6,12,0,4,9,2
0,2,24,1,5,5,2
2,1,28,3,2,2,7
2,1,12,5,2,2,11
3,2,5,7,2,1,11
5,1,5,4,0,2,9
11,0,2,1,1,2,6
18,0,2,1,1,1,4
13,0,45,2,1,2,2
7,2,22,2,2,2,1
2,2,14,1,1,1,0
2,10,5,1,0,1,2
3,15,1,1,3,0,0
1,8,1,0,0,0,1
0,2,3,1,0,3,0
3,1,4,2,1,2,9
8,0,38,2,1,1,10
4,7,8,5,2,0,1
1,5,8,2,2,1,2
2,3,28,1,3,11,1
0,0,33,3,2,2,6
5,1,10,1,0,2,7
5,8,6,3,1,0,2
1,10,10,4,0,1,0
0,3,1,1,1,2,0
0,1,1,2,1,0,5
6,2,3,1,1,3,11
8,16,0,6,1,0,1
1,6,22,9,1,0,1
1,2,2,2,1,11,1
1,2,45,1,3,2,3
6,2,4,2,0,6,9
9,8,12,1,2,2,4
5,24,2,8,1,2,1
2,6,8,1,2,2,1
2,1,1,0,0,5,0
0,0,1,1,2,2,10
11,8,1,1,0,2,6
2,15,2,4,1,0,1
2,2,10,4,0,2,0
1,2,4,0,0,2,2
3,0,1,0,7,1,10
11,9,2,2,3,0,2
6,14,2,7,2,5,1
1,2,14,8,1,4,1
1,1,21,1,1,1,1
2,0,2,1,6,1,10
10,10,2,2,1,6,4
4,4,4,1,1,4,1
3,2,9,6,0,1,0
1,2,4,5,1,1,3
2,1,0,2,3,0,8
8,4,2,0,1,10,4
8,12,42,0,1,3,1
1,1,36,2,1,2,1
0,1,42,4,2,2,0
1,0,53,0,0,5,7
6,6,15,0,1,1,9
10,5,2,1,2,0,1
2,1,0,3,2,0,0
1,3,0,3,1,2,1
2,0,67,2,1,1,3
4,1,28,2,1,5,13
11,11,62,1,1,1,3
3,4,80,1,3,1,2
2,1,48,7,1,1,2
2,2,46,4,0,1,4
3,3,30,0,3,12,12
9,20,7,2,1,1,1
2,8,2,0,0,0,2
2,2,1,1,5,2,2
1,1,63,2,1,5,5
2,1,8,2,2,0,12
10,37,13,2,2,1,2
2,18,5,2,3,7,0
1,3,48,4,1,2,3
1,1,11,3,1,4,4
7,4,37,0,2,2,13
5,4,19,1,2,2,3
2,2,13,0,1,0,1
1,7,2,0,2,1,2
1,1,1,9,2,0,3
2,17,28,5,1,2,13
10,8,3,1,0,1,3
9,1,80,0,1,3,2
2,2,20,0,3,1,0
2,2,13,6,2,5,5
2,2,5,2,1,7,11
2,9,29,2,1,2,2
7,15,26,2,1,1,0
2,3,2,1,4,1,2
1,1,1,4,6,0,2
3,9,1,5,3,2,11
4,16,88,1,2,1,2
8,3,28,1,0,1,1
2,2,12,1,2,3,0
2,2,22,3,5,1,6
1,3,3,9,2,0,14
1,18,21,4,2,5,4
9,7,2,1,0,0,2
8,3,37,0,1,3,0
2,2,4,2,1,1,4
0,2,2,3,2,1,11
1,8,24,4,2,1,2
7,5,87,2,0,4,2
8,5,67,1,3,4,0
2,1,32,2,3,1,3
0,1,21,1,1,2,11
0,5,15,8,2,21,3
4,11,7,4,2,4,0
8,0,15,1,0,0,1
2,2,9,1,1,1,2
1,1,1,1,2,2,11
0,6,1,6,1,1,1
1,12,22,5,2,6,2
7,1,41,1,0,4,2
4,1,32,0,3,2,3
2,0,6,1,2,0,11
2,7,0,5,0,0,3
2,11,12,7,0,6,0
4,1,14,2,1,3,2
2,2,6,1,0,1,3
2,3,1,2,4,3,9
0,16,0,1,2,1,3
1,7,1,3,0,7,1
0,1,88,1,0,3,1
6,2,28,1,1,1,2
3,0,11,2,2,1,14
3,7,1,2,0,1,4
2,14,6,4,2,1,0
2,1,5,2,0,1,0
7,5,17,1,1,8,0
4,1,10,0,1,7,11
0,12,5,2,1,1,4
1,3,1,5,1,1,2
1,2,1,10,2,1,2
2,1,66,0,1,3,0
8,0,44,0,3,3,11
2,7,45,0,2,1,3
1,18,33,5,3,2,1
0,4,3,7,2,13,2
4,0,10,2,0,1,2
5,0,5,1,1,6,7
8,3,7,1,3,2,5
2,8,6,3,5,1,3
2,9,1,2,2,1,1
0,1,2,0,2,2,0
9,1,36,1,3,1,7
7,6,41,2,13,5,11
2,9,7,1,3,3,2
1,5,3,2,0,1,1
1,2,6,1,1,1,2
9,1,2,1,1,10,7
11,1,22,0,2,6,12
2,10,4,2,5,1,1
1,6,1,3,3,1,1
1,2,4,3,2,1,2
8,1,1,1,0,0,4
5,4,2,2,1,2,10
1,12,48,1,0,1,1
2,4,32,1,2,1,1
1,2,17,1,2,8,1
7,0,29,2,2,10,7
13,0,11,1,2,0,9
1,12,20,1,0,1,2
3,3,1,1,1,1,0
1,2,0,1,4,4,3
1,1,3,2,1,2,4
3,0,2,2,1,0,12
6,8,1,2,4,2,1
2,23,2,2,5,2,0
0,3,2,2,2,20,1
0,2,7,2,0,17,3
8,2,76,2,1,2,11
4,16,8,1,2,1,2
2,2,15,1,7,1,0
0,0,11,5,2,1,1
1,1,2,5,0,3,6
9,0,49,2,1,1,14
8,31,4,1,0,1,2
2,10,1,1,3,1,2
1,2,8,0,2,0,1
0,1,69,8,2,5,3
5,2,23,5,1,3,12
8,10,20,1,0,1,3
6,2,9,0,1,2,2
1,2,20,0,0,0,2
1,1,2,6,1,4,1
1,2,0,8,0,2,14
14,13,1,2,1,2,2
6,4,0,2,4,2,0
2,2,0,0,2,0,2
0,1,1,3,2,1,2
1,3,29,2,2,2,8
5,10,1,1,2,4,4
2,1,2,1,1,4,2
3,2,14,1,3,3,2
3,1,5,0,1,2,0
1,1,3,5,0,10,10
2,18,2,4,1,6,6
7,11,1,2,2,0,1
2,1,5,1,1,0,2
0,2,14,1,2,1,1
0,5,1,6,2,5,8
3,7,1,8,1,2,12
12,1,14,1,1,1,1
2,0,3,1,1,1,0
1,0,11,1,2,1,0
0,2,2,1,1,4,6
5,3,0,7,2,2,8
13,6,1,4,5,2,2
2,25,5,2,1,1,0
1,2,2,2,2,0,2
2,3,0,1,1,3,4
4,13,1,1,0,2,9
13,8,4,2,0,1,1
3,2,11,2,0,0,2
1,2,7,1,1,2,2
0,2,1,1,5,14,2
4,10,8,1,1,5,10
10,3,1,4,2,0,1
3,0,6,0,1,5,0
0,0,21,1,1,0,0
2,0,4,1,2,2,2
5,9,12,1,2,2,11
9,4,2,5,1,0,3
3,3,2,1,0,2,0
2,1,2,0,0,2,2
0,2,0,1,6,4,1
1,7,17,1,2,3,11
11,14,5,7,3,1,2
5,2,11,5,3,1,2
2,3,1,3,1,0,2
1,1,6,2,6,1,2
2,4,1,0,4,5,10
13,8,5,8,1,10,2
5,8,10,6,1,1,1
0,2,1,1,0,0,1
1,2,1,1,0,1,1
1,6,0,1,4,2,9
4,9,13,2,1,4,5
7,5,6,3,3,3,1
4,2,2,1,1,1,0
2,0,2,1,0,1,2
1,2,0,0,8,9,9
11,9,3,1,2,17,9
4,12,15,5,1,5,3
1,1,5,2,0,1,0
1,2,2,2,1,1,0
2,21,1,1,3,1,5
4,11,9,0,2,2,12
8,6,8,1,3,3,2
2,2,2,1,2,3,1
1,1,1,0,3,0,1
1,15,2,0,7,5,4
1,10,4,1,6,2,15
10,1,8,2,2,3,3
3,0,3,9,0,1,0
2,0,1,2,0,0,1
1,1,8,1,1,7,5
2,4,4,2,1,3,11
11,4,2,2,2,2,3
2,2,37,5,2,2,2
2,0,4,1,1,4,2
6,1,2,1,0,2,5
2,9,2,0,2,0,14
2,3,7,2,1,5,3
3,2,4,4,0,4,2
3,1,1,4,1,2,1
1,1,5,3,2,2,1
2,10,2,1,0,0,9
5,4,17,0,2,2,3
3,1,1,1,1,4,2
0,1,1,6,2,6,0
3,0,0,1,2,3,2
2,11,1,2,0,0,11
5,10,7,1,4,2,2
11,2,7,1,1,9,2
2,0,2,7,1,3,0
1,0,1,3,2,2,3
1,26,1,1,2,0,14
6,2,1,1,2,1,2
9,6,6,0,1,4,1
2,0,3,4,0,3,1
0,2,40,10,1,0,2
1,16,3,1,3,0,10
5,1,5,1,1,2,4
9,0,6,2,4,3,1
2,0,2,3,1,2,1
0,12,2,7,1,8,2
1,7,47,1,0,1,11
1,1,3,2,2,0,4
8,2,34,2,0,3,1
9,0,4,1,2,4,1
3,2,2,4,1,0,1
2,16,58,1,0,1,10
0,3,24,2,0,0,3
5,1,14,0,1,13,1
14,2,3,0,3,8,1
3,5,1,4,1,2,0
2,9,4,4,0,1,10
2,2,15,0,2,1,4
10,1,3,1,1,1,1
6,0,2,1,3,7,0
1,2,2,3,4,1,0
1,7,1,8,1,0,7
0,5,9,2,2,2,4
5,2,4,0,0,0,1
8,1,2,0,0,8,0
2,0,1,1,1,3,0
1,4,2,6,1,4,7
2,21,14,2,0,2,7
2,5,6,0,1,0,2
10,1,1,2,3,2,1
2,0,1,2,8,1,0
1,12,1,5,4,2,4
2,6,8,3,2,3,9
4,2,6,2,0,7,4
8,0,0,0,2,1,1
1,1,2,1,1,1,1
1,11,9,5,2,6,1
0,10,1,8,1,2,10
0,3,7,1,0,3,4
9,2,3,2,1,3,0
4,1,2,1,2,1,0
0,7,1,3,1,0,0
0,17,1,6,2,1,9
2,4,8,3,0,2,6
6,1,5,2,1,13,2
9,8,2,1,1,7,0
6,15,1,2,7,3,0
1,8,1,6,2,1,8
0,2,5,3,2,1,10
1,1,10,0,2,3,1
12,1,1,2,3,4,1
8,11,0,0,3,5,1
2,3,1,3,1,0,8
2,1,5,7,0,2,8
1,1,10,1,2,0,1
5,1,2,2,0,7,2
6,21,0,1,3,11,1
3,3,1,1,4,3,2
0,0,10,3,0,1,12
0,1,5,2,3,0,1
5,0,36,2,0,6,2
8,4,2,1,1,7,1
1,18,1,0,1,2,4
2,3,2,5,0,0,13
0,2,8,9,1,1,4
2,1,3,2,1,0,1
9,18,0,1,1,0,2
3,3,1,1,6,13,4
1,2,7,3,7,4,10
0,0,9,4,2,1,5
1,2,1,1,1,0,2
10,10,1,0,0,4,0
2,6,1,0,4,0,3
2,1,23,2,1,2,9
2,1,7,7,2,1,2
2,0,2,3,0,1,0
10,11,12,1,1,0,0
2,2,1,0,2,3,2
1,1,7,1,5,1,9
2,1,17,5,2,0,4
1,1,1,5,1,4,0
8,2,18,2,4,2,0
11,6,1,2,1,3,1
1,12,32,1,2,1,5
2,2,20,2,1,1,10
1,2,9,5,1,1,3
10,26,3,2,1,2,0
2,4,3,1,1,2,2
0,2,8,1,6,1,8
1,2,3,0,6,2,10
1,0,31,9,1,1,1
9,10,11,2,1,1,1
7,5,21,1,1,1,0
2,1,13,1,1,2,8
3,1,18,0,2,3,12
1,2,1,7,1,2,1
9,9,4,4,1,1,1
12,6,16,1,1,1,1
2,2,5,1,1,1,5
2,2,1,2,8,2,7
1,0,2,5,6,2,2
8,8,3,6,3,1,0
3,29,10,3,1,0,1
2,9,1,1,1,1,3
1,1,1,2,2,8,9
1,1,0,2,1,2,5
5,1,7,4,0,1,2
9,6,20,1,0,1,1
1,8,2,1,0,0,2
0,2,2,2,1,1,6
1,0,1,1,2,5,8
5,2,1,4,6,0,3
10,12,4,3,3,2,1
6,1,2,1,3,12,0
0,0,2,0,1,3,5
2,1,2,1,2,9,12
2,1,1,0,4,3,3
11,18,4,6,2,2,1
3,4,8,2,2,0,0
1,1,1,2,3,4,6
1,1,2,2,4,3,12
1,8,1,1,10,1,0
8,19,5,3,2,3,1
3,2,15,1,0,13,0
1,1,3,0,2,3,5
1,1,2,2,2,3,9
2,2,9,1,3,5,2
13,8,4,4,0,2,2
5,3,13,6,1,1,1
3,9,4,1,0,1,0
1,2,2,1,2,2,12
2,1,12,0,3,2,3
11,5,1,3,1,1,0
7,13,14,4,1,0,2
1,1,2,2,1,1,2
2,20,2,1,1,2,11
0,10,1,1,2,1,4
7,14,13,1,3,1,1
8,2,3,3,2,1,2
1,4,5,3,0,0,2
1,1,8,2,1,1,10
1,1,3,2,2,1,3
8,5,27,1,1,2,0
12,15,3,0,2,3,2
4,2,5,8,2,9,2
2,3,6,0,2,4,8
2,5,1,1,3,2,6
0,12,5,1,1,1,1
3,2,5,5,0,0,1
4,0,3,6,0,2,0
0,2,2,2,0,0,11
1,8,0,1,3,8,7
1,12,4,0,0,4,1
10,2,11,0,0,1,2
1,0,26,7,1,1,0
2,2,15,2,0,2,7
1,4,2,1,0,11,4
0,5,4,0,2,1,2
12,10,3,1,2,1,1
3,0,1,1,1,0,2
2,0,1,3,0,1,5
1,3,8,2,2,1,10
5,16,5,1,0,0,2
9,2,2,1,1,1,2
2,1,2,3,1,1,1
1,2,6,6,2,1,4
0,2,1,3,1,1,9
0,12,2,0,1,5,2
9,6,12,1,6,3,2
8,2,3,0,3,2,0
1,0,2,7,1,2,3
1,12,0,2,1,1,10
1,9,1,2,1,17,3
2,3,8,1,3,5,0
9,2,12,1,2,2,0
1,0,7,3,4,2,2
0,4,1,6,2,0,8
1,15,4,1,0,9,4
2,2,10,0,0,1,1
9,2,16,0,4,2,2
9,1,4,1,5,1,1
2,4,1,4,1,0,9
0,23,16,1,1,7,8
0,4,3,1,1,12,2
4,0,1,2,1,2,2
12,1,0,2,3,1,1
2,9,2,5,1,1,4
2,12,8,3,1,7,10
1,3,7,2,1,2,1
10,1,1,1,4,1,2
11,1,0,0,2,8,2
2,4,2,4,2,1,5
0,7,5,6,1,1,9
1,2,10,1,1,2,2
10,1,0,1,0,12,2
3,2,2,2,1,2,2
2,3,2,1,0,1,3
1,16,7,6,1,7,11
2,3,7,2,2,1,0
10,1,1,1,1,1,2
4,1,1,0,4,2,1
1,0,11,0,1,2,4
1,12,2,6,2,7,10
1,3,5,6,0,4,4
7,2,16,1,1,2,0
1,1,2,2,2,2,0
3,2,2,1,8,1,3
1,8,3,4,1,1,12
1,4,7,3,0,2,2
4,1,1,1,1,6,1
6,2,0,1,1,1,1
2,3,2,1,1,1,3
2,3,2,2,6,2,10
1,10,5,3,2,2,2
1,5,2,2,2,1,1
12,1,0,1,2,6,0
1,2,2,1,1,2,2
0,9,0,1,5,1,10
1,8,10,6,1,1,3
4,10,4,1,0,0,0
17,1,1,1,1,1,1
3,1,1,0,0,3,2
0,24,2,2,1,1,11
2,8,11,3,2,0,2
5,1,6,4,2,8,2
10,1,11,2,2,4,1
2,0,2,0,2,1,2
1,10,9,0,1,2,11
0,11,11,3,4,2,3
5,3,8,5,11,4,1
12,1,4,2,1,6,0
1,2,0,2,1,3,2
2,11,0,1,1,1,12
1,7,6,1,2,1,3
5,2,15,2,0,1,2
9,1,3,2,2,6,1
2,2,1,1,1,3,0
0,10,4,1,8,3,7
2,6,8,0,2,5,3
3,1,14,3,1,1,0
8,1,7,4,2,4,1
2,1,2,1,0,3,2
2,12,1,2,4,3,9
1,2,10,1,4,1,6
2,1,1,2,2,0,0
6,0,2,7,2,3,1
4,4,2,2,0,1,1
0,9,2,1,1,1,2
2,9,8,1,1,16,7
0,2,2,0,1,3,2
4,1,2,4,0,2,1
14,2,4,3,2,1,0
2,8,13,1,2,6,1
1,7,8,2,5,0,12
0,3,3,1,4,0,4
4,1,1,4,1,1,2
12,1,2,2,1,3,2
1,6,2,2,2,2,3
1,4,7,1,1,0,8
0,17,5,1,3,5,4
4,3,2,2,2,7,1
12,1,1,4,2,4,0
2,8,2,1,1,0,1
1,18,1,2,3,0,6
3,4,16,1,0,0,7
2,1,3,0,2,1,2
9,0,1,7,0,6,2
2,2,2,5,5,2,0
2,11,6,2,2,1,5
1,6,9,1,1,0,10
0,1,3,1,3,3,2
11,0,1,2,2,2,0
5,2,0,4,2,2,1
1,12,0,1,2,1,4
1,7,8,2,0,5,12
0,2,5,1,5,1,4
8,0,2,1,1,0,0
10,0,4,6,2,1,0
1,16,1,1,1,14,5
0,8,10,2,3,2,14
1,2,3,1,1,3,3
9,2,3,3,1,2,0
5,1,1,5,9,5,0
2,2,1,3,2,2,4
0,15,3,2,1,4,11
0,1,8,1,1,1,2
10,1,1,0,3,2,0
6,7,2,0,3,2,2
2,11,2,5,0,9,4
1,2,5,0,1,2,11
1,1,8,2,2,0,4
5,0,3,2,1,7,1
8,2,1,1,7,2,0
0,16,2,4,2,1,4
2,1,2,4,0,1,13
3,2,6,0,1,8,3
2,1,1,1,6,2,0
11,2,0,2,4,1,0
3,15,0,4,2,2,3
2,2,6,4,1,2,9
1,1,9,2,1,1,5
2,0,7,1,0,1,2
11,7,6,2,1,0,2
6,8,7,2,4,7,1
1,3,1,5,15,9,8
0,2,6,1,3,2,6
1,3,8,0,1,1,1
9,0,2,1,7,9,0
2,10,2,1,2,1,1
1,8,0,2,0,2,4
0,2,2,1,2,3,9
4,2,11,1,0,2,2
10,1,4,1,2,0,0
3,10,2,1,1,0,0
2,3,1,6,2,2,3
1,1,2,5,0,4,10
2,0,7,1,1,2,2
9,2,4,1,19,4,0
6,2,1,2,7,2,1
2,17,0,4,2,4,3
2,2,1,5,2,16,8
1,1,6,2,0,1,4
5,0,11,0,3,1,0
10,5,2,1,2,10,1
2,19,1,2,0,1,2
2,1,0,4,1,3,11
0,1,9,1,0,1,3
4,2,22,1,2,0,1
9,7,5,1,5,0,2
1,15,1,0,1,1,1
1,1,0,7,1,1,11
2,0,6,4,1,8,3
2,2,7,1,1,3,1
9,12,1,0,1,3,1
7,6,1,1,0,9,2
3,2,0,2,2,5,10
2,15,3,4,1,1,8
1,9,15,1,6,2,1
6,1,1,1,2,1,0
5,1,0,2,2,0,0
1,24,3,3,0,6,11
1,13,4,6,1,11,4
0,4,11,1,2,2,1
6,87,2,1,2,0,1
11,21,0,1,4,0,1
3,31,2,1,2,3,9
2,3,8,4,1,13,8
1,96,10,6,3,1,3
6,6,1,2,0,1,0
8,2,0,0,6,0,0
3,9,1,2,1,1,8
1,9,1,4,1,11,10
1,23,6,5,0,1,2
2,18,5,2,2,0,2
9,68,3,2,0,0,2
5,3,2,1,0,3,6
0,28,0,1,2,3,9
1,32,5,6,2,2,2
1,41,6,4,1,1,1
10,49,1,1,0,0,1
4,7,1,1,1,2,1
1,3,1,1,1,8,10
0,37,9,6,2,5,5
1,41,11,6,0,3,1
7,10,3,1,1,0,2
8,29,1,0,2,10,4
2,8,1,2,1,6,10
2,31,12,7,1,6,2
1,197,6,2,2,12,1
1,9,2,1,2,2,2
10,231,1,0,9,0,2
3,10,1,1,2,2,8
0,38,7,2,1,1,2
2,1,9,7,1,2,2
4,150,3,4,2,0,0
7,68,2,2,4,0,2
4,25,1,1,6,12,6
2,113,13,1,1,6,5
1,33,2,5,1,1,2
0,7,2,5,1,0,2
11,2,2,2,3,8,2
6,58,1,0,2,4,8
3,194,3,1,3,2,11
1,9,10,3,2,3,3
0,1,3,6,0,24,1
9,120,1,2,1,7,0
4,38,1,2,1,30,5
1,259,2,1,1,4,11
2,77,17,2,8,2,3
0,4,1,6,2,1,2
7,132,2,2,3,1,1
10,35,0,1,1,3,4
1,118,4,1,3,4,10
0,59,9,2,1,0,1
1,77,3,7,3,1,1
7,24,2,6,2,0,0
6,16,0,1,3,1,2
2,207,2,1,4,4,8
1,7,9,1,2,26,3
0,79,11,5,0,3,1
3,64,1,6,0,0,1
10,177,1,0,1,1,2
1,4,3,1,1,25,6
2,246,12,1,1,3,4
0,11,5,1,2,1,2
8,67,1,7,9,0,0
9,68,2,2,1,1,1
3,6,1,0,5,10,9
1,129,6,1,18,2,7
1,37,9,1,1,2,2
1,92,2,5,1,2,1
9,7,1,3,2,0,1
7,45,1,1,3,17,7
0,180,10,1,3,84,10
0,83,20,0,1,9,3
2,26,2,2,2,13,0
8,97,2,4,2,8,0
10,49,95,0,6,25,2
2,4,58,2,3,2,10
0,1,88,0,1,2,1
1,164,9,2,0,6,2
6,90,99,8,1,41,1
3,16,120,5,2,22,3
2,5,79,0,12,6,9
1,22,6,1,4,0,3
2,32,88,1,5,1,1
9,327,226,4,2,7,2
9,59,26,3,2,73,3
2,10,22,1,6,18,10
2,27,224,1,1,6,3
2,37,10,0,2,8,1
2,18,6,2,2,124,1
8,25,11,9,0,22,4
5,106,5,1,2,26,10
2,231,115,1,1,2,4
1,12,137,0,1,31,1
0,23,5,1,2,30,0
6,9,2,1,9,2,3
9,33,122,1,5,25,7
2,23,57,2,2,67,3
1,97,7,0,25,8,1
1,21,123,0,3,56,2
3,144,220,5,5,20,3
13,22,85,5,1,15,11
2,90,5,1,5,15,6
0,6,13,1,2,10,0
1,65,148,2,1,11,1
6,57,95,2,0,9,0
7,84,8,7,0,91,7
4,5,111,2,8,27,8
2,22,9,1,4,30,2
0,19,55,0,12,52,2
1,22,158,0,2,4,0
8,128,84,6,2,20,3
4,14,48,3,4,37,9
2,39,2,0,16,9,1
0,166,161,1,6,26,1
0,175,153,1,2,71,1
7,14,152,2,0,5,2
7,3,26,3,1,100,10
2,83,22,1,0,21,3
1,112,163,0,4,101,1
1,41,164,1,31,5,0
2,142,53,1,3,1,1
13,5,31,7,5,28,10
6,12,15,1,1,15,3
1,124,15,0,0,71,2
1,8,27,2,17,31,0
0,98,112,0,27,47,1
10,34,263,5,4,116,11
2,3,7,2,10,65,3
2,1,6,0,1,22,1
0,137,114,2,8,4,0
5,8,133,0,4,67,3
4,21,236,7,9,4,11
3,77,17,6,8,71,3
1,5,168,1,5,277,1
1,303,28,2,3,10,1
0,38,52,0,2,77,3
10,13,75,6,1,35,12
5,25,17,6,2,106,4
1,189,3,1,6,18,2
1,11,39,0,6,57,1
2,60,136,1,19,29,1
5,6,18,11,9,4,6
7,54,149,10,19,97,5
1,27,6,1,2,43,1
0,18,110,1,2,18,1
2,30,7,1,1,89,0
1,2,16,9,0,16,7
7,25,8,15,95,58,9
3,3,12,27,17,54,1
2,1,254,5,4,3,0
1,87,73,1,18,3,0
4,44,6,3,23,177,4
10,99,22,3,4,22,14
3,115,61,1,2,70,2
1,77,224,1,1,9,1
2,58,34,1,13,50,1
4,13,35,4,2,15,4
12,1,22,11,3,31,12
4,108,111,1,14,38,1
1,8,170,2,23,41,1
0,127,54,1,4,8,0
5,4,14,28,31,22,5
18,35,116,71,64,158,13
7,216,183,25,5,13,1
1,8,7,2,16,41,1
0,9,107,230,35,42,1
2,1,236,48,2,162,4
5,183,26,2,1,7,10
12,78,1,61,5,2,1
2,21,30,19,15,26,0
0,36,189,10,12,107,1
20,53,33,198,12,76,5
4,5,41,29,4,80,12
2,1,112,1,7,47,2
2,48,66,89,7,92,0
8,66,31,102,10,54,1
2,221,23,2,3,3,3
8,9,3,191,11,37,10
2,1,144,31,12,35,1
53,45,116,162,16,76,1
3,77,78,4,24,127,1
1,6,11,57,3,83,2
44,23,195,141,1,6,8
73,36,17,123,21,2,3
5,81,42,4,16,179,2
3,22,63,88,3,126,2
0,21,98,179,11,21,1
97,1,39,21,2,31,10
29,166,4,35,59,4,3
5,16,1,232,4,6,0
3,128,35,69,1,69,0
19,8,143,5,16,72,2
4,19,128,305,13,74,8
18,110,4,34,7,39,7
4,18,25,3,2,56,2
1,30,42,109,19,17,1
4,14,2,29,7,4,0
1,55,23,233,31,176,10
0,54,166,19,10,15,8
23,5,7,1,4,373,1
31,77,96,5,8,27,0
78,15,17,3,4,36,1
9,21,4,208,3,11,7
80,22,2,12,1,49,9
25,29,149,103,5,19,2
5,80,25,111,0,111,2
62,8,1,79,2,163,0
34,40,61,128,13,26,5
3,29,19,20,21,5,10
0,60,28,2,7,35,1
53,44,2,274,6,6,2
17,4,71,30,6,259,0
6,283,200,0,13,14,4
3,145,6,184,3,209,10
4,5,1,84,1,31,2
0,81,1,5,58,24,2
0,58,39,2,43,66,2
96,69,326,35,17,37,2
32,15,17,141,11,5,9
9,31,3,8,3,155,4
21,98,1,2,2,63,0
92,7,80,2,2,13,1
7,32,187,1,18,0,2
43,5,30,387,8,56,9
58,24,4,47,10,176,5
25,5,47,4,33,104,0
9,4,141,30,5,34,1
3,85,14,50,16,1,0
0,18,1,137,3,6,3
172,3,100,11,15,22,9
92,58,44,93,17,1,2
7,35,5,21,1,140,1
2,3,156,10,7,124,1
1,119,25,55,9,140,5
1,107,70,49,23,5,12
0,4,22,3,13,2,1
3,23,48,167,14,61,1
2,41,67,13,21,7,1
81,71,31,44,10,131,5
18,63,25,226,8,179,12
3,27,75,68,16,13,1
2,15,211,5,9,9,2
8,10,88,42,16,144,0
64,6,5,190,1,43,4
4,56,1,8,18,69,7
6,8,65,4,22,5,4
74,9,59,87,2,246,2
7,4,76,63,1,23,1
78,59,44,155,20,60,0
60,31,44,29,8,102,9
5,130,3,19,2,16,6
70,19,12,13,24,5,0
17,13,10,71,32,6,1
61,17,5,9,27,140,1
6,44,24,129,13,23,6
2,55,461,70,8,25,9
114,58,31,20,13,125,2
108,4,3,71,2,55,0
65,55,53,69,34,52,2
13,36,16,6,25,63,3
2,3,71,234,5,19,8
2,1,21,36,5,55,5
4,2,4,3,12,68,1
47,9,192,94,7,83,1
38,21,23,49,27,143,0
15,96,4,18,4,21,10
2,9,5,28,5,3,3
39,2,20,13,7,1,1
14,5,252,40,2,7,1
153,1,11,5,12,86,0
31,25,3,1,5,120,9
24,11,31,162,36,5,9
16,170,37,45,14,115,3
10,10,55,34,1,23,1
6,96,62,43,9,24,0
15,10,7,3,11,39,5
130,45,3,232,18,11,9
8,40,121,34,4,18,2
1,58,48,6,6,122,1
28,84,10,23,20,52,1
13,91,59,1,16,14,5
1,10,4,278,27,6,9
13,3,148,22,4,112,5
54,136,63,2,5,77,2
112,37,5,1,26,51,0
28,37,1,11,16,239,0
38,7,2,128,8,12,10
6,16,66,51,7,99,5
3,67,9,6,37,111,3
18,28,12,11,13,107,1
17,2,117,33,10,8,0
12,1,10,62,6,2,10
150,72,25,144,2,56,5
5,50,1,7,4,21,2
1,22,71,1,18,13,0
10,43,30,31,25,50,0
98,5,48,89,3,121,9
18,112,55,74,10,286,5
11,22,29,8,22,19,0
17,3,22,2,6,1,1
34,109,64,0,2,185,1
11,24,51,260,29,60,5
40,78,5,31,5,109,9
5,23,29,5,6,94,3
3,9,22,5,2,92,0
90,26,11,2,14,6,1
46,36,9,317,24,13,1
28,15,13,16,16,219,11
104,96,17,1,10,234,4
5,6,127,132,3,9,1
17,41,166,127,9,2,1
49,29,37,25,8,0,2
22,61,8,2,7,1,10
8,3,13,196,4,132,4
7,42,15,46,6,136,2
143,34,27,6,4,75,0
39,3,57,3,65,7,4
18,137,73,139,25,53,13
68,17,16,114,6,43,3
41,40,1,6,7,19,0
2,105,18,135,8,74,2
9,15,64,8,2,390,2
39,91,15,46,29,16,12
15,7,5,145,3,3,3
6,63,10,36,6,1,0
20,18,27,2,2,1,2
4,1,76,162,17,32,3
144,56,4,66,13,10,9
15,4,1,9,2,6,5
2,56,20,34,9,113,3
0,50,144,60,14,52,1
1,10,13,20,12,15,1
111,104,7,61,28,19,8
22,4,13,26,7,26,10
16,134,9,4,0,167,2
2,17,8,7,3,8,0
0,1,71,13,12,126,1
88,80,113,0,16,97,9
37,23,5,64,4,9,6
31,84,8,145,3,10,2
88,37,9,4,1,174,1
10,3,16,2,44,22,1
61,80,76,26,21,49,2
7,31,42,112,26,28,7
3,1,197,47,4,114,3
8,13,9,68,5,20,0
50,75,1,113,2,175,1
22,9,1,5,21,10,3
58,24,5,27,16,2,12
110,25,18,33,9,1,4
4,184,13,3,4,7,2
2,126,89,37,9,4,1
58,30,106,143,7,119,1
32,14,6,18,2,264,9
75,79,7,22,11,12,1
11,43,15,2,6,2,1
12,5,17,135,4,47,1
23,15,94,24,1,255,2
26,23,211,383,0,41,8
10,17,7,67,9,25,9
15,59,30,92,40,101,2
56,141,30,101,6,2,0
13,7,31,25,5,12,1
70,2,19,123,11,146,6
14,51,54,8,10,11,9
4,2,26,1,3,69,2
2,3,3,29,3,6,1
59,63,9,6,1,40,1
122,82,50,192,34,45,1
5,25,40,41,2,7,8
15,2,18,6,24,16,4
15,137,39,60,18,138,0
21,17,4,111,5,6,1
41,6,2,20,5,64,1
14,11,33,27,5,7,10
18,33,9,42,4,22,8
2,43,36,21,14,138,1
4,78,26,137,22,16,1
33,8,18,10,2,3,1
35,17,40,145,0,289,8
9,53,7,6,31,105,8
49,49,18,49,17,21,0
6,84,18,23,8,5,1
6,10,5,38,20,107,2
1,3,37,90,27,17,5
11,36,53,11,6,74,12
44,23,141,68,12,6,3
10,29,6,40,25,16,0
29,11,0,54,19,37,0
1,34,7,79,3,7,5
110,10,39,98,6,7,11
45,9,12,29,1,212,2
5,2,43,2,12,46,0
2,0,110,156,43,5,0
81,56,9,233,60,38,5
62,70,28,9,5,9,12
3,38,34,1,6,74,3
231,69,4,76,2,55,1
47,7,7,125,1,7,0
5,18,34,16,0,203,4
14,20,58,1,71,9,8
2,63,18,95,28,3,2
16,46,2,33,4,103,1
63,41,2,33,1,139,1
32,6,2,69,61,6,1
5,53,63,97,15,29,9
68,52,8,25,6,3,4
6,6,48,112,17,47,1
7,2,10,46,2,235,0
29,8,44,216,2,22,1
36,12,68,18,83,2,7
53,30,5,85,25,78,8
41,5,9,20,5,119,1
40,12,26,114,8,41,2
7,44,166,22,4,89,1
17,10,6,117,2,12,3
123,8,60,23,11,56,10
24,2,9,38,27,7,2
3,66,49,8,16,1,2
19,36,16,1,16,50,0
8,64,4,40,2,73,5
4,4,70,9,2,28,11
38,80,97,83,32,21,4
44,24,13,22,18,110,1
3,142,43,5,3,54,2
32,52,11,65,31,5,0
2,31,26,70,11,3,10
12,81,36,17,47,162,2
17,4,19,9,14,86,2
88,53,29,108,2,44,0
8,41,13,14,6,2,2
29,64,21,92,15,74,7
2,5,8,8,15,13,3
1,21,2,4,4,2,2
144,12,1,45,5,8,0
71,69,117,273,5,176,1
8,17,17,25,0,25,9
0,49,169,1,5,22,6
67,39,14,116,3,17,1
47,49,2,45,3,92,1
36,6,2,28,29,60,1
72,123,14,80,10,8,3
7,59,178,17,10,3,4
2,16,26,14,4,1,1
110,33,42,111,0,172,2
29,76,25,22,2,83,1
1,17,30,74,1,13,1
3,24,2,31,7,2,8
7,34,9,89,3,4,3
2,77,45,6,2,79,2
6,22,41,52,2,113,1
34,14,5,28,2,27,2
2,64,80,64,13,7,8
25,41,19,157,9,1,5
70,3,15,75,45,57,0
4,157,83,15,26,115,1
118,24,10,5,8,5,2
51,19,35,1,4,68,7
5,3,17,40,5,41,9
2,4,132,119,3,42,3
1,13,5,69,17,29,2
25,70,113,29,31,30,1
9,10,20,32,32,15,1
137,38,23,11,4,38,11
12,13,43,56,8,7,2
1,89,23,97,9,10,1
4,31,4,6,4,105,1
0,2,154,17,27,6,3
48,116,7,131,32,66,10
53,29,26,15,3,67,1
6,68,25,6,3,292,1
4,28,44,6,1,85,1
2,4,171,24,3,9,4
89,10,16,47,1,2,11
90,2,18,9,2,0,0
9,44,2,41,6,2,2
15,4,89,5,12,56,0
61,26,68,1,5,90,2
25,24,4,106,2,6,11
9,30,1,70,0,2,2
16,19,4,7,21,4,1
5,66,16,5,11,2,1
31,16,133,23,5,62,2
5,61,6,33,10,302,9
3,10,83,136,2,12,3
107,42,7,19,2,91,1
15,77,28,26,55,18,1
3,11,31,7,13,42,1
94,3,2,13,2,6,7
40,4,47,3,0,9,4
19,97,117,2,24,173,2
5,14,16,114,31,193,1
1,6,26,26,4,8,0
40,58,11,4,2,2,3
57,38,15,1,13,48,4
13,43,17,10,31,185,2
12,3,10,83,31,39,1
5,4,35,46,3,4,2
2,104,26,4,9,1,3
54,10,56,6,9,91,10
11,5,3,17,14,24,1
2,1,83,136,2,220,1
88,127,8,7,26,12,0
34,15,3,6,4,2,1
4,36,20,52,13,57,8
23,99,36,38,13,21,5
45,72,29,57,1,81,1
3,42,6,3,0,6,2
82,73,10,64,5,4,2
22,14,120,23,6,346,10
19,62,10,1,6,38,6
1,14,3,2,3,4,2
21,13,60,107,9,23,1
55,61,63,65,7,29,1
3,12,7,4,2,133,7
2,6,40,42,14,6,7
33,47,3,12,7,2,1
4,60,1,59,1,50,0
12,21,13,130,2,10,1
78,2,13,30,4,120,5
35,26,53,23,15,11,8
6,28,82,7,4,5,2
3,6,5,119,2,9,2
1,99,19,11,27,85,0
61,28,91,5,38,22,1
68,29,69,2,41,14,5
10,24,45,79,9,4,3
3,4,3,28,1,156,0
1,46,1,107,1,11,2
65,62,8,8,10,35,2
36,5,22,161,5,28,9
18,74,33,183,30,5,6
5,19,114,38,2,2,1
110,2,6,53,4,2,1
11,90,9,17,1,5,0
11,15,8,43,13,101,3
10,4,14,9,19,204,11
25,56,12,4,6,42,2
2,11,9,11,15,3,0
24,54,32,105,19,8,2
7,27,19,28,0,2,5
188,4,74,6,1,2,9
16,48,5,90,0,7,1
65,105,41,24,28,51,0
10,6,27,2,9,138,0
2,2,74,68,3,15,3
142,2,125,362,2,62,6
42,115,11,15,9,11,4
4,5,2,1,10,17,1
6,135,40,4,2,175,2
87,70,55,42,1,23,2
7,14,4,41,24,9,9
29,55,29,161,9,19,8
11,6,77,25,4,3,3
11,1,142,7,21,108,0
3,24,5,123,3,110,1
33,2,53,21,53,4,8
37,32,8,80,11,140,10
3,38,35,57,4,46,2
1,124,80,18,1,35,1
14,104,21,17,37,3,1
19,28,7,82,20,10,4
6,57,40,17,18,27,11
16,4,16,46,3,122,1
37,28,40,9,1,14,0
4,42,95,112,1,27,1
81,9,14,9,13,6,6
45,118,13,2,34,3,12
27,9,72,120,15,14,3
2,70,13,4,2,327,1
22,4,68,77,4,60,1
36,80,7,10,18,4,5
5,8,2,156,8,2,7
1,15,18,10,4,9,2
128,32,187,71,1,70,1
6,13,11,23,13,4,1
31,8,78,55,0,90,3
2,3,4,43,16,112,10
1,22,49,4,10,28,5
60,3,2,52,8,2,0
53,64,22,86,3,2,1
30,125,45,7,1,48,2
4,86,39,33,0,17,8
1,11,11,24,2,28,5
1,88,19,138,15,24,2
87,70,30,10,18,163,1
47,25,9,6,16,11,1
103,7,134,47,3,1,7
26,1,3,2,2,1,8
30,20,22,152,16,1,1
4,50,2,177,5,18,1
9,14,13,42,48,3,1
60,2,211,111,6,166,4
13,5,8,40,2,90,8
25,54,78,4,4,28,2
25,32,86,40,1,3,1
5,2,14,98,22,102,1
0,39,9,73,3,15,0
1,39,61,16,1,2,9
144,2,22,72,37,16,5
15,27,8,18,44,1,1
4,53,39,6,5,7,1
70,7,106,33,2,6,2
20,9,58,30,2,47,7
3,2,8,44,25,2,5
43,194,2,138,5,45,0
21,14,81,29,1,189,0
36,14,49,15,3,11,1
13,10,3,57,6,22,5
1,41,2,21,7,14,9
4,4,40,9,10,45,5
61,1,36,44,2,6,2
8,46,27,17,45,56,2
2,20,19,22,30,4,2
28,9,49,2,5,14,11
2,14,51,71,1,384,3
78,0,5,8,32,37,2
9,136,55,46,4,4,0
126,13,44,17,1,2,1
94,3,10,137,12,1,8
32,0,29,6,37,0,3
2,72,43,178,3,59,1
17,57,28,92,2,16,1
10,3,3,15,1,30,2
2,76,6,1,46,19,8
9,61,115,3,13,1,11
3,5,19,17,1,2,2
2,32,12,161,11,2,0
25,1,9,7,4,5,0
2,10,11,2,9,3,5
36,14,24,39,3,220,4
17,12,19,39,15,28,1
69,21,11,27,15,18,1
8,9,20,5,2,48,2
45,33,27,171,20,4,2
3,19,49,21,2,2,8
35,4,49,7,3,1,3
105,11,21,7,8,2,1
35,27,47,1,8,3,2
6,58,22,10,17,21,2
2,39,25,111,4,10,8
59,13,6,16,2,38,5
44,11,2,107,5,28,0
7,11,2,12,51,3,1
134,3,139,25,4,4,2
18,16,41,2,20,0,8
6,32,4,140,3,73,10
131,52,7,35,2,31,1
9,30,31,7,11,9,1
7,37,64,1,3,31,1
6,1,6,0,36,4,5
16,28,18,38,11,3,9
81,45,33,37,2,0,3
7,5,68,35,10,0,2
91,44,9,23,2,20,0
48,69,5,7,0,33,3
3,7,1,2,0,24,13
9,23,12,1,45,4,3
28,22,177,63,4,1,1
40,30,28,99,17,14,1
18,9,6,18,5,15,2
53,18,1,33,1,2,6
7,40,2,4,0,1,1
100,39,47,15,5,2,1
18,3,57,75,1,1,1
125,0,105,15,1,18,2
14,113,5,4,9,5,10
17,56,2,3,27,1,3
98,178,5,200,19,6,0
6,6,51,13,5,3,0
85,7,47,8,2,17,1
6,1,29,7,5,9,8
1,15,27,2,4,1,3
80,58,4,7,1,3,0
7,31,24,6,5,2,2
51,3,22,203,18,1,1
99,10,14,8,8,1,8
8,19,7,11,4,2,8
3,16,8,2,2,9,1
2,5,105,44,27,15,1
11,2,31,41,6,3,0
2,5,25,86,22,0,2
59,18,2,91,9,1,7
98,12,12,93,2,0,4
7,1,113,8,6,3,0
66,33,14,7,5,0,0
57,6,121,5,1,1,1
64,16,63,119,9,10,8
17,52,77,12,1,1,6
4,76,25,1,26,1,1
154,9,42,53,5,4,1
8,2,20,11,24,20,0
1,8,11,65,4,3,6
2,1,52,5,29,2,11
28,15,91,2,12,2,2
35,23,8,1,1,1,1
9,22,129,126,2,3,1
39,2,28,29,2,2,9
5,54,154,3,0,1,5
9,57,10,1,22,2,2
1,6,16,2,18,6,0
43,3,53,0,9,9,1
77,2,21,62,5,2,3
5,1,115,61,5,13,9
161,16,65,15,13,14,2
9,17,13,18,2,3,0
14,7,91,25,4,1,1
78,10,144,62,46,0,1
21,2,22,4,2,0,8
2,19,1,2,16,0,9
0,27,1,2,7,29,1
129,18,3,53,1,16,1
49,3,66,14,3,2,0
6,11,45,6,1,2,10
27,5,90,30,18,9,6
1,2,55,8,4,3,1
0,2,5,16,2,1,1
49,62,61,33,13,0,1
61,4,4,3,1,2,8
58,23,22,104,46,28,11
23,5,34,128,3,11,1
140,2,18,14,3,1,1
6,0,27,3,42,2,1
3,7,8,8,8,15,7
1,10,3,25,4,6,8
58,5,43,9,11,1,3
27,5,13,33,3,2,0
10,0,61,29,2,0,1
20,5,26,23,1,1,6
5,2,27,56,31,8,16
2,2,4,36,6,47,2
82,2,11,13,18,16,1
78,1,4,3,2,2,0
16,40,132,1,13,0,4
31,17,23,9,18,18,10
16,2,2,8,12,3,2
1,1,1,30,17,1,2
54,1,20,15,8,2,0
135,17,48,2,11,1,1
21,9,3,6,5,0,9
2,1,5,8,4,8,3
1,1,7,100,8,11,0
0,0,54,8,5,1,1
93,13,44,9,6,23,0
8,8,3,3,1,29,9
6,2,2,22,29,3,6
1,0,2,11,17,0,2
21,2,9,16,1,0,0
24,14,7,7,1,48,2
9,4,27,14,2,12,8
94,1,22,31,2,1,7
6,2,4,9,22,1,2
184,0,3,4,12,2,1
34,11,6,5,3,5,1
2,3,3,12,2,5,4
1,0,1,3,3,6,11
198,1,2,4,2,3,2
11,1,27,18,4,2,0
17,8,16,32,8,3,0
17,6,53,37,3,4,2
5,2,6,17,16,2,10
9,1,61,1,5,7,1
3,2,4,2,5,28,1
0,5,11,3,2,3,0
1,16,1,0,7,2,5
197,1,2,29,5,1,11
37,1,1,2,32,1,1
56,0,15,45,24,18,2
3,4,4,13,7,7,1
9,8,1,1,5,3,3
19,2,1,1,2,0,11
28,1,4,1,3,0,1
11,1,11,11,2,2,3
7,5,4,6,19,18,0
2,15,2,3,11,3,1
2,3,1,2,3,1,8
102,1,1,1,2,1,9
50,0,2,2,1,2,2
41,4,9,12,19,1,2
28,17,3,4,24,11,0
5,3,0,1,30,4,9
67,1,0,1,7,2,8
14,2,6,6,9,14,2
65,5,13,15,21,1,1
7,18,1,10,2,0,0
9,4,60,2,0,1,8
59,1,4,2,24,1,12
54,1,2,3,5,9,1
10,3,6,18,1,6,2
2,12,36,12,2,1,2
5,2,5,2,5,2,8
2,2,1,0,6,0,11
53,1,4,1,4,1,3
20,4,5,4,10,15,1
71,9,1,1,2,34,2
77,3,1,35,36,8,5
10,2,2,63,2,3,11
1,1,2,4,2,2,1
10,1,3,7,20,2,1
1,16,2,66,22,7,1
1,7,2,9,5,2,9
9,0,1,1,3,1,12
23,1,1,2,1,6,1
143,1,30,13,3,2,1
22,7,12,4,4,2,2
11,3,9,0,2,10,6
2,2,2,51,15,5,9
28,0,0,98,1,16,3
25,0,0,37,16,2,3
12,30,70,3,14,2,1
6,8,4,98,3,0,4
2,2,88,22,15,1,11
1,1,61,31,3,18,2
43,2,10,44,17,4,1
5,2,15,2,7,2,1
1,11,24,16,1,1,2
7,4,14,55,1,0,12
61,0,24,4,11,5,2
16,1,5,3,1,1,0
36,6,91,29,1,9,2
27,16,14,11,43,5,2
6,3,2,4,22,1,11
15,1,1,8,26,15,2
2,1,2,5,7,2,2
0,6,2,9,2,2,0
1,18,3,6,0,5,1
9,4,1,13,47,1,11
7,1,7,64,18,1,3
1,1,9,6,8,1,2
2,6,8,39,14,1,1
2,10,63,6,2,1,3
8,0,51,2,3,25,10
11,1,5,0,2,11,1
5,1,1,1,14,1,2
1,4,1,2,29,1,1
1,15,1,1,3,2,2
86,2,1,10,0,0,11
52,2,0,3,1,1,4
16,0,0,3,24,1,1
2,5,1,15,10,8,0
4,15,0,6,2,29,1
4,3,1,1,2,3,11
1,2,1,1,1,1,3
5,0,2,0,25,13,1
4,5,4,12,17,5,1
6,9,1,11,16,1,0
3,2,1,16,2,1,10
36,2,5,2,2,1,4
4,1,7,66,12,1,2
4,2,1,12,22,8,2
0,13,0,19,29,10,1
11,5,11,35,13,10,9
6,2,12,4,3,5,3
8,2,2,42,2,9,1
2,1,54,41,2,2,1
2,13,65,25,0,1,0
13,4,59,4,1,1,7
5,2,48,2,1,0,6
1,1,5,16,3,7,1
1,0,3,102,5,3,1
0,20,1,10,25,1,2
16,12,0,1,5,0,6
16,2,64,81,3,5,11
2,0,5,5,2,58,1
2,8,5,6,19,9,0
1,14,14,1,18,4,0
18,2,18,11,2,2,6
5,0,1,11,1,1,13
1,1,2,9,0,0,2
0,5,0,2,0,0,2
0,6,13,1,23,17,1
8,1,5,11,17,9,2
5,1,1,3,1,1,7
1,0,2,2,3,0,3
1,1,2,0,1,0,1
2,10,10,2,8,4,1
5,4,2,9,5,1,1
16,3,2,3,2,4,9
2,2,16,3,0,3,5
1,0,1,4,18,2,1
1,15,8,1,8,1,2
9,10,2,10,2,1,1
14,2,0,2,6,7,8
3,2,1,1,73,8,9
2,4,2,0,22,1,2
1,16,9,2,2,0,2
11,1,3,2,1,1,2
10,1,1,2,7,8,4
2,2,1,6,10,1,11
27,3,0,8,3,8,2
15,11,10,13,11,1,2
26,2,3,2,41,2,1
58,1,3,2,37,0,3
76,0,0,2,11,1,14
7,5,2,1,1,2,4
106,11,2,1,5,1,2
10,3,3,10,6,4,1
2,2,2,4,22,11,5
90,2,1,1,4,8,10
259,6,1,2,6,5,3
42,15,5,1,32,1,2
5,3,27,2,5,1,0
78,0,5,9,3,1,5
26,2,3,1,2,1,10
2,3,1,0,13,1,2
1,10,1,1,44,0,2
36,5,6,2,4,9,1
37,0,3,9,2,3,3
18,1,0,3,0,14,11
5,2,0,0,18,41,1
32,11,5,2,5,4,1
40,2,8,2,1,0,2
16,0,3,1,1,0,6
5,0,5,3,3,0,12
29,4,2,1,8,6,4
61,9,0,1,8,17,2
46,4,16,2,7,2,1
90,1,1,4,2,6,4
7,2,12,9,3,2,12
5,1,2,2,12,1,1
133,13,2,2,9,2,2
80,2,6,2,29,1,2
6,2,25,0,5,0,1
8,1,2,5,14,14,9
1,1,1,2,4,42,2
22,7,1,0,6,5,1
102,5,21,0,16,3,2
12,2,15,1,5,2,0
12,1,1,4,3,2,11
191,1,1,1,5,1,4
10,10,8,1,3,0,1
73,4,10,2,30,1,1
10,2,1,2,4,0,2
1,1,3,4,4,2,12
8,1,2,9,2,5,3
13,3,2,2,1,3,1
24,9,8,2,2,1,1
19,3,2,2,14,2,1
29,2,2,4,3,6,10
11,1,2,7,0,2,4
25,3,1,2,0,0,2
6,11,14,1,11,13,0
5,3,4,0,2,1,1
2,1,1,2,2,9,9
1,2,1,5,28,28,10
2,2,3,2,18,9,1
14,9,10,2,2,1,0
20,2,3,2,1,2,1
52,2,0,1,16,1,10
13,0,0,3,6,1,4
4,1,2,3,5,1,2
4,9,15,1,12,8,1
1,7,4,2,8,2,0
12,3,1,0,3,0,9
0,1,1,3,14,0,6
30,0,5,8,38,6,0
11,7,5,2,11,2,1
7,14,3,0,1,13,0
2,2,16,1,2,5,7
3,1,2,1,10,2,9
2,1,1,6,19,2,2
14,3,17,7,5,1,1
4,9,21,3,6,2,2
2,3,15,1,1,11,2
2,1,25,1,14,17,10
1,2,1,0,5,2,3
2,10,0,1,1,3,1
1,8,1,3,1,1,1
11,2,1,1,4,0,3
7,1,51,1,6,0,11
6,1,60,1,10,10,2
6,3,43,8,1,2,2
8,29,3,2,1,0,0
21,2,1,2,0,1,2
8,3,46,1,2,1,9
6,2,4,1,8,4,2
2,15,1,6,2,12,2
0,7,1,4,6,3,0
0,1,1,1,8,9,1
0,1,1,1,2,14,8
10,0,11,0,0,3,9
10,2,9,1,0,0,1
1,14,4,4,7,1,3
1,4,33,1,2,1,0
2,0,5,1,1,33,6
3,1,2,0,2,14,11
5,2,1,2,13,1,1
2,9,10,5,1,4,1
2,2,1,1,5,2,1
0,1,2,1,2,1,9
10,1,5,2,2,1,11
5,0,1,1,3,1,3
1,9,34,2,8,1,2
1,7,53,6,1,5,2
0,1,67,5,0,1,6
3,1,4,1,1,1,10
4,1,1,1,1,0,1
5,6,18,2,0,0,0
2,11,29,4,1,3,1
1,1,2,1,2,2,6
2,2,1,1,6,1,12
6,0,1,2,3,13,1
1,6,1,1,1,3,0
1,12,2,5,11,2,0
2,2,4,3,1,26,8
1,1,1,1,2,4,11
14,1,2,1,2,10,2
6,7,2,2,1,2,1
2,10,15,7,1,2,1
2,1,4,4,1,2,7
2,2,1,2,1,11,7
9,0,31,0,3,2,2
7,12,20,1,2,0,2
1,5,1,3,2,26,2
2,1,2,4,1,1,5
0,0,1,1,2,1,12
8,2,2,1,6,2,5
11,11,1,1,3,0,2
3,10,0,2,3,2,1
1,1,30,6,2,2,4
2,1,2,4,3,24,12
9,2,27,1,1,4,2
11,10,2,1,1,3,0
2,10,5,1,1,9,0
3,1,8,8,2,6,2
1,0,2,3,2,0,8
7,1,2,1,2,0,4
11,15,12,1,2,1,0
1,72,5,1,4,5,1
1,24,5,1,0,1,0
0,3,15,3,0,2,10
8,87,1,2,2,0,5
9,6,36,2,1,9,1
2,1,36,1,4,2,1
2,119,14,0,2,1,1
0,5,12,5,1,13,11
2,44,0,3,0,3,3
8,30,2,0,2,2,1
3,2,4,0,1,2,1
3,126,1,1,2,21,0
0,139,30,3,0,10,8
2,15,3,1,1,2,7
5,43,2,1,1,1,2
5,127,6,0,6,10,1
2,92,29,0,4,1,1
1,10,1,2,1,3,3
1,26,1,4,1,0,10
5,2,3,1,0,1,1
6,1,5,0,1,3,0
3,1,1,2,3,11,2
1,0,14,0,1,1,7
1,1,7,2,2,0,11
2,8,1,3,0,2,2
12,13,11,2,3,11,2
2,4,2,0,5,1,1
1,2,8,1,2,6,6
1,1,1,7,2,3,10
0,7,2,10,1,3,2
8,11,7,2,2,8,1
10,3,0,2,2,13,2
3,2,2,2,2,0,6
0,126,1,7,2,13,11
0,4,2,2,1,4,2
8,3,13,0,0,1,0
2,1,3,1,1,1,2
1,2,13,2,2,4,5
0,2,1,4,1,2,9
2,12,2,5,0,1,4
7,4,27,2,1,7,2
10,2,2,1,2,2,0
3,3,1,2,5,14,3
0,1,5,1,3,2,11
1,8,3,7,0,3,3
7,10,5,6,1,3,1
6,2,19,1,0,3,2
2,1,15,2,1,2,2
1,2,2,2,2,1,11
2,5,15,9,2,4,3
6,13,21,10,2,1,2
8,1,7,2,1,20,2
4,1,5,1,1,9,1
1,1,2,1,2,0,12
1,5,30,5,2,1,1
1,7,3,7,0,1,1
13,8,2,1,1,1,2
5,171,0,1,3,2,2
1,5,1,1,3,1,9
0,3,7,2,1,1,7
3,3,9,7,2,3,2
12,2,1,3,1,0,2
1,1,1,0,2,2,1
2,2,1,1,1,1,4
1,8,11,0,1,10,10
1,14,1,6,1,3,1
9,2,13,3,1,0,2
4,1,3,1,2,23,0
1,0,1,0,2,13,10
1,10,4,1,1,2,6
0,3,12,4,1,2,1
9,2,1,5,1,16,1
5,1,12,0,0,2,1
2,2,3,1,3,0,7
0,6,28,1,4,0,6
0,9,4,1,3,0,0
5,5,16,4,2,2,0
17,2,21,2,2,8,1
1,55,3,2,2,4,4
1,4,1,1,1,2,8
0,51,1,0,4,31,4
12,77,12,2,2,5,0
6,6,12,1,2,2,1
2,65,10,1,1,12,1
1,22,0,1,4,5,10
2,65,1,2,5,0,4
5,37,15,6,2,0,1
11,14,2,7,1,1,1
2,33,2,1,1,4,0
0,3,13,0,2,4,10
0,1,1,0,1,4,4
2,2,2,1,4,5,2
8,4,23,4,3,2,0
6,10,3,2,2,2,1
3,1,24,0,0,0,8
2,1,1,1,5,1,6
1,1,14,2,2,5,1
14,2,42,3,2,1,0
5,9,3,1,2,1,1
1,2,0,1,1,2,7
3,1,5,1,1,0,9
1,1,2,2,2,4,2
14,2,8,2,0,20,0
3,8,17,2,1,16,1
1,68,23,1,2,1,2
2,4,14,2,1,1,8
0,2,22,2,3,6,4
9,2,15,2,0,7,1
6,14,15,2,2,2,2
3,4,31,1,1,7,1
1,1,2,1,2,3,10
2,2,0,1,3,1,5
8,4,0,2,0,0,1
7,10,1,6,0,1,0
3,6,1,3,0,3,1
0,99,6,1,2,1,13
1,5,5,0,2,8,4
7,5,2,2,2,18,2
11,174,1,2,2,2,1
3,108,1,6,1,1,1
1,120,1,2,0,3,11
0,59,5,0,2,2,3
3,5,2,1,1,0,0
13,117,0,2,2,2,0
2,3,0,6,1,14,0
0,121,2,3,2,1,11
1,3,7,1,1,10,3
2,2,5,1,2,1,0
4,166,1,0,1,1,1
3,45,1,7,2,2,0
0,17,1,6,0,0,7
1,97,7,3,1,4,4
2,109,1,0,2,23,1
6,9,28,1,8,2,2
2,73,2,2,3,3,2
3,21,2,8,1,0,7
0,22,3,1,1,0,11
0,18,3,0,1,1,1
8,6,0,1,0,10,1
14,30,63,1,3,3,1
2,3,5,5,1,2,8
3,1,2,0,2,1,8
2,30,68,1,1,2,2
7,9,4,0,1,3,1
9,2,46,2,2,3,1
1,2,4,9,2,1,5
2,26,96,3,0,18,10
0,3,57,2,1,5,2
4,1,4,2,0,1,1
10,1,0,2,3,22,1
1,1,2,4,1,3,3
1,0,26,6,2,1,10
1,12,2,1,1,4,3
2,8,74,1,2,1,2
9,1,5,0,1,1,0
2,0,1,3,1,1,3
0,1,27,4,1,5,10
0,4,3,2,0,14,1
2,6,1,1,0,1,1
10,2,2,1,0,0,1
3,2,4,1,1,2,4
2,3,8,5,1,2,13
1,0,1,3,1,1,3
0,4,0,0,0,1,2
8,3,0,2,5,1,0
6,3,0,2,0,0,6
2,0,6,9,1,0,10
1,5,2,6,0,2,1
2,12,0,2,1,15,0
12,2,1,1,2,8,1
6,46,2,1,7,3,3
3,5,10,0,4,2,12
2,9,6,8,1,0,2
2,12,1,5,1,2,1
8,2,1,1,0,0,0
10,1,0,3,2,1,4
2,0,4,3,1,3,12
0,12,3,4,3,0,1
0,6,0,2,1,0,1
3,2,1,5,3,3,1
7,0,1,2,0,3,5
3,1,23,1,0,6,13
1,9,3,8,1,6,3
0,13,2,21,3,4,1
4,1,0,2,2,9,0
7,1,0,2,0,1,4
1,1,1,3,6,1,9
1,6,10,5,0,1,3
2,14,2,14,1,2,2
1,3,2,3,1,15,0
6,1,0,2,1,6,1
7,0,6,1,2,6,9
3,6,11,4,1,3,5
1,8,1,9,3,1,1
0,107,1,3,3,0,1
9,5,2,2,0,13,0
10,1,4,0,0,4,8
2,0,6,1,0,0,11
2,24,1,5,2,1,1
0,1,1,1,2,28,0
7,1,1,1,2,6,1
7,0,3,1,2,1,9
2,9,10,2,6,0,9
1,4,2,5,2,1,2
1,0,2,5,0,0,2
9,2,32,1,1,1,3
12,2,3,2,2,1,2
2,7,7,1,1,0,10
1,23,2,7,0,0,2
1,4,2,5,1,3,1
3,1,1,3,2,1,0
5,1,15,1,0,3,2
1,14,6,1,2,1,12
1,7,3,5,3,7,2
1,1,33,11,3,31,1
0,1,4,4,1,4,1
9,1,17,1,1,2,5
7,14,5,0,2,0,13
3,72,24,0,1,1,3
2,4,8,10,6,2,2
2,1,2,3,3,2,0
7,1,2,0,0,1,3
9,9,1,1,0,4,9
2,8,20,3,2,3,5
2,2,6,8,5,0,1
0,0,35,3,1,4,1
4,115,3,1,1,1,0
11,7,2,1,1,1,10
4,2,32,2,1,1,5
0,77,4,5,2,2,1
0,6,1,7,1,0,0
3,2,9,3,2,0,1
9,71,3,0,0,45,8
5,25,1,1,1,4,6
1,43,1,1,3,2,2
1,4,1,5,4,2,2
1,135,8,2,1,1,0
7,25,2,1,1,1,8
9,2,1,2,0,5,10
1,103,1,0,0,6,2
1,60,1,8,1,4,1
0,6,6,2,5,2,1
6,46,5,1,1,2,8
8,24,2,1,2,13,14
5,128,1,0,2,4,1
2,26,1,11,6,4,1
1,14,0,4,1,1,1
2,24,9,1,2,1,6
12,13,3,0,0,1,9
3,50,3,1,0,1,3
0,39,1,5,3,29,3
1,26,0,2,4,10,0
4,62,6,1,0,2,3
12,19,5,1,1,1,11
1,3,15,2,5,1,1
1,1,1,5,4,3,2
1,6,1,5,0,0,0
1,49,6,2,1,10,1
12,51,6,1,1,3,9
3,16,3,1,0,2,4
2,7,1,1,7,32,2
1,7,1,5,6,7,1
1,17,3,4,4,3,1
11,20,8,1,0,2,8
1,44,1,1,2,0,8
1,9,2,1,2,1,3
1,31,1,4,4,13,1
8,17,2,3,8,1,0
10,5,13,2,1,1,5
1,19,1,2,2,2,11
2,37,2,1,1,14,1
1,22,1,2,0,2,2
1,10,4,5,0,0,1
8,24,10,2,1,0,5
2,80,2,1,2,0,8
1,100,2,1,1,1,4
0,27,2,2,4,1,1
1,27,1,8,1,9,0
10,59,54,4,1,6,2
2,12,4,1,1,2,10
0,2,0,0,1,6,3
1,55,1,1,4,18,2
1,55,2,4,6,4,1
9,27,11,8,8,1,1
9,72,39,2,3,1,9
1,83,5,0,2,2,1
1,34,1,1,0,4,1
1,12,70,1,2,9,0
9,3,5,0,3,16,0
6,18,31,3,1,1,11
1,63,5,3,1,2,4
1,98,3,1,3,6,2
1,49,73,1,1,5,1
4,19,5,6,2,2,2
10,8,2,3,2,1,9
3,1,1,1,2,1,7
1,66,3,2,1,4,0
1,21,5,1,4,9,0
5,4,5,0,1,3,1
13,11,2,2,6,1,7
2,42,0,1,2,5,12
1,13,0,0,1,6,1
3,3,26,2,0,28,1
3,41,2,1,1,5,0
13,21,2,6,3,2,3
6,9,1,1,3,0,6
3,5,0,1,4,1,2
1,27,5,1,2,4,0
3,51,4,1,2,4,2
12,37,3,4,5,2,0
3,93,1,0,2,0,11
2,48,1,0,1,1,3
0,46,21,0,1,3,1
2,108,6,1,3,1,1
9,4,1,4,3,12,1
4,41,2,3,1,1,13
2,4,0,2,3,3,4
2,80,2,0,8,2,2
2,91,11,0,1,9,1
5,6,3,2,0,6,3
3,1,1,4,2,10,11
1,126,0,1,0,2,1
1,79,2,1,0,0,0
1,4,6,1,2,3,0
4,41,3,2,4,7,1
9,44,2,4,3,0,11
1,86,2,2,1,18,2
0,32,3,1,1,2,1
2,160,7,0,7,1,1
4,58,9,0,21,1,3
13,42,1,3,2,1,9
2,64,1,7,1,1,3
0,42,1,2,2,0,2
2,39,6,0,3,39,2
3,64,12,1,5,12,1
9,7,1,0,3,2,7
4,41,0,7,2,3,9
1,40,0,3,2,2,2
1,17,3,1,1,1,1
1,2,4,0,3,1,1
8,40,2,2,1,2,7
6,54,1,8,3,7,13
1,32,2,6,4,2,3
2,26,1,2,2,6,1
2,12,9,2,2,2,1
2,11,4,1,1,1,5
11,2,2,2,1,2,12
2,6,1,8,2,0,2
0,31,0,3,1,12,1
1,32,7,2,2,3,1
6,8,6,1,5,0,4
9,3,1,8,3,1,8
2,1,7,6,1,27,3
2,6,0,2,2,9,2
0,41,3,1,2,2,1
2,36,9,1,1,1,1
12,22,4,1,2,0,12
2,4,0,19,5,3,4
1,25,1,6,2,3,0
2,10,4,1,0,1,1
1,3,4,0,2,1,1
10,1,4,5,1,1,9
3,0,12,17,9,8,4
1,55,2,4,6,1,1
0,20,6,0,1,10,0
2,56,6,2,1,2,1
8,5,28,1,0,3,5
9,54,4,3,2,1,6
2,15,1,3,2,3,1
1,6,0,0,1,3,2
0,39,6,2,2,10,1
6,61,4,2,2,2,4
5,65,0,1,2,2,11
3,15,2,3,0,5,2
0,7,8,1,1,3,1
0,1,3,1,0,2,1
1,22,18,0,1,1,3
7,3,6,1,2,10,11
4,37,1,5,2,9,2
0,2,1,4,1,2,0
1,65,12,2,6,3,1
4,3,4,1,2,1,7
9,1,2,1,2,0,15
4,112,0,5,5,3,3
0,3,2,3,4,12,2
1,1,7,0,2,2,2
1,140,5,1,2,4,4
7,40,3,1,0,29,12
8,9,0,3,1,2,3
1,3,2,6,8,21,1
1,53,2,2,3,3,2
0,4,6,2,1,1,4
6,90,2,0,1,2,11
8,7,1,2,1,9,1
1,65,1,8,0,2,1
2,108,0,5,5,1,1
0,29,7,1,1,0,6
0,2,5,0,1,6,12
7,110,1,3,1,13,3
7,49,2,8,1,3,1
1,13,0,3,1,2,1
1,40,8,1,1,1,4
1,21,13,0,1,2,9
6,64,1,1,1,9,3
11,66,1,4,3,20,3
1,14,1,6,2,13,0
2,64,3,2,2,2,2
0,4,6,0,0,1,10
5,3,1,2,1,9,3
6,1,1,2,2,5,1
1,36,1,3,1,32,0
0,21,4,4,4,4,1
2,12,10,0,5,1,9
3,166,2,0,1,6,6
13,7,0,1,1,1,1
1,68,0,11,2,1,0
1,94,7,3,10,0,0
2,7,9,1,2,2,6
1,1,1,2,1,5,14
9,1,1,2,2,1,2
4,48,1,5,2,0,2
1,171,2,4,1,1,1
2,15,9,2,2,1,8
1,6,4,1,2,9,10
14,23,3,0,6,4,1
1,1,0,4,6,3,1
1,20,0,3,1,4,0
0,67,8,1,0,15,7
1,69,4,1,2,11,8
5,10,3,1,2,4,1
4,40,1,3,2,2,1
2,33,0,1,5,2,2
2,2,2,3,4,4,3
1,114,8,1,1,2,11
9,21,2,1,1,3,4
7,1,1,2,5,5,0
0,1,2,4,1,4,0
1,152,1,6,2,2,4
2,62,8,3,3,0,9
4,11,7,1,2,7,2
10,3,1,0,0,7,0
3,1,1,0,1,1,1
1,219,2,6,0,0,1
1,26,6,2,9,1,14
3,28,7,2,5,3,3
11,14,1,0,1,1,3
5,76,1,2,2,18,1
2,46,2,8,1,9,1
1,34,1,2,1,5,11
8,2,14,1,6,4,4
11,2,2,2,2,4,3
2,182,1,0,2,2,2
0,146,6,11,2,1,1
1,124,2,1,0,1,9
4,90,3,2,4,0,6
13,159,1,0,2,19,0
2,57,0,1,1,8,0
1,5,1,6,3,0,1
2,1,1,7,6,1,5
2,245,8,3,0,16,11
9,107,3,1,1,2,2
8,40,0,0,0,1,1
2,101,7,2,9,2,1
2,37,2,5,9,2,7
1,78,5,2,3,1,10
4,319,21,1,1,12,0
5,68,3,0,2,63,0
1,28,3,1,1,5,1
2,128,0,5,2,1,3
1,254,2,3,1,1,10
9,104,8,0,0,18,3
11,43,1,2,3,16,2
1,1,1,1,2,2,1
1,32,0,8,0,1,6
2,132,0,6,1,6,11
6,60,8,2,2,0,1
9,10,1,0,1,1,1
2,68,2,2,2,19,0
2,88,2,5,1,2,5
0,22,1,2,6,0,8
4,162,1,2,2,1,3
10,26,2,4,2,0,1
2,121,1,1,4,0,1
1,62,2,3,1,28,4
1,78,1,7,1,29,12
2,37,4,1,3,3,1
7,40,9,1,2,0,0
5,22,2,0,2,2,2
2,2,1,2,2,1,3
2,59,0,8,3,0,9
1,99,3,3,5,0,8
11,13,6,0,3,0,1
3,114,3,2,3,1,1
1,65,2,1,2,1,0
1,30,0,2,1,4,9
0,193,2,3,3,9,8
10,82,10,1,9,2,2
8,6,6,1,1,1,1
1,160,1,0,0,0,1
1,117,0,0,1,0,5
1,9,1,9,4,3,12
8,55,12,1,1,22,2
3,155,8,0,1,2,1
2,27,2,2,1,2,0
0,57,2,1,2,14,5
1,32,3,5,5,4,11
4,38,10,6,3,0,3
10,109,5,1,1,1,0
1,51,1,1,2,0,1
1,65,2,1,1,2,10
1,282,1,2,2,25,4
8,30,8,2,3,6,1
9,18,2,1,4,2,1
2,21,3,1,2,12,1
1,88,0,1,1,2,4
2,57,3,1,4,2,9
4,121,4,5,1,7,2
11,23,5,2,4,2,0
4,80,1,0,2,3,1
3,38,1,1,1,6,1
1,113,1,1,0,7,10
1,9,2,4,5,11,1
12,2,9,2,2,25,1
2,95,4,0,2,4,0
0,93,4,2,2,1,1
0,76,0,0,0,0,12
4,25,2,5,4,1,5
9,79,2,14,1,14,1
5,6,9,1,3,3,0
1,50,1,2,1,5,1
0,15,0,2,0,18,6
1,172,2,1,3,17,4
3,14,5,4,3,2,2
9,3,8,2,6,1,1
4,115,1,1,1,0,0
0,97,1,1,1,26,10
1,78,1,2,0,6,4
5,7,1,2,2,10,1
6,40,9,2,4,15,1
1,146,2,2,5,3,0
1,111,0,0,1,47,6
0,40,0,1,2,114,8
2,5,1,7,4,12,2
8,146,6,2,5,3,1
4,59,6,0,2,16,1
1,319,3,0,0,21,5
2,30,1,0,1,1,13
0,174,2,3,1,29,2
1,137,3,6,4,21,1
9,175,7,3,3,90,0
4,6,1,0,1,8,7
2,1,0,0,2,114,11
1,171,1,2,3,8,2
4,44,4,5,2,36,1
9,140,2,4,3,2,2
3,65,2,2,1,41,5
1,4,2,0,1,129,12
0,186,2,1,1,7,2
4,84,2,3,2,2,1
9,123,5,5,2,1,2
4,5,13,0,2,152,5
1,216,2,2,1,49,11
2,16,1,1,1,41,1
0,64,2,5,0,8,0
9,7,10,4,1,16,0
4,101,7,3,11,12,6
2,24,2,2,4,24,14
1,103,1,1,1,18,2
0,31,2,5,1,44,0
6,14,5,4,0,5,1
10,10,5,4,7,90,6
2,99,2,3,3,10,12
0,101,1,1,1,17,2
0,234,1,0,2,10,0
2,24,6,1,0,37,1
15,150,13,4,6,200,6
2,96,1,1,2,10,12
0,8,1,1,7,37,2
0,22,1,1,2,15,2
5,109,2,0,1,40,1
9,20,9,3,4,36,3
3,61,1,0,1,327,10
0,14,1,1,1,19,3
2,135,1,1,2,135,3
1,31,2,3,0,194,1
8,29,10,5,1,7,5
5,30,2,3,0,50,13
2,3,0,3,3,139,1
1,0,2,1,2,14,2
1,0,1,2,2,109,0
5,287,8,3,8,18,4
4,23,4,3,2,104,13
1,104,1,2,0,41,2
0,30,0,1,5,3,2
2,14,2,0,4,214,1
8,156,7,7,1,14,6
12,28,4,2,3,43,13
3,2,1,3,1,18,2
1,38,1,2,2,118,1
1,33,1,2,0,46,0
7,3,2,2,2,167,7
13,5,8,3,3,42,16
2,3,3,0,4,4,3
1,104,0,1,1,59,1
2,12,2,1,1,95,0
5,3,0,1,1,29,7
13,115,5,4,2,51,13
8,16,3,2,0,152,2
2,25,1,2,1,146,0
1,3,0,0,5,11,0
1,35,1,0,2,3,6
19,5,10,2,0,43,11
27,264,4,10,6,51,2
6,24,1,3,7,48,2
0,94,2,0,2,200,2
125,10,1,1,1,59,2
9,51,5,5,2,28,15
55,66,4,5,2,2,1
9,6,2,1,4,53,1
10,2,1,0,1,10,0
45,129,1,0,2,111,5
203,63,2,1,1,183,12
12,9,10,1,2,89,2
69,2,3,5,2,25,0
287,2,1,16,2,11,0
15,1,1,2,9,130,2
1,157,2,1,2,45,16
2,9,6,7,1,39,2
29,17,4,3,1,148,1
1,7,1,1,1,11,0
25,8,1,2,0,6,5
245,26,2,1,1,2,16
22,87,11,8,2,0,2
42,105,4,4,1,152,0
142,4,2,1,3,73,1
17,1,1,1,2,67,6
0,13,2,1,1,3,15
78,3,9,37,0,43,3
507,112,5,22,2,112,1
18,42,2,2,0,44,1
65,7,1,2,1,2,4
34,25,1,1,2,121,17
26,21,12,4,0,41,3
15,113,11,11,1,29,0
6,8,18,1,2,7,2
222,7,38,2,2,15,4
42,2,27,1,2,76,15
25,44,117,12,1,23,4
6,90,32,2,1,68,1
121,5,63,1,2,115,2
216,88,171,18,4,31,3
9,50,19,42,0,21,16
1,35,137,4,2,5,3
79,129,48,3,1,236,1
83,22,93,1,1,21,0
17,123,8,0,1,11,3
4,13,33,1,1,141,12
1,32,259,2,2,13,3
41,72,12,1,1,69,1
230,45,11,2,2,226,2
8,99,114,0,0,51,4
17,15,74,3,4,5,12
172,70,4,4,3,8,4
9,25,67,1,1,3,1
2,44,167,2,1,3,0
176,18,147,23,1,19,4
12,93,38,68,2,20,16
30,49,60,117,2,327,1
4,6,18,138,1,48,2
0,2,148,67,1,41,1
353,35,55,5,8,9,5
43,55,121,71,3,142,16
6,60,8,204,2,61,4
112,16,27,229,1,5,1
90,243,88,9,0,13,0
17,13,15,212,1,111,2
12,114,27,172,2,102,16
2,6,208,5,1,172,3
1,52,25,1,5,20,0
0,96,19,263,3,22,0
113,21,74,41,3,90,3
49,19,332,3,0,162,14
35,18,15,13,1,20,3
3,9,45,45,0,60,1
1,95,59,154,2,7,2
107,23,191,18,1,39,3
76,34,20,449,1,34,18
8,9,161,78,1,162,2
26,1,11,6,10,27,0
3,0,8,4,4,2,0
133,177,71,155,1,88,5
52,14,217,9,0,182,14
21,267,40,3,3,25,3
3,16,76,108,1,3,1
48,47,42,47,1,50,1
17,59,86,2,1,237,5
1,4,6,149,0,11,17
288,2,48,53,3,4,1
49,1,74,10,1,21,2
39,154,57,99,4,3,0
2,49,158,9,2,49,2
78,3,75,2,0,236,7
82,15,28,56,2,17,4
14,122,58,178,0,105,0
3,88,13,9,2,43,1
28,6,31,44,0,31,0
13,2,126,113,5,80,8
25,22,200,10,13,19,9
117,51,16,508,3,142,2
16,37,28,84,1,22,1
3,20,15,7,4,14,1
63,2,46,139,3,97,7
8,102,85,22,1,81,7
1,30,30,44,0,38,1
205,98,136,17,0,2,2
29,50,15,19,0,64,0
5,42,36,51,6,202,1
15,2,108,30,15,9,8
11,2,21,89,8,22,3
18,75,9,57,2,4,0
22,39,8,5,6,9,1
2,83,255,17,5,39,0
136,77,14,122,0,12,7
9,6,21,35,0,36,4
275,18,159,93,29,71,2
37,32,33,11,15,90,1
3,35,26,180,2,14,0
24,27,270,123,8,11,6
52,7,8,21,2,130,9
60,1,54,41,2,39,2
13,80,8,61,1,5,2
55,130,15,5,1,111,1
80,35,138,0,8,95,3
15,3,14,160,49,91,13
21,26,7,66,6,16,3
21,141,6,6,7,26,1
113,84,50,1,1,28,1
15,9,16,98,1,2,4
52,32,4,100,11,288,12
148,4,105,9,4,46,1
19,115,46,127,1,444,2
0,75,5,48,32,24,2
302,125,1,26,18,3,2
26,31,18,8,8,35,9
10,9,135,19,41,2,4
0,137,118,5,16,139,2
1,5,114,312,2,61,1
124,17,23,26,7,40,0
72,18,1,48,2,13,10
11,46,121,41,1,163,4
38,3,40,79,80,6,1
98,125,112,29,17,8,1
8,25,9,135,8,41,0
54,96,148,32,7,463,6
57,128,7,26,3,17,4
115,49,31,2,1,185,2
3,4,14,36,27,7,1
0,24,64,45,9,59,2
143,3,5,28,3,77,2
50,126,31,4,12,108,9
4,13,161,14,25,81,4
12,15,50,55,2,9,0
162,15,3,17,10,2,2
13,36,1,1,1,1,3
72,2,12,89,10,148,9
6,58,89,95,17,6,3
34,29,64,22,8,4,2
29,5,12,9,4,128,0
109,0,0,87,5,58,0
9,96,112,164,3,37,6
19,66,50,6,43,30,8
5,30,4,0,3,4,1
186,19,10,96,3,25,1
17,111,48,81,1,166,0
11,12,49,9,40,14,6
15,115,136,28,4,16,6
5,6,7,5,19,107,2
118,15,9,87,12,45,1
6,128,41,38,3,4,1
118,13,35,4,1,91,1
47,107,27,30,1,58,5
74,7,68,149,8,256,3
5,10,8,9,29,26,1
0,48,2,114,36,2,1
4,25,127,16,3,4,2
37,40,45,31,13,4,5
23,29,75,7,9,11,6
15,37,16,1,2,42,2
28,18,28,100,4,30,1
9,194,236,188,6,118,1
70,100,16,20,4,277,3
36,14,13,7,17,9,7
18,54,75,3,6,2,1
10,60,83,151,2,1,0
97,27,4,102,9,155,1
18,3,58,4,27,259,2
35,1,10,64,8,135,8
22,209,50,42,22,6,2
73,87,62,52,3,6,1
40,76,31,47,11,8,0
31,11,57,8,12,141,0
7,61,43,44,1,7,6
33,59,4,116,5,3,7
105,35,45,13,1,74,2
59,135,32,27,5,93,0
5,38,41,22,22,128,0
19,3,77,39,25,8,3
14,40,45,17,3,271,9
18,2,2,98,6,17,2
63,71,19,9,66,69,1
44,74,20,36,7,38,2
8,6,15,3,3,13,0
176,2,143,97,2,44,8
23,0,20,54,10,49,5
60,71,19,17,15,5,0
5,8,7,1,32,39,1
61,42,10,128,14,160,2
100,6,96,56,2,115,6
4,1,30,42,9,5,5
130,31,52,29,42,60,3
235,27,18,68,21,4,3
9,5,48,105,3,304,2
7,62,11,17,2,101,4
72,30,52,1,27,5,8
6,72,4,140,6,30,3
81,5,16,66,2,106,1
73,0,2,9,1,15,2
15,133,1,5,30,126,2
5,33,161,66,14,128,6
4,23,9,108,7,54,4
30,12,5,33,8,18,1
17,105,5,4,4,82,0
36,30,2,15,1,73,2
27,14,64,44,37,34,6
144,13,52,5,16,9,8
8,85,37,90,19,20,1
10,29,58,71,5,7,0
84,11,42,26,44,173,2
9,3,41,18,11,15,4
159,68,49,3,2,35,10
7,5,10,86,11,54,2
229,5,46,37,8,30,0
94,10,6,83,3,115,1
12,14,62,18,10,19,2
1,47,15,79,1,36,7
4,9,46,21,12,6,2
23,31,31,43,36,39,2
34,15,4,7,33,20,1
5,31,4,89,4,1,1
31,6,1,6,1,129,8
120,38,62,61,1,23,4
18,98,27,28,6,158,2
24,19,28,13,15,65,1
5,3,34,91,2,7,1
11,1,7,8,4,90,3
138,2,5,164,5,43,7
68,5,13,25,13,28,1
17,42,2,19,4,17,1
0,33,5,3,3,2,1
231,27,119,29,8,81,3
16,9,25,151,3,30,4
5,4,2,21,20,194,1
0,12,15,15,19,11,1
84,2,1,6,2,164,0
148,4,34,3,0,16,5
54,28,224,106,3,29,16
18,27,16,6,39,22,3
9,17,53,244,15,65,0
13,6,17,22,15,4,2
12,150,35,28,3,84,21
15,6,18,8,13,9,14
12,21,29,43,5,34,1
4,46,2,170,0,94,1
28,91,45,12,1,24,1
70,6,47,5,33,155,6
42,42,102,51,12,10,9
32,21,12,15,9,2,2
80,2,26,39,5,353,1
6,2,29,192,2,27,1
126,31,31,42,8,3,2
62,58,34,8,34,16,8
23,6,120,23,23,3,5
17,5,7,2,10,2,2
72,4,14,1,10,84,1
31,77,85,64,0,58,2
47,47,25,26,13,4,3
18,21,57,56,2,52,5
5,18,7,30,1,132,4
2,22,3,4,2,102,3
22,27,34,85,17,5,1
5,8,14,57,10,2,2
15,2,49,50,3,88,7
39,104,15,15,7,9,4
1,19,22,6,2,61,1
184,3,2,148,84,79,1
42,0,2,14,24,71,1
78,1,132,42,48,34,6
55,23,57,27,9,17,4
2,13,5,4,4,167,1
1,18,7,21,13,74,1
12,14,3,13,1,14,0
200,4,4,4,8,1,8
11,8,44,47,13,45,7
26,112,143,90,10,27,1
50,14,16,11,4,28,1
63,2,3,0,9,65,0
19,7,127,147,3,77,1
2,72,25,38,20,14,17
12,30,21,5,17,147,7
8,27,24,39,2,10,1
23,6,29,2,14,6,1
2,4,33,30,10,56,3
1,65,14,141,0,4,10
32,16,16,12,1,2,2
114,101,98,45,0,2,1
18,27,42,35,4,62,0
48,142,3,15,14,30,3
61,15,14,9,12,1,8
10,22,3,25,6,244,4
14,3,146,3,6,68,1
130,23,12,4,10,57,0
7,20,4,33,9,5,2
189,210,21,112,30,143,5
83,29,32,5,4,52,2
33,68,15,7,3,22,2
74,5,19,23,6,91,2
11,119,3,31,4,6,1
1,14,10,76,10,49,12
0,66,59,21,12,90,5
71,4,5,125,1,9,2
5,33,57,11,5,2,0
66,5,6,1,1,256,0
6,11,21,390,30,23,6
1,37,77,83,14,55,10
113,95,30,6,3,48,3
11,10,131,2,13,6,2
12,22,6,1,6,38,0
13,140,18,17,2,69,7
1,109,58,16,24,121,7
30,4,12,79,4,23,3
108,6,38,10,10,13,0
12,217,5,4,5,182,1
124,24,40,5,4,125,2
13,183,76,2,3,5,5
8,6,28,208,3,2,2
44,58,69,10,12,8,1
17,5,7,9,6,70,2
1,3,2,36,2,29,2
3,0,16,19,16,108,7
8,2,44,14,19,29,4
58,34,21,3,6,23,3
33,106,31,159,6,68,1
4,8,5,26,6,79,1
16,7,13,2,2,14,2
58,96,83,47,7,81,6
6,60,32,60,9,7,2
24,5,11,15,34,14,1
3,69,0,11,16,33,0
27,97,15,1,14,15,1
167,14,48,84,7,86,9
9,67,6,113,5,101,4
22,229,34,11,3,30,1
1,92,137,6,8,11,1
216,143,6,1,18,11,2
28,170,20,31,3,191,7
2,45,45,74,16,8,4
17,3,105,18,6,38,1
20,0,5,2,8,14,1
26,112,1,101,12,9,0
15,4,2,54,2,212,4
15,0,44,10,17,76,5
15,113,10,5,17,5,3
26,9,14,3,7,1,1
1,141,19,25,8,2,0
0,21,52,49,21,4,0
80,46,56,87,1,55,7
43,124,14,15,5,2,5
51,10,22,20,1,185,2
18,4,9,14,5,9,1
4,0,63,11,1,85,2
18,29,127,98,6,9,9
70,246,13,30,5,15,7
4,63,7,43,18,43,1
63,6,55,2,8,41,0
31,84,4,64,12,3,0
10,135,37,34,1,95,6
6,56,75,8,1,5,9
2,125,17,4,18,35,1
19,4,53,6,6,55,1
1,18,2,17,5,121,2
7,43,16,36,13,29,1
25,192,25,17,17,12,1
44,13,14,35,2,5,1
7,44,14,9,12,29,1
2,15,40,37,12,49,0
0,87,43,120,7,21,1
47,43,144,53,4,121,6
37,6,5,6,4,17,7
150,27,16,10,6,2,1
30,13,29,162,9,147,1
5,2,5,10,4,8,0
8,63,19,0,7,3,6
6,105,75,44,5,1,11
127,54,7,26,10,200,1
23,5,12,7,5,57,2
31,66,14,2,22,5,1
1,28,4,0,8,1,3
132,2,39,268,16,1,7
19,1,73,47,1,80,2
3,55,6,5,9,114,2
1,5,2,2,9,3,0
11,121,19,10,11,164,2
24,90,11,37,2,41,11
12,76,8,23,7,47,3
43,36,47,35,2,172,1
7,25,66,3,16,7,0
22,146,87,2,61,195,2
83,50,5,27,6,33,8
25,5,30,43,6,5,5
106,0,42,21,2,2,0
43,41,18,2,1,1,0
4,77,4,74,0,169,2
127,86,73,4,9,11,6
47,6,13,80,23,182,7
14,131,2,46,11,7,4
8,5,8,11,5,3,1
58,162,47,18,32,23,1
22,16,54,32,17,2,2
61,63,21,98,8,248,9
36,119,16,18,9,20,3
5,22,15,94,4,26,2
65,41,42,28,13,8,1
17,37,25,52,6,118,1
6,93,17,14,12,22,9
19,6,5,1,10,21,3
80,16,0,1,3,67,2
16,71,4,161,1,16,2
2,6,5,38,9,1,0
83,1,57,5,6,14,6
21,58,46,8,20,5,10
160,85,6,37,10,97,0
15,8,3,3,2,172,0
1,90,4,147,9,6,1
1,14,48,24,8,29,6
23,2,31,5,15,3,6
82,4,4,21,2,10,1
9,39,3,5,1,25,2
27,32,126,138,31,59,1
2,2,11,32,2,15,5
103,1,6,83,3,14,11
42,48,11,14,4,25,2
4,53,6,72,15,71,2
2,13,38,55,20,5,1
3,19,22,12,2,1,4
2,2,90,52,10,39,8
43,0,17,59,14,119,3
37,12,3,148,5,124,2
29,3,6,29,1,14,0
36,1,17,4,61,1,1
14,30,28,1,8,21,9
2,23,37,0,8,7,3
0,3,4,6,6,14,2
86,7,2,99,29,28,2
68,27,4,31,2,159,1
90,47,9,32,2,33,7
10,13,97,15,24,51,10
50,17,40,4,4,13,1
5,13,4,58,11,10,1
280,49,27,36,5,111,1
12,5,9,19,0,63,8
2,22,36,2,1,57,9
34,2,32,75,23,91,1
13,12,27,9,13,15,0
38,58,50,11,8,3,2
3,21,7,36,4,0,7
82,81,24,29,1,65,10
74,22,12,145,3,27,1
4,66,19,24,2,77,1
2,28,26,21,31,11,1
47,4,83,5,6,20,4
12,1,18,2,4,61,11
9,0,4,42,5,58,2
69,47,21,21,2,5,1
18,30,31,39,7,61,1
34,74,2,3,9,69,8
13,47,1,218,8,18,9
1,18,15,33,23,41,2
39,37,43,11,6,15,2
50,11,55,111,5,2,2
3,5,8,40,1,0,1
18,2,2,28,6,44,10
11,0,42,123,7,58,4
5,10,11,11,9,6,1
35,86,3,8,10,94,0
9,50,3,81,18,103,4
142,52,33,13,18,6,10
6,6,107,9,11,1,2
80,1,4,55,2,2,1
23,0,1,7,21,8,1
4,27,114,49,23,7,0
44,22,11,85,8,18,9
9,1,0,6,6,165,9
3,0,1,5,4,20,2
109,36,32,43,7,41,1
30,32,37,18,6,11,2
29,3,61,6,17,30,5
6,1,36,19,4,157,8
12,52,3,13,5,14,2
38,36,46,9,9,73,2
152,49,8,135,13,30,0
6,24,2,54,7,16,6
2,3,100,3,2,2,10
29,4,11,1,2,3,4
38,2,9,196,34,1,3
20,1,14,14,2,2,0
18,52,4,2,10,40,4
11,21,0,67,2,14,9
65,56,18,16,5,35,3
26,20,34,26,3,121,1
3,6,17,86,8,24,0
55,11,69,29,6,35,0
12,28,4,23,1,2,7
204,3,7,17,1,175,9
16,2,1,12,8,73,1
6,1,39,60,10,27,0
2,55,13,29,2,3,2
18,19,4,14,5,13,12
13,31,18,9,2,3,4
10,3,43,6,34,36,1
2,17,8,10,20,50,1
46,19,26,84,2,114,0
35,49,17,15,2,11,5
4,2,53,17,14,85,7
9,2,78,2,5,6,3
24,4,21,13,14,106,2
4,8,2,61,7,6,1
17,39,0,44,20,11,1
5,43,54,13,4,1,9
11,26,5,26,14,1,3
13,48,19,62,3,52,0
65,42,65,14,2,9,0
6,5,5,9,3,88,2
4,24,7,24,10,94,10
1,4,7,22,20,43,4
38,1,17,21,1,4,1
45,2,29,25,1,76,1
8,1,33,65,10,10,2
63,2,41,18,3,2,8
10,10,68,3,1,73,5
60,4,8,80,33,5,1
7,64,6,56,6,11,1
3,59,5,57,0,56,1
18,13,18,4,0,17,8
54,3,37,19,44,6,4
4,27,5,1,18,1,0
19,4,3,50,14,98,1
17,0,17,40,8,44,0
62,5,93,10,3,6,0
9,13,10,15,5,100,10
48,1,2,13,2,61,2
15,1,3,6,1,8,1
16,143,42,10,18,20,0
40,143,62,13,3,2,2
16,11,15,9,13,2,8
1,1,3,8,10,63,3
22,2,7,1,5,44,2
11,7,5,36,0,12,0
11,10,39,21,46,96,1
14,67,44,28,9,8,15
51,4,11,25,9,1,2
7,61,45,44,1,2,1
110,90,23,7,32,2,2
9,101,55,107,15,2,1
2,50,25,11,3,102,9
16,61,25,3,11,7,4
26,5,9,68,2,13,1
4,1,76,9,2,154,1
4,1,6,77,1,24,1
8,0,9,5,0,3,3
12,186,1,91,1,1,5
5,129,14,53,8,2,4
10,101,1,8,31,1,1
2,94,50,12,3,11,0
14,77,30,17,2,18,1
6,101,6,15,16,9,8
12,10,1,44,19,28,2
1,2,7,8,1,6,2
69,3,23,5,12,6,0
51,48,39,56,1,2,2
6,79,16,14,8,1,8
2,113,6,7,8,1,5
2,37,2,8,7,23,0
4,141,1,35,8,103,2
12,109,23,29,2,53,2
3,26,18,22,3,14,4
7,3,33,29,15,4,7
5,1,33,15,26,49,1
2,143,6,16,3,21,1
22,140,4,5,3,3,2
1,116,37,2,5,9,3
1,52,6,95,12,20,9
20,24,10,23,4,75,2
10,90,79,53,1,35,0
5,7,5,6,5,3,0
1,0,11,91,15,0,0
2,1,3,6,12,11,7
7,1,59,0,0,50,6
12,94,13,132,4,4,2
1,62,113,30,3,1,2
0,29,12,6,13,1,2
0,4,46,0,3,13,8
2,247,9,49,6,35,9
10,44,1,7,4,65,3
2,63,1,1,24,30,2
0,29,29,13,18,18,1
1,3,42,1,8,1,1
2,2,1,85,3,14,7
5,1,103,29,1,2,6
2,192,29,2,2,2,2
1,24,21,29,15,1,1
1,178,6,6,3,36,2
2,110,3,41,2,43,9
6,7,32,31,7,27,4
23,3,10,11,2,39,1
8,4,5,12,11,5,1
1,1,66,72,20,1,1
9,2,25,14,4,0,4
30,0,2,13,6,0,6
5,4,10,14,3,136,2
21,12,14,4,2,14,0
2,72,17,124,28,1,1
15,155,41,9,21,1,4
45,29,5,28,10,0,10
1,40,9,11,8,2,2
14,4,11,17,9,0,2
56,1,126,91,3,10,1
12,2,13,29,6,52,1
1,2,13,14,3,24,8
27,15,23,56,2,4,5
176,1,36,7,2,2,1
6,1,37,7,8,1,0
80,1,43,25,2,5,2
18,196,3,9,6,0,3
2,6,3,7,6,2,8
9,3,39,4,6,2,2
35,1,39,54,15,25,2
66,1,7,27,21,9,0
8,11,3,6,9,2,5
24,3,62,31,4,1,9
29,0,59,37,2,0,4
13,1,6,30,14,0,0
5,1,2,4,7,2,1
75,13,74,28,3,1,2
7,4,23,69,0,0,9
64,1,10,5,4,14,4
16,3,8,13,6,21,2
11,2,68,47,1,39,0
1,9,11,47,19,5,2
50,4,39,16,7,1,6
9,3,21,20,1,2,8
13,0,65,2,8,2,2
196,0,6,30,2,1,1
9,11,3,8,4,2,0
3,9,25,136,9,2,6
6,3,11,13,3,8,7
70,1,95,41,13,12,1
16,143,7,14,2,23,0
9,5,15,32,23,17,1
15,1,2,20,7,1,3
1,0,11,4,8,2,9
24,2,18,3,5,5,5
25,2,34,53,2,1,1
58,12,78,11,8,2,2
3,3,20,5,2,2,1
4,1,3,15,1,2,5
161,1,2,99,19,3,8
15,2,32,110,18,10,2
4,12,121,6,4,2,1
10,2,5,52,0,19,0
5,1,7,23,10,2,8
1,2,42,15,3,1,12
25,2,69,42,9,0,2
2,13,8,5,2,23,2
8,2,4,57,0,4,1
47,2,24,27,2,1,5
136,1,74,3,12,1,5
6,1,21,9,6,20,1
2,13,3,72,8,3,1
26,4,0,33,5,1,2
59,1,24,4,8,2,2
2,22,26,33,11,2,12
10,3,17,7,9,4,3
10,10,9,2,4,2,2
60,4,10,15,3,1,1
32,2,52,13,2,1,2
2,0,6,58,2,2,10
2,3,1,16,2,2,1
2,8,46,4,1,3,0
4,4,48,27,12,0,2
10,1,8,15,35,2,3
19,1,0,3,5,0,8
27,2,13,43,3,2,5
30,12,70,23,5,4,2
6,4,104,1,2,3,2
0,1,9,42,2,2,1
2,0,8,7,9,3,5
23,1,6,55,9,0,8
12,12,37,35,8,2,1
2,3,22,37,15,1,2
1,2,3,5,5,1,1
2,45,61,0,10,1,7
2,3,41,18,2,3,11
16,10,18,2,2,2,1
32,55,21,11,0,0,1
3,4,17,7,2,2,1
5,1,45,7,4,6,6
5,16,13,15,9,2,12
5,1,4,4,20,0,3
6,1,44,31,7,64,2
20,1,19,67,1,24,1
2,1,32,16,3,2,4
46,46,16,16,2,1,11
11,4,18,1,2,1,2
3,39,8,1,2,1,2
0,5,48,42,8,2,1
7,3,6,5,2,0,1
62,20,2,0,2,8,12
9,2,1,1,5,7,2
6,21,21,14,2,3,1
1,1,27,7,20,1,1
1,1,72,1,5,0,5
13,7,15,2,7,16,10
40,3,12,1,3,23,1
2,0,18,9,2,1,1
1,74,34,6,2,2,1
5,34,7,7,4,2,5
63,94,29,3,22,28,11
13,24,12,7,21,36,3
2,3,5,0,2,4,1
1,73,2,2,10,1,0
11,72,27,1,15,1,6
18,7,4,1,17,0,10
3,3,25,1,3,0,2
64,1,4,6,5,2,1
8,47,40,63,10,1,0
5,4,4,7,1,1,1
8,55,2,1,8,1,13
1,43,3,9,2,1,1
1,29,2,35,30,1,2
2,35,18,7,4,2,0
14,16,43,2,2,1,3
58,26,53,2,2,1,9
3,2,4,11,4,0,1
0,5,5,29,8,3,1
17,46,2,3,14,2,0
39,47,29,1,2,1,1
6,17,15,21,2,1,4
1,83,7,8,3,6,8
1,21,1,17,0,26,1
8,2,1,13,1,11,1
9,1,3,2,5,0,1
7,49,2,2,2,2,11
3,4,1,1,1,8,7
2,2,6,2,7,1,2
9,1,22,6,1,1,1
15,0,12,3,3,1,1
1,29,1,13,3,9,9
1,4,1,35,1,2,10
2,3,3,21,1,2,2
28,1,6,13,2,13,1
7,0,13,2,8,5,1
18,1,3,25,3,1,8
2,7,0,4,2,4,5
2,75,1,3,2,2,0
18,5,9,1,0,1,1
6,2,13,4,3,1,0
0,0,38,2,8,1,6
1,8,42,55,1,7,11
1,69,4,6,3,37,1
10,81,2,1,1,6,1
14,5,14,0,7,2,2
4,19,103,0,11,1,4
2,3,20,5,3,2,13
1,2,0,12,6,2,1
1,0,3,5,6,2,1
20,59,21,2,3,0,1
5,4,14,2,10,3,3
1,5,13,12,2,6,12
3,2,33,10,5,14,2
14,2,2,4,1,2,1
3,1,0,0,1,8,1
2,89,50,0,6,2,5
2,81,61,6,3,0,12
2,82,5,5,0,15,2
14,54,1,2,1,6,1
5,97,0,1,10,1,1
6,18,1,1,3,2,2
31,3,13,8,0,1,11
12,2,3,9,2,0,2
1,72,0,3,3,9,2
2,119,1,2,2,9,2
2,62,11,0,2,2,2
1,39,23,3,1,1,9
2,6,2,5,1,1,3
21,1,0,1,2,2,0
4,2,7,2,6,23,1
2,90,88,0,13,8,2
0,18,12,1,6,2,10
1,2,5,3,0,0,3
13,1,2,10,22,1,0
5,115,1,3,10,1,0
2,74,10,1,1,1,2
1,40,38,1,1,2,12
11,8,9,6,1,2,3
18,2,44,5,26,2,2
2,67,3,1,15,24,1
1,83,1,0,1,14,2
1,34,2,2,1,2,10
8,3,11,4,6,3,2
10,1,1,18,7,2,3
1,1,1,10,11,1,0
1,149,9,1,4,1,2
1,36,2,0,3,1,11
8,84,1,18,0,3,5
9,26,0,61,2,2,0
5,3,1,4,11,6,0
1,150,8,2,3,14,1
1,38,4,12,6,5,10
20,3,2,5,3,0,2
14,1,0,5,16,1,2
3,41,3,53,10,0,0
8,103,4,5,2,1,0
4,22,1,16,3,2,10
1,14,31,35,1,2,8
10,79,43,21,2,0,2
1,63,3,5,2,9,0
1,38,2,4,18,28,3
1,7,40,2,21,3,6
7,2,3,2,15,1,4
10,1,0,0,2,1,1
3,0,56,2,0,1,1
2,54,3,3,2,2,1
0,13,1,5,2,1,5
5,37,52,5,17,0,8
13,82,5,1,3,2,3
2,61,100,2,26,22,1
1,62,4,2,1,7,1
1,91,60,2,3,0,1
7,13,5,5,18,1,9
6,1,50,0,2,1,4
25,1,7,2,0,2,0
3,3,2,2,7,2,0
4,79,2,2,2,1,2
6,31,0,7,0,0,6
15,3,1,2,5,1,7
2,59,11,0,4,1,3
1,81,46,0,2,0,1
0,36,6,1,0,1,2
6,65,2,7,2,2,7
14,3,4,6,1,8,10
1,1,10,4,15,5,2
0,9,1,1,3,18,1
2,5,2,0,1,4,1
4,0,0,16,0,3,5
7,1,11,3,11,1,9
1,128,57,2,7,1,3
0,50,5,1,17,1,1
2,52,2,2,0,2,1
4,92,12,2,1,2,2
10,35,4,2,4,1,11
1,2,72,8,15,8,3
2,0,6,4,44,14,1
1,1,35,1,21,3,0
4,28,4,4,0,1,4
14,14,2,8,6,0,7
2,91,2,2,27,12,6
1,85,1,3,10,0,2
0,58,2,17,11,0,1
2,15,2,5,5,1,3
6,1,8,13,3,2,8
10,25,19,3,2,1,12
1,3,2,4,8,2,1
2,1,1,1,2,8,0
4,46,6,25,8,16,1
11,73,10,5,8,1,11
3,41,12,2,6,0,2
1,49,2,1,0,2,1
1,65,15,3,9,6,2
3,6,20,10,9,3,2
6,3,4,19,15,5,8
8,38,0,3,5,1,7
2,2,19,3,0,0,0
2,4,11,1,2,10,2
1,3,5,1,1,0,1
15,62,2,11,1,1,5
4,4,27,7,27,1,7
1,3,8,7,44,3,1
2,52,5,5,3,1,2
1,3,12,3,3,2,0
10,47,20,16,23,1,3
6,69,15,3,57,23,5
0,60,12,6,16,3,3
2,4,5,2,1,2,1
1,1,1,1,29,1,0
15,2,2,11,36,1,2
6,92,1,16,6,8,10
0,74,2,2,2,1,9
0,71,5,1,4,2,1
1,71,6,12,10,1,1
15,33,1,4,0,5,0
8,20,1,2,10,2,10
2,1,5,2,20,1,3
0,0,4,1,5,8,1
0,1,8,0,3,2,2
7,2,6,8,1,1,0
18,9,9,2,14,1,9
9,122,2,0,5,6,9
2,5,10,1,7,4,4
1,91,8,6,4,9,1
7,32,3,9,6,13,1
6,45,4,12,2,2,5
2,16,8,2,0,0,6
1,68,1,2,16,2,1
0,23,2,2,20,6,2
6,2,42,6,2,1,1
11,1,21,2,0,2,0
2,66,17,3,9,2,9
1,16,31,9,7,0,3
1,71,15,33,21,3,1
5,52,1,3,8,5,1
11,3,0,1,2,1,1
2,15,1,1,12,0,6
1,2,15,2,8,1,8
0,39,39,6,7,2,0
3,8,16,6,2,6,2
8,3,1,1,10,3,0
7,4,1,1,3,2,4
1,11,35,0,61,1,9
2,2,2,1,10,0,3
2,81,2,9,2,1,2
9,5,0,4,11,2,1
4,3,2,2,2,1,3
2,118,8,8,5,0,13
1,6,37,2,7,2,3
0,77,4,2,39,21,3
10,9,27,1,9,4,1
17,2,54,2,3,1,0
3,1,36,0,10,0,9
2,0,21,1,2,0,5
1,80,2,3,21,3,2
16,5,20,9,4,3,1
3,94,12,1,2,1,2
0,17,2,3,7,1,7
2,15,2,0,5,1,9
3,21,17,1,11,1,2
9,31,28,6,8,17,2
2,2,41,3,49,2,1
1,1,17,0,8,1,5
0,1,2,1,2,1,13
2,16,2,0,10,1,1
8,18,2,5,7,0,1
8,40,5,4,5,1,0
2,23,2,5,5,0,1
2,47,1,0,7,2,6
1,40,10,1,5,0,6
3,58,3,2,5,1,2
6,4,0,2,5,9,2
3,2,1,2,7,2,1
1,6,4,6,17,0,11
0,97,4,3,22,1,3
0,23,11,0,3,11,1
10,40,1,4,1,29,0
4,31,0,7,9,3,2
1,8,2,0,15,1,9
1,22,7,3,2,2,6
0,17,10,2,0,4,2
12,4,0,2,5,2,2
1,1,2,5,7,1,0
1,2,2,2,24,1,8
2,1,5,1,3,1,5
0,27,8,1,3,0,3
9,52,2,2,8,1,0
2,43,0,6,8,1,0
2,25,1,3,8,2,3
1,1,3,0,1,0,12
1,37,11,0,13,1,3
14,29,0,1,3,2,1
7,22,2,4,2,2,2
7,3,1,3,4,2,1
1,2,1,2,5,0,9
2,6,12,0,2,1,3
6,25,4,1,5,24,1
3,59,1,8,10,16,0
2,51,1,4,3,1,1
1,23,1,0,2,1,10
2,53,14,0,7,1,4
3,8,1,1,2,2,2
10,4,1,1,2,0,1
3,7,2,6,21,1,2
0,0,4,15,3,1,6
0,2,12,1,3,1,5
5,2,2,1,20,1,1
16,17,3,1,3,1,2
2,23,0,7,3,1,0
1,46,5,4,4,7,7
2,43,15,1,4,1,10
1,29,3,1,14,0,2
10,3,2,1,1,0,2
2,2,1,3,2,0,2
1,37,1,1,0,2,9
1,4,4,0,2,1,10
2,3,2,1,8,0,0
10,53,5,1,1,2,2
1,54,2,7,6,2,2
1,57,2,9,4,0,4
0,14,10,2,12,1,9
0,2,2,0,10,2,4
10,16,0,2,3,20,0
1,34,1,2,1,4,1
1,2,0,6,8,5,4
2,1,9,3,2,1,10
5,1,7,2,1,2,2
11,10,0,0,2,4,0
7,61,1,0,4,2,1
1,27,13,6,1,1,4
2,19,11,4,5,2,9
3,47,1,1,1,1,4
15,7,2,1,13,4,1
3,29,0,2,3,3,2
1,1,2,1,0,1,1
1,35,9,4,3,1,6
1,3,8,2,7,2,4
12,1,3,1,2,1,0
3,1,1,0,2,2,1
2,49,1,2,7,1,0
2,8,7,3,12,3,8
6,51,9,1,14,0,7
6,41,2,2,2,3,2
3,14,0,0,1,0,2
1,2,0,0,7,2,0
0,5,3,3,6,1,0
1,52,6,3,16,2,10
8,3,2,3,3,5,3
3,1,1,2,2,1,1
3,3,1,1,12,2,1
0,8,0,1,2,1,5
0,41,10,4,6,0,13
9,21,3,3,1,3,2
14,21,0,1,2,1,0
1,43,1,0,1,11,1
0,18,2,0,9,4,3
2,9,11,4,3,1,9
8,17,1,3,2,2,4
7,1,1,1,1,16,2
1,1,1,1,1,5,2
1,0,1,0,1,1,1
13,1,5,5,3,1,9
3,15,6,7,1,1,5
5,54,1,2,2,5,0
1,39,0,0,4,9,0
2,4,0,1,3,2,0
0,1,12,4,17,2,19
1,25,7,6,2,1,3
4,22,3,4,3,1,2
5,6,1,1,3,1,2
3,1,2,1,3,0,1
1,1,6,1,2,1,5
0,3,9,6,0,2,8
7,10,2,2,12,1,1
10,1,1,0,4,9,1
2,1,1,0,2,4,2
1,33,3,0,2,3,1
2,4,7,2,0,3,8
7,29,3,3,2,6,3
6,4,1,1,5,1,0
2,19,1,1,37,5,2
1,3,1,1,6,8,1
0,9,8,3,4,5,10
6,7,4,3,1,2,3
6,21,2,0,2,1,0
2,2,1,1,1,9,2
1,45,1,1,2,1,1
2,15,8,2,3,1,10
5,1,4,5,4,9,1
9,17,1,2,2,3,1
6,1,1,0,2,1,1
2,9,2,2,9,2,3
1,9,3,2,4,2,8
1,2,5,4,3,1,5
12,2,1,4,1,1,3
6,11,0,1,2,1,1
1,3,2,1,0,1,0
0,12,1,1,1,5,4
2,2,8,1,12,0,10
7,1,2,5,4,2,1
6,0,1,2,3,0,0
3,9,1,1,0,0,0
2,11,0,1,9,1,6
0,1,5,0,7,2,10
2,1,7,2,0,11,1
9,0,2,4,1,3,1
4,10,0,1,6,5,2
1,13,1,0,1,2,5
2,1,3,1,14,1,10
6,22,8,5,6,3,1
14,12,2,7,1,1,1
1,0,0,2,2,3,0
2,10,1,0,4,1,7
1,0,0,1,1,1,9
6,32,6,0,1,1,3
13,3,6,3,5,1,0
3,2,0,2,1,1,0
1,27,0,1,16,1,7
0,4,1,1,3,1,17
2,2,3,3,1,1,4
9,11,9,4,2,1,1
2,3,1,3,2,1,0
1,2,0,2,1,9,2
2,0,1,1,12,6,11
1,1,9,1,8,4,4
8,9,4,3,2,1,1
8,7,4,3,1,2,1
1,1,1,2,23,0,4
1,2,2,0,2,6,17
1,0,1,0,1,1,3
9,6,10,0,5,1,1
6,13,8,6,6,0,0
2,1,2,3,1,1,2
1,12,0,1,4,2,8
2,6,2,1,3,3,1
2,13,9,2,3,2,1
7,2,7,8,4,2,1
3,0,2,4,5,1,0
0,3,2,3,16,2,13
0,4,1,1,5,3,7
0,19,3,2,1,2,2
12,3,8,3,1,1,2
3,1,2,7,2,12,1
1,2,0,3,0,11,9
0,12,2,2,6,0,7
2,10,1,2,13,11,3
14,26,8,2,3,2,1
3,1,3,4,0,0,1
2,2,1,1,3,1,6
2,26,2,0,2,2,10
1,2,1,0,1,0,1
7,6,5,1,1,0,2
7,8,5,5,1,0,1
2,127,1,2,8,4,3
1,16,1,2,2,6,15
0,99,1,0,2,1,2
4,88,5,2,2,1,2
12,6,9,4,9,0,2
2,1,2,3,1,4,5
2,122,2,2,2,2,10
2,33,1,1,6,1,2
4,3,4,0,2,2,0
10,1,8,2,1,38,2
2,13,2,6,2,9,6
0,2,1,3,9,2,11
1,24,1,1,4,2,3
3,9,1,1,2,1,2
13,194,3,0,6,1,1
1,19,6,7,9,2,4
3,4,2,4,3,2,8
1,21,0,2,9,1,2
9,12,1,0,4,1,2
11,198,5,1,2,1,1
2,44,7,4,6,1,2
0,234,2,3,1,5,10
2,10,0,1,3,3,2
8,114,1,1,2,2,1
16,4,3,1,1,0,1
1,90,8,1,1,1,3
1,89,5,5,0,2,12
0,25,2,3,1,0,2
5,12,1,2,1,2,1
6,1,3,0,1,0,0
3,3,9,2,1,2,1
1,90,5,4,2,21,14
1,13,1,6,2,5,4
2,14,2,2,12,1,1
9,22,0,1,6,2,1
3,3,6,1,2,2,1
2,122,14,1,42,1,10
1,45,2,2,5,1,3
2,17,1,1,1,3,1
10,15,1,1,1,1,0
4,7,6,2,2,5,1
1,0,12,2,3,3,12
1,183,2,8,11,2,3
4,20,2,1,16,1,1
14,331,0,1,2,28,1
3,12,6,1,1,3,1
2,444,9,1,2,1,9
0,29,2,6,3,9,11
1,32,1,3,35,15,1
8,7,1,0,7,2,0
10,3,1,1,6,2,0
2,2,18,0,21,0,7
1,1,4,5,2,0,16
0,200,1,7,3,4,1
7,49,2,3,2,2,1
7,100,2,0,2,2,2
2,5,8,1,1,3,10
1,2,9,0,6,3,6
2,81,3,3,16,1,1
2,198,1,4,5,1,1
11,10,2,2,1,1,2
1,47,10,0,0,0,7
1,3,5,1,1,1,3
2,1,1,4,2,3,1
1,243,1,4,1,0,0
8,22,1,2,2,1,2
1,152,10,1,0,2,7
1,17,7,1,1,5,9
0,17,0,1,4,1,2
6,142,1,4,13,4,2
13,16,1,2,5,9,2
3,81,8,2,1,12,8
0,102,7,1,4,2,10
2,29,1,5,10,2,3
8,25,1,6,5,2,1
12,134,1,1,10,12,2
3,15,4,1,1,4,2
1,1,16,2,6,1,14
0,15,3,1,0,3,4
2,57,1,3,2,1,0
7,127,0,5,3,1,0
3,26,2,1,0,2,4
3,37,8,2,1,1,14
2,3,3,1,6,4,1
0,77,1,2,2,3,0
5,9,0,6,8,0,0
3,96,2,2,2,0,3
1,73,13,2,15,1,11
1,27,8,1,3,1,1
0,118,1,0,5,5,0
7,22,0,5,2,4,2
14,54,4,5,0,1,5
1,5,8,3,1,2,12
1,125,1,1,7,0,2
0,21,0,0,3,0,1
8,14,2,4,2,1,1
12,55,0,3,2,5,4
3,5,11,2,1,18,4
0,74,3,1,10,3,5
1,28,1,1,5,2,2
5,164,1,3,3,3,3
9,11,1,4,1,2,1
3,116,11,2,1,1,8
1,27,3,1,16,2,6
0,21,2,1,5,3,0
1,61,2,1,2,3,1
8,42,2,6,2,8,2
9,5,10,3,0,8,8
2,39,2,1,2,0,6
1,196,1,1,7,0,3
1,26,2,0,2,3,0
10,79,0,2,2,2,1
4,21,7,2,4,2,4
1,48,8,1,2,1,11
2,8,3,1,10,2,1
1,15,1,2,2,1,0
8,0,1,2,1,2,1
5,69,4,5,1,1,4
2,254,4,0,1,0,7
0,60,1,1,5,1,4
1,5,1,0,1,0,2
9,3,3,1,0,1,1
12,22,1,3,2,5,1
2,84,3,2,3,1,7
0,26,3,2,3,9,2
2,5,0,1,2,5,0
8,109,1,0,2,1,0
13,64,1,1,3,1,1
3,56,5,2,1,0,3
1,18,4,1,7,2,7
0,41,0,2,11,0,1
2,49,1,1,6,2,1
6,26,1,4,2,2,1
3,1,3,2,2,0,4
0,50,7,2,1,1,15
2,132,3,1,14,1,1
1,8,1,2,4,5,0
3,140,1,0,4,17,0
3,155,1,5,14,3,4
0,77,6,1,15,1,11
0,13,4,2,2,0,3
3,37,3,0,1,1,0
19,268,0,2,1,0,1
5,15,0,4,0,21,3
3,22,11,5,1,10,9
0,80,8,1,8,2,2
1,141,2,0,2,0,2
9,12,1,0,3,9,1
11,139,0,2,1,3,1
1,39,6,8,0,0,13
1,15,8,2,2,1,2
2,3,1,2,1,1,1
4,56,1,0,0,6,0
13,62,1,2,1,2,0
1,68,5,4,7,1,9
1,150,12,4,10,1,6
0,33,0,2,2,2,1
7,100,1,1,30,17,1
9,11,0,0,3,5,0
2,223,6,4,6,0,10
2,54,13,6,6,1,6
1,49,2,4,2,20,1
5,32,1,2,1,4,0
11,67,2,2,2,3,2
0,22,3,1,2,1,7
0,99,8,6,1,1,10
0,72,9,2,1,4,1
1,4,2,0,2,7,1
10,2,0,1,1,1,0
4,44,1,1,1,0,7
2,16,8,3,3,0,6
2,72,9,3,4,2,3
5,68,2,1,0,1,1
12,99,1,0,1,4,0
3,111,1,1,4,1,4
1,12,8,8,1,2,10
1,165,9,4,2,0,1
3,18,2,2,3,2,1
5,107,1,2,1,0,0
5,121,0,1,3,34,2
3,6,1,1,3,4,9
1,2,10,5,4,0,9
2,32,2,6,0,0,2
9,11,1,2,2,3,0
10,68,0,2,0,1,1
1,25,3,1,0,1,5
1,53,3,4,0,0,8
1,32,5,3,2,1,4
12,2,5,0,1,2,0
3,82,0,2,2,5,0
2,48,1,1,1,0,2
2,49,9,0,5,1,6
1,32,4,4,12,1,5
9,35,2,0,5,12,1
5,2,1,1,1,3,1
1,167,1,1,1,2,2
0,164,5,1,7,3,15
1,8,6,3,7,2,4
3,6,4,4,3,0,0
12,196,2,1,4,1,0
0,6,0,1,1,1,3
0,43,1,1,4,1,11
0,60,11,3,43,2,3
17,102,2,3,3,8,1
1,9,2,2,15,8,0
2,3,0,1,3,2,6
2,5,5,1,1,1,9
0,114,11,7,14,9,4
8,16,1,7,5,0,2
8,23,1,1,8,8,1
1,18,2,0,4,5,0
1,2,4,1,7,2,9
1,121,9,1,10,1,8
3,16,4,7,4,2,2
9,97,2,2,8,1,2
7,55,0,2,2,1,1
1,67,1,0,1,2,1
1,26,20,2,2,9,8
0,19,5,4,11,6,2
10,231,1,9,5,2,1
6,27,1,1,2,1,1
1,12,0,0,3,1,3
0,62,12,2,1,2,9
1,38,2,3,3,0,3
9,92,1,3,0,4,0
3,13,0,1,18,4,0
1,97,3,0,3,3,2
1,9,11,0,1,0,5
1,38,3,1,1,1,3
3,3,1,6,8,1,1
9,12,0,3,10,1,0
6,34,2,1,2,5,1
2,12,10,0,3,2,5
0,36,2,1,14,1,8
1,22,3,5,3,2,1
13,37,2,4,1,1,2
2,7,1,1,1,20,1
1,92,10,0,3,4,1
1,94,3,1,9,1,7
3,45,1,1,3,2,3
9,30,1,12,1,2,3
3,78,2,3,5,1,0
2,5,6,1,7,5,0
2,79,6,1,2,6,7
1,6,2,3,11,0,8
2,37,0,6,1,3,1
4,13,1,1,4,2,0
4,94,5,1,1,3,1
1,13,5,0,1,2,5
0,19,3,4,7,4,12
7,9,1,3,4,1,2
10,0,0,2,6,1,2
2,26,0,2,2,5,1
1,12,5,2,1,0,4
1,148,4,0,7,1,7
10,43,2,9,7,2,2
6,32,1,3,6,2,2
0,3,0,2,1,1,1
1,0,7,0,8,2,1
2,96,4,0,3,1,10
6,6,1,4,12,1,2
10,39,1,6,1,6,2
2,67,2,3,7,4,1
2,20,2,0,3,3,0
1,30,3,1,2,10,10
5,70,5,3,0,1,5
9,29,2,2,2,5,1
4,90,1,1,1,1,1
2,19,2,0,3,0,3
0,36,5,0,1,1,14
0,18,5,0,2,1,3
7,35,2,1,2,2,2
5,17,0,5,1,2,0
4,85,1,1,6,3,1
1,8,6,2,3,1,11
2,14,2,1,2,4,2
12,214,1,4,7,2,1
4,30,1,5,3,1,1
1,25,1,3,1,10,2
1,2,0,1,5,1,11
1,88,15,2,7,1,2
16,10,5,1,2,8,1
5,37,0,5,1,2,0
2,7,2,3,1,5,3
0,24,6,1,5,3,16
0,140,7,0,3,1,2
15,5,3,1,7,1,2
3,0,0,8,6,6,1
0,39,1,3,2,9,1
1,70,2,1,3,3,10
1,50,9,1,1,2,5
12,6,5,0,3,0,1
3,1,1,0,3,1,0
2,5,1,8,4,1,1
1,57,1,4,1,2,6
1,9,9,1,2,1,9
11,18,6,0,1,0,2
2,16,2,1,2,1,0
1,2,1,7,2,12,2
1,44,1,3,2,2,10
1,3,3,1,1,2,6
5,141,8,2,3,2,1
9,29,1,0,0,0,0
3,47,1,5,0,1,2
1,46,0,5,0,9,8
0,33,4,3,0,10,7
7,81,9,2,6,6,2
3,123,6,1,2,1,0
2,7,2,3,1,7,2
2,4,1,4,2,1,6
1,76,1,3,8,1,13
0,10,6,2,4,0,2
8,56,4,0,5,0,2
3,12,2,7,2,1,1
0,12,1,7,1,14,6
0,116,0,4,1,58,15
4,20,10,2,12,7,2
13,3,4,2,2,5,2
7,2,3,1,1,1,0
3,74,1,5,0,0,8
1,17,1,8,11,5,9
0,8,2,5,4,235,1
2,156,10,2,3,16,0
11,15,2,1,1,7,1
1,65,0,2,0,56,1
0,11,1,3,1,10,9
4,69,3,1,2,10,7
6,13,6,1,0,9,2
7,64,4,2,4,1,1
2,43,1,1,2,0,0
2,3,0,7,1,0,6
0,25,0,4,4,1,11
2,90,7,1,13,1,2
1,9,5,3,1,14,2
2,7,3,2,2,17,0
1,2,2,6,1,1,9
1,88,0,2,1,12,7
5,17,0,0,17,7,1
12,48,11,2,8,6,0
4,63,2,0,2,3,1
1,4,0,7,2,23,1
1,63,3,3,7,23,8
4,21,7,1,2,43,4
13,38,1,2,6,40,1
4,62,2,1,2,81,1
2,9,1,0,1,6,5
2,62,1,7,4,32,8
1,13,3,2,2,15,6
2,29,6,2,0,81,0
2,7,2,1,7,93,2
2,10,1,1,2,45,1
2,33,1,2,2,89,4
2,42,3,19,1,9,11
8,7,10,2,9,5,1
9,19,1,0,4,35,0
3,2,0,1,0,77,2
2,35,0,5,1,18,4
8,17,1,2,9,50,5
4,2,13,2,5,181,1
1,1,4,2,4,6,1
17,0,1,1,3,7,1
4,62,0,1,2,138,5
0,13,3,4,3,13,15
1,75,6,2,2,92,3
47,4,2,0,4,5,1
11,18,2,0,2,101,0
0,27,1,1,0,82,2
7,10,1,9,3,159,6
31,49,6,1,1,35,5
60,33,10,1,10,23,3
6,38,1,0,1,27,1
38,44,1,1,2,5,1
17,5,1,2,2,146,7
31,2,5,3,1,82,6
29,0,5,3,3,15,0
17,78,3,0,20,26,2
29,57,1,0,3,64,1
2,74,2,0,2,36,9
0,5,4,6,0,44,13
0,9,4,2,2,134,1
0,13,6,1,8,133,1
0,6,1,2,4,7,2
2,30,1,2,3,6,6
1,11,2,5,1,6,9
128,21,8,2,10,1,0
24,9,5,2,4,50,0
57,9,3,2,2,295,0
39,1,2,2,0,81,4
138,13,0,1,2,6,8
17,67,7,5,7,202,3
60,28,6,4,0,25,1
9,40,1,2,0,18,1
2,17,2,1,1,70,1
0,9,1,3,6,100,11
2,66,15,6,9,40,9
105,12,2,1,1,11,1
140,17,1,2,1,0,0
12,10,0,1,5,45,2
1,148,0,1,1,35,5
0,5,7,5,4,149,4
191,2,6,4,2,420,1
15,47,3,2,2,18,1
2,6,0,1,2,2,1
142,89,1,2,1,1,6
59,33,1,2,2,269,9
112,18,10,3,20,34,1
48,13,2,1,1,44,2
4,15,2,2,17,96,2
9,90,1,1,3,6,4
117,35,2,4,2,5,13
4,38,8,7,3,156,5
96,72,3,3,8,214,1
6,12,2,0,1,9,2
1,20,1,0,3,22,2
26,2,0,2,4,90,9
141,1,13,5,2,6,3
14,21,4,2,0,6,0
42,2,1,0,1,165,1
3,81,1,0,1,16,1
1,96,1,0,2,139,7
78,38,6,4,2,5,5
29,24,7,4,5,30,1
47,51,1,1,1,236,1
48,8,1,0,2,10,2
86,2,0,1,3,148,5
41,2,2,2,4,31,3
150,106,5,4,9,2,2
67,21,1,4,3,0,1
26,49,1,0,5,30,2
2,11,1,1,2,83,5
0,127,1,0,6,110,10
250,42,8,4,3,4,2
44,3,16,6,1,16,1
114,29,3,1,18,65,1
11,2,1,2,2,5,4
2,19,0,1,2,57,9
46,79,6,3,4,47,6
24,15,9,5,2,57,1
14,118,3,2,1,10,1
288,59,1,1,2,1,1
146,3,1,0,1,41,12
26,5,5,1,3,10,3
10,29,7,4,16,64,1
1,3,2,0,3,29,1
94,56,0,0,2,4,1
24,3,2,0,1,145,8
157,79,4,2,0,28,5
12,31,6,14,10,22,0
7,14,2,1,3,24,2
8,21,1,0,1,18,1
90,1,1,5,3,14,8
73,83,3,2,5,70,12
36,47,7,6,3,17,3
61,12,3,4,1,74,2
14,2,1,1,2,6,1
0,12,0,1,3,106,3
184,119,0,1,6,25,11
36,13,7,3,8,71,2
18,29,4,9,7,81,2
10,68,1,2,2,5,3
2,10,2,0,2,3,7
8,78,1,2,2,2,7
98,7,1,3,5,101,2
113,13,4,8,1,147,3
13,45,1,1,7,24,1
25,30,1,0,1,2,1
89,6,0,0,2,105,9
29,1,2,1,1,15,4
17,20,11,4,8,106,0
23,32,4,2,1,164,0
69,21,2,2,0,46,1
36,57,2,0,4,12,4
182,20,2,1,1,0,5
41,17,6,1,1,56,3
4,20,8,1,10,154,0
2,5,4,2,2,17,1
79,2,0,1,1,81,2
139,27,1,1,1,16,9
27,47,6,1,15,45,4
2,86,7,5,3,77,2
102,9,1,2,2,4,0
33,68,1,1,2,16,1
6,9,0,2,8,241,7
3,3,7,1,4,13,7
17,36,8,6,2,45,3
87,40,3,5,2,7,1
64,45,1,2,0,60,1
7,76,2,1,6,37,8
105,8,2,0,3,18,6
9,27,10,3,2,156,0
54,11,4,4,5,120,1
2,39,2,1,1,49,1
123,29,2,1,0,4,3
30,39,4,0,10,104,7
33,7,6,1,4,96,8
2,2,1,5,2,8,2
23,25,0,1,2,35,2
3,28,1,1,26,66,4
99,46,0,12,3,109,8
86,32,4,3,3,37,2
8,68,4,6,14,11,2
1,5,4,19,1,5,1
104,75,1,7,4,196,1
19,5,1,20,1,30,8
47,77,3,17,3,4,4
37,19,8,6,2,2,2
132,12,4,1,2,4,2
9,16,1,1,4,3,1
7,4,1,26,2,31,3
3,67,1,5,0,63,10
43,7,9,2,0,48,2
36,26,7,0,0,33,1
6,38,0,1,0,45,3
1,4,1,1,20,14,1
13,27,2,7,5,179,4
207,69,3,13,3,7,1
9,14,6,3,1,7,1
49,4,3,2,0,138,1
28,48,2,2,1,13,0
137,14,1,8,7,3,11
7,81,1,95,2,2,3
5,38,7,54,2,2,1
131,2,3,5,8,143,2
16,105,0,2,15,66,1
1,37,1,1,1,12,11
113,4,2,2,2,49,4
30,0,8,125,1,10,1
13,0,4,56,2,3,0
65,10,1,21,1,48,1
25,48,0,2,2,37,9
37,10,2,182,8,28,11
18,12,7,66,1,16,2
6,0,5,6,1,88,0
0,0,2,54,0,6,1
109,7,1,98,3,76,7
160,5,0,340,2,19,4
22,2,3,22,2,3,1
3,18,11,3,29,182,2
1,4,1,7,3,14,2
198,52,1,2,1,2,8
27,31,1,96,0,2,5
7,5,2,7,4,105,3
53,34,16,542,1,38,1
18,13,3,50,2,27,0
2,7,0,4,20,1,3
17,1,1,3,4,1,9
85,3,3,65,2,49,3
96,21,15,66,2,110,1
6,6,3,7,1,5,0
6,31,2,260,2,15,2
9,9,0,131,3,5,6
12,2,1,6,2,6,5
54,13,15,1,12,14,1
47,48,2,41,1,11,2
9,21,1,17,1,64,1
4,17,4,131,2,143,8
56,3,1,31,1,7,6
9,2,3,18,0,0,2
109,2,3,316,2,250,1
16,13,1,37,3,29,2
64,31,10,4,7,3,5
4,4,2,1,3,1,6
54,4,1,406,2,77,1
93,3,14,45,3,31,0
6,48,2,8,1,42,2
1,42,0,3,1,19,3
259,27,0,64,12,351,10
25,4,2,135,6,13,2
130,0,1,118,1,2,0
50,102,80,243,2,1,1
5,24,15,10,2,6,2
1,12,75,2,1,146,9
2,1,5,66,1,66,4
4,1,1,15,2,42,1
124,2,1,34,3,67,1
8,9,0,49,2,28,1
71,3,62,113,45,31,9
41,80,25,4,5,14,8
70,6,35,14,5,147,3
77,2,4,9,2,98,2
7,67,6,15,4,13,2
1,15,29,24,3,77,1
155,4,63,12,4,19,9
130,9,9,277,1,1,1
35,2,70,35,1,18,1
5,20,9,40,0,16,0
2,22,9,5,2,41,1
184,12,108,93,10,13,9
38,2,35,29,3,78,5
2,3,2,11,1,41,1
136,2,161,0,4,74,2
9,1,8,267,1,25,1
18,0,3,58,1,2,1
6,167,60,7,1,40,4
9,63,71,25,0,13,5
81,6,118,0,21,1,2
33,2,27,362,11,58,1
51,2,20,33,3,30,2
94,28,2,9,11,15,13
7,9,61,3,21,5,2
0,8,60,53,1,3,0
309,2,99,133,2,41,2
129,0,9,27,0,103,0
38,45,94,2,2,56,8
76,14,74,22,55,5,2
12,27,69,43,8,1,1
2,2,10,29,3,46,1
132,30,106,77,1,119,1
22,2,111,35,0,50,6
46,12,9,166,3,31,9
25,24,0,9,10,5,1
17,10,79,87,0,91,2
4,57,276,34,0,90,1
41,5,13,70,90,10,4
54,25,114,16,11,6,11
15,21,271,1,71,4,3
89,24,32,84,16,7,1
14,20,3,118,5,5,1
0,2,104,127,3,102,9
5,0,122,4,1,17,9
29,17,178,9,11,3,2
5,16,22,96,4,169,3
13,15,7,94,5,88,1
5,2,141,8,1,93,3
103,14,235,0,59,15,11
157,33,51,281,56,99,2
26,15,58,27,6,8,2
5,1,5,22,1,0,0
61,11,57,9,7,176,0
92,9,54,428,12,27,5
15,4,165,69,53,45,6
2,24,46,37,10,4,3
41,50,5,5,1,64,2
40,8,71,1,14,31,2
19,52,53,107,27,13,8
33,7,314,37,42,3,9
26,1,11,2,5,11,1
7,9,95,20,24,160,1
5,2,157,1,61,16,0
20,29,5,121,8,54,5
51,7,116,31,2,5,6
128,1,147,22,1,13,2
13,1,25,9,1,1,0
12,8,74,4,21,261,1
74,20,8,117,42,52,3
5,6,92,22,13,4,9
96,1,8,279,6,2,9
113,2,20,42,28,142,2
72,1,51,5,3,100,1
14,13,275,7,1,8,0
1,4,10,0,55,2,9
2,1,3,96,21,5,2
0,45,52,131,3,293,2
132,20,107,6,10,38,1
77,3,12,43,28,6,1
9,2,42,9,1,5,6
2,3,34,2,5,10,13
103,7,62,126,26,76,1
17,6,32,68,25,51,1
5,12,9,5,16,5,1
23,2,242,46,20,0,6
9,49,58,27,5,2,9
27,125,4,24,4,0,5
36,5,1,35,2,70,1
45,2,93,129,14,5,2
28,2,35,55,8,78,1
20,64,4,4,3,96,10
33,9,2,1,39,10,2
2,1,22,83,10,1,1
94,3,72,17,9,95,0
154,103,4,87,9,94,1
6,105,3,58,3,22,11
2,4,64,13,3,15,3
133,2,14,10,33,32,0
12,2,25,11,34,46,2
150,40,39,62,16,3,2
5,133,37,32,10,103,11
67,6,3,2,19,5,5
155,100,49,39,11,1,2
7,20,63,71,4,141,0
13,2,124,12,1,19,2
3,11,5,5,38,46,8
81,27,29,15,9,26,2
50,58,32,115,8,14,2
32,56,29,175,8,12,2
3,5,23,17,19,75,1
22,7,67,7,27,112,7
15,175,88,1,9,16,7
17,7,6,11,3,44,2
2,2,1,55,3,3,1
95,13,16,47,3,4,0
80,168,41,7,17,1,4
14,33,151,24,10,105,2
9,3,12,12,7,15,6
0,1,27,113,12,5,1
68,59,19,10,32,134,1
79,101,80,1,20,6,3
6,102,5,235,6,7,8
6,9,19,30,3,74,5
2,1,95,3,30,48,1
8,31,61,103,5,3,0
98,61,7,9,2,60,1
11,140,2,149,41,14,11
2,5,30,14,15,18,3
32,1,85,12,6,19,0
40,150,24,1,26,7,2
6,64,39,45,28,32,2
47,52,17,71,3,3,12
12,14,10,158,11,78,1
40,38,33,9,42,13,0
10,170,148,29,6,170,0
6,8,27,75,10,24,2
58,2,10,9,4,48,10
42,75,9,11,19,120,5
3,176,13,39,4,6,2
7,8,5,67,1,2,0
8,11,54,5,15,70,2
149,47,56,28,14,9,8
4,15,90,9,40,135,4
1,28,46,37,6,8,2
17,7,14,2,2,205,1
24,28,72,104,3,10,0
74,6,9,39,35,13,1
44,12,17,25,6,1,9
5,113,68,33,2,3,2
1,7,30,10,34,73,1
2,10,173,62,6,7,0
22,141,7,28,13,3,1
2,95,47,3,17,64,9
81,7,15,1,41,18,3
45,0,21,93,8,4,1
25,2,28,55,11,1,1
34,13,41,35,7,64,0
8,73,128,9,7,11,6
45,5,3,10,8,20,5
5,14,2,147,3,28,3
80,61,103,11,5,112,1
58,11,31,2,4,42,1
15,3,21,6,0,6,9
3,10,2,6,47,118,11
2,7,19,25,10,10,0
61,2,61,12,25,84,2
31,0,22,60,4,37,1
3,20,33,68,6,15,3
116,36,3,6,9,3,11
38,54,3,21,7,30,2
5,4,28,9,1,9,2
30,5,149,16,1,67,2
19,95,13,31,2,103,8
1,13,0,93,84,4,11
15,1,33,18,10,2,3
12,1,212,97,11,17,1
37,29,7,164,3,6,2
83,44,1,17,8,9,6
11,9,20,36,10,13,11
13,2,43,5,14,6,1
3,2,60,1,8,27,0
6,9,96,8,2,92,0
6,21,13,42,0,67,2
0,4,2,77,7,15,9
22,10,46,8,14,129,5
73,3,92,30,6,15,1
11,28,5,80,3,1,0
77,6,29,17,4,108,0
61,1,28,2,11,10,11
8,2,111,88,19,7,1
1,33,14,44,13,119,1
5,15,2,14,4,19,0
3,2,19,17,6,88,1
2,2,153,2,12,41,7
63,1,73,62,20,4,8
52,32,5,4,7,0,2
45,30,15,78,25,2,1
18,5,14,58,16,72,1
14,5,23,9,2,44,4
66,2,190,21,4,15,8
6,33,75,8,12,32,2
21,17,4,18,24,3,0
5,2,19,30,22,64,1
1,2,62,3,5,6,3
174,46,35,58,11,2,9
17,21,43,63,6,301,3
1,4,15,58,7,38,1
55,17,17,5,9,89,0
60,2,74,2,11,36,0
6,2,25,15,17,13,7
2,9,11,13,8,34,7
24,5,30,72,9,4,2
3,4,70,24,8,2,1
11,29,25,12,1,109,1
49,12,2,22,1,30,6
4,30,14,41,9,2,10
69,4,66,61,2,26,1
29,2,24,18,3,123,2
22,2,333,61,1,11,0
13,17,15,6,41,41,10
0,4,8,28,11,19,7
42,0,7,3,3,40,1
93,2,63,0,13,13,0
16,41,29,94,3,22,0
20,7,44,26,13,20,10
11,2,34,35,1,33,4
36,1,117,40,5,17,2
10,33,4,2,7,37,0
17,31,12,34,3,10,0
33,26,8,72,2,9,6
15,2,55,25,13,62,7
3,2,57,7,12,99,3
7,41,23,69,15,8,2
33,6,2,18,0,1,0
22,4,51,81,2,2,6
7,7,47,47,28,16,10
5,2,13,14,3,34,1
9,30,18,10,8,81,0
10,7,80,20,6,15,0
25,16,7,112,8,8,2
67,2,62,2,17,1,5
28,6,8,4,8,46,3
104,2,15,26,1,9,1
24,39,40,96,5,29,1
2,9,11,27,9,76,1
26,2,2,2,3,7,9
58,14,48,115,6,57,7
66,22,41,29,9,14,1
9,3,15,10,4,99,0
31,7,1,61,9,6,1
3,12,15,11,15,90,15
36,25,56,73,4,11,3
4,59,26,4,1,14,2
24,8,41,3,4,1,0
19,2,18,211,49,69,0
23,2,7,21,10,117,4
24,2,30,28,5,128,8
15,21,9,19,26,5,4
2,8,12,64,3,1,1
109,14,66,65,1,127,0
12,6,15,12,9,57,1
15,16,6,49,5,18,7
90,4,1,27,25,23,1
22,2,35,12,4,2,2
34,1,111,7,2,0,0
13,0,35,17,5,13,0
5,13,4,9,8,95,6
39,15,90,79,3,74,7
2,6,31,13,6,6,1
241,1,5,44,20,49,2
16,1,78,46,13,5,1
9,1,7,24,7,95,6
5,69,2,48,5,27,9
6,12,28,9,6,21,1
34,1,39,22,13,33,2
4,4,42,18,10,153,1
0,16,6,14,0,74,3
62,8,54,3,3,8,8
8,4,22,113,24,13,2
3,2,3,13,4,46,1
1,1,1,6,6,86,0
88,13,7,2,31,145,0
15,10,115,3,4,9,7
1,17,16,216,10,2,6
18,2,32,38,2,2,4
21,8,3,3,6,0,2
44,18,13,3,3,20,2
6,2,58,26,6,14,6
2,2,12,28,7,83,5
89,2,70,5,7,13,2
40,28,5,10,7,100,1
6,5,24,93,7,31,1
23,8,14,30,9,2,1
10,3,15,93,3,3,13
11,0,11,46,10,21,2
3,23,19,11,3,96,1
29,8,40,118,11,104,1
9,9,40,11,8,10,4
51,30,17,17,9,2,12
3,3,7,55,9,1,4
20,11,18,25,1,20,0
3,5,2,13,6,50,0
1,4,88,20,9,44,6
15,9,66,79,3,21,10
4,2,9,102,31,4,3
35,1,3,7,8,2,1
128,2,2,3,16,43,0
14,7,53,80,6,23,2
2,2,34,21,2,2,10
1,1,5,2,2,1,1
8,26,5,23,20,36,1
34,8,2,57,9,198,1
4,6,4,33,8,22,2
51,3,34,2,4,2,7
25,0,75,26,2,1,5
34,9,32,0,3,15,1
9,17,10,171,4,117,1
27,4,17,22,2,4,0
15,1,53,38,2,164,10
3,1,8,9,11,36,4
38,18,5,2,7,7,1
94,5,180,49,6,2,2
21,14,8,40,9,0,3
1,1,87,71,3,1,9
2,2,12,8,5,0,8
28,3,6,16,15,156,1
7,6,92,37,11,76,0
20,1,33,4,7,6,1
24,1,26,2,6,25,8
2,1,4,190,10,4,9
70,22,65,22,12,19,2
18,12,10,55,3,6,1
2,24,60,5,5,1,1
40,1,9,3,8,117,4
25,4,134,53,34,25,11
33,19,7,6,15,7,2
61,2,46,47,2,90,0
31,1,10,17,7,85,0
6,0,16,65,21,7,1
3,12,58,21,2,37,11
0,13,28,8,0,11,3
58,21,16,23,24,123,0
100,1,5,43,4,34,2
8,9,8,3,0,58,1
1,14,25,34,10,8,11
1,2,63,20,5,95,6
1,2,12,74,2,95,1
2,0,49,10,1,7,0
57,2,16,1,8,3,4
33,12,2,45,33,1,10
134,5,106,12,10,2,1
17,4,4,36,2,46,0
1,2,3,8,6,85,1
2,1,16,7,2,12,4
1,13,14,6,4,22,10
2,7,124,54,1,15,2
30,2,6,27,16,5,1
81,0,2,25,4,29,0
13,3,33,62,15,148,2
16,19,34,8,8,5,10
4,7,9,3,2,2,3
2,1,96,6,5,0,3
9,1,15,25,12,1,1
30,6,17,10,6,110,1
4,33,20,139,6,41,7
1,33,62,33,9,39,10
5,2,8,15,1,4,2
11,1,34,18,7,3,1
13,16,87,3,14,0,2
1,17,5,37,7,123,9
54,4,17,10,2,11,3
128,0,14,3,3,5,0
9,0,10,67,22,32,2
1,21,3,91,5,45,2
2,6,76,7,10,5,2
208,2,27,42,8,5,4
27,1,8,17,2,120,2
2,1,1,13,2,127,0
17,7,57,32,9,6,2
14,24,21,47,3,14,0
7,2,4,6,15,9,9
9,2,56,75,4,99,1
4,2,17,35,20,90,1
6,10,8,3,5,6,1
6,19,72,3,3,1,2
70,2,10,19,1,132,9
6,2,31,15,4,202,5
32,2,27,19,8,11,1
3,11,35,13,16,3,1
9,15,5,82,3,6,0
41,1,13,7,12,2,4
31,3,31,1,13,0,9
9,13,12,95,4,12,1
15,13,2,25,2,3,2
53,3,23,54,3,1,1
4,1,5,12,5,56,4
14,1,143,130,9,82,16
11,14,17,14,4,48,2
17,7,1,52,3,7,1
48,2,33,3,2,2,1
6,0,25,44,11,30,4
4,1,97,43,7,11,12
16,7,26,32,8,43,2
9,15,128,29,15,10,0
1,12,12,10,1,11,1
2,3,37,8,4,0,4
47,2,63,35,2,3,10
6,22,26,10,2,53,2
2,4,8,32,26,53,1
1,1,2,18,12,2,1
0,0,6,3,6,63,7
43,1,36,76,15,269,12
146,13,30,39,2,19,2
4,13,50,6,2,4,2
2,3,4,7,10,2,2
5,0,3,111,3,0,4
13,4,2,4,3,22,10
6,19,5,86,1,6,1
2,5,16,11,10,3,1
32,1,35,37,30,5,2
17,0,2,12,2,3,5
108,3,64,26,17,1,7
6,14,5,28,16,0,3
6,10,54,32,2,67,1
20,2,25,32,7,31,2
5,1,19,24,7,1,2
44,3,9,5,4,1,10
5,18,101,5,2,32,2
4,2,68,5,2,31,2
11,0,75,15,24,2,0
6,0,44,27,14,1,1
37,5,29,3,6,1,7
56,18,18,34,30,34,5
7,4,60,109,6,16,1
11,2,42,6,0,72,1
1,1,37,40,6,5,1
5,18,32,7,7,1,6
4,2,7,56,8,2,6
0,1,1,107,7,79,0
25,0,1,15,7,6,1
54,2,12,37,0,7,2
24,7,97,3,12,2,3
2,13,20,61,2,4,8
2,3,12,47,1,3,3
16,1,3,12,17,2,2
3,0,77,58,6,2,1
36,9,122,9,3,1,0
5,7,58,6,2,1,19
13,5,5,46,1,11,9
18,0,149,7,16,13,2
3,1,26,24,32,3,0
2,5,2,1,13,4,0
8,11,17,3,6,46,9
21,3,65,96,26,5,7
7,0,119,36,3,1,1
3,1,15,3,3,1,0
0,10,122,14,13,20,1
83,5,71,11,2,16,8
21,1,5,4,9,18,9
3,0,0,20,3,3,2
3,3,41,3,3,11,2
1,3,82,128,10,36,2
9,12,73,8,1,4,2
16,5,6,41,13,1,8
18,1,3,9,9,2,2
2,2,15,4,3,0,1
1,0,197,63,4,2,1
10,11,15,24,1,2,1
5,8,2,11,4,1,4
1,3,16,68,30,27,2
2,1,76,34,14,22,0
12,1,6,17,5,3,2
14,17,50,23,24,1,1
2,2,22,22,3,3,8
0,1,47,3,4,6,9
2,1,103,74,2,5,3
5,3,3,6,6,3,2
14,14,8,21,2,1,1
13,3,12,52,9,1,3
12,2,16,10,8,1,12
2,1,81,10,27,7,3
8,3,28,25,4,14,1
37,15,46,13,3,14,0
11,3,19,35,14,3,3
0,6,8,2,6,2,11
2,2,110,1,2,4,2
46,8,15,87,19,5,3
5,12,33,8,19,2,1
57,2,40,2,9,0,10
29,3,51,81,5,1,8
34,1,19,56,9,24,3
3,2,15,16,8,10,0
0,18,78,2,4,3,1
94,11,71,7,7,1,4
9,2,21,18,2,1,10
50,9,46,9,2,0,2
47,5,127,49,23,20,2
5,11,5,17,11,18,0
2,5,16,7,4,2,5
47,1,10,73,1,2,8
60,2,170,9,5,13,6
10,5,63,15,9,9,2
1,15,5,11,2,2,2
1,4,20,9,1,1,1
30,1,29,68,19,0,7
85,2,35,41,21,1,5
12,22,186,3,3,1,1
8,20,8,4,19,2,1
26,4,40,38,3,4,0
14,4,45,36,20,6,5
2,6,32,11,2,12,3
3,6,123,70,0,1,2
14,6,66,8,7,0,0
1,2,6,20,15,10,0
7,1,10,22,5,1,4
72,2,132,3,2,12,11
43,18,15,9,2,4,1
84,7,13,18,2,1,4
4,7,3,12,34,13,2
3,1,53,16,25,13,3
22,3,11,5,3,2,8
13,15,0,47,4,0,10
16,5,101,5,1,2,1
18,12,35,20,6,11,1
1,2,29,28,18,10,2
40,1,5,79,8,1,11
137,11,49,20,3,2,5
5,8,36,37,9,1,1
2,3,122,4,9,21,0
116,2,32,9,5,10,2
28,8,102,2,2,0,5
43,10,33,93,4,0,3
5,10,4,60,3,1,1
91,2,2,9,4,1,1
57,1,37,6,8,11,2
3,6,62,58,16,1,8
26,30,15,15,9,1,5
28,2,2,64,3,2,1
54,0,0,38,2,14,1
5,5,42,36,3,3,2
3,3,19,7,0,2,3
1,20,109,2,7,7,7
10,12,5,27,2,2,2
30,2,16,117,6,4,1
6,2,7,8,5,7,0
9,10,53,17,3,2,3
18,7,15,16,32,4,11
14,9,13,9,26,26,1
34,1,2,10,2,4,1
8,1,57,3,2,1,2
21,3,12,40,19,2,4
15,13,180,78,28,1,9
43,9,7,12,3,1,4
4,3,42,41,16,0,2
42,2,46,12,8,2,2
4,18,16,42,4,0,0
27,7,142,16,2,6,7
27,6,23,17,20,5,12
3,1,10,29,4,1,2
47,1,31,11,4,1,2
20,4,49,12,2,0,2
3,4,16,25,16,4,9
7,1,2,21,3,17,7
2,2,10,40,5,10,2
8,3,3,2,7,7,1
38,9,5,25,2,1,0
14,15,46,33,1,2,1
13,14,11,47,12,2,11
2,1,14,21,15,2,4
2,2,24,17,8,1,2
9,3,6,6,2,1,1
47,9,8,5,3,3,4
12,17,14,35,14,1,5
2,1,3,32,3,6,1
9,1,40,18,11,24,0
37,19,157,12,10,4,0
20,13,26,45,3,1,7
2,8,29,43,5,2,6
1,1,7,42,4,2,1
33,6,42,38,5,2,0
5,10,41,14,2,10,2
2,8,31,2,0,1,1
9,4,39,40,7,1,11
1,2,65,18,3,2,7
2,2,62,33,11,2,1
10,10,6,28,3,1,0
2,7,2,37,0,2,1
0,4,5,10,6,0,9
3,3,20,2,36,1,8
8,11,19,17,10,1,1
21,6,9,3,3,41,1
17,1,23,65,1,8,1
14,1,9,26,14,2,3
2,6,47,3,6,7,7
10,1,33,89,1,7,2
37,7,63,11,1,1,2
5,8,5,17,2,3,1
2,1,50,9,1,1,1
15,1,34,40,15,0,8
8,1,7,48,6,0,7
53,8,9,25,18,2,2
4,7,2,5,2,5,1
16,5,4,4,3,1,1
6,3,107,14,17,1,5
33,2,14,61,13,16,5
13,0,38,11,5,12,0
1,21,21,6,3,2,1
10,9,48,13,0,5,0
15,1,8,13,18,3,2
1,1,12,45,3,1,10
0,1,10,27,2,1,1
2,10,15,9,1,3,1
46,5,2,80,9,0,2
15,0,18,21,2,7,2
1,1,22,6,2,24,11
0,1,25,35,11,7,4
1,23,17,10,1,5,1
19,6,136,42,17,1,0
5,1,6,24,6,0,4
0,1,4,24,21,1,9
1,3,23,5,2,0,3
10,7,150,25,19,1,1
3,9,7,55,2,2,1
4,2,8,29,5,10,0
0,0,1,26,9,2,7
0,2,84,9,13,2,6
2,9,14,2,6,2,1
12,10,2,4,4,1,1
60,3,18,2,13,4,1
14,1,23,2,0,2,8
2,0,3,5,1,4,8
3,10,123,17,5,1,2
3,4,58,33,5,1,2
17,2,4,15,2,2,1
4,1,32,5,3,1,4
13,0,4,2,8,22,8
5,11,2,20,2,3,4
8,8,41,16,1,1,2
1,2,2,62,10,17,3
1,0,14,12,16,6,2
0,1,6,24,8,1,8
13,11,72,7,8,1,1
8,8,13,4,5,9,1
1,2,15,44,3,2,0
1,0,8,13,1,18,0
6,1,31,4,6,46,2
32,17,3,25,6,3,12
5,4,19,3,2,9,2
1,2,45,1,2,15,0
2,2,6,76,9,2,0
3,1,4,6,5,2,9
5,6,26,13,26,9,11
10,18,13,86,13,9,2
2,2,3,16,2,1,1
0,0,3,8,12,4,1
0,2,31,7,2,10,6
5,7,25,8,1,2,9
6,9,41,18,3,2,0
1,2,5,9,1,1,0
1,1,3,6,1,2,2
1,0,10,61,2,1,4
4,4,42,6,0,2,6
10,18,70,27,13,3,2
6,2,8,2,8,7,2
14,2,2,13,6,1,0
7,0,9,2,9,7,1
2,5,43,5,2,9,10
15,12,15,41,8,4,6
18,1,25,89,6,1,0
1,0,10,18,1,2,1
4,0,17,6,5,3,3
8,5,40,3,4,8,7
7,12,29,3,2,2,2
3,3,5,1,11,2,2
2,0,1,2,12,18,0
1,2,3,2,3,2,2
5,19,26,1,9,0,9
12,16,37,16,5,9,9
2,2,17,5,1,3,1
0,3,77,3,4,2,2
2,1,9,1,3,1,2
12,5,5,6,1,35,2
6,14,6,24,11,10,11
1,1,30,9,2,3,1
0,2,3,1,2,2,2
2,0,11,1,1,0,1
22,7,81,2,18,6,3
2,10,5,7,3,1,12
6,2,45,8,1,2,1
2,2,3,27,2,1,1
4,1,45,60,16,16,0
8,11,49,10,6,41,6
11,10,3,51,0,6,8
2,2,53,126,1,1,3
0,2,16,6,3,1,1
2,1,1,2,6,0,1
2,12,2,60,6,1,0
4,9,12,43,19,14,9
4,3,3,3,4,2,6
2,2,9,1,0,1,1
0,1,56,2,2,1,2
3,10,10,160,1,0,1
11,5,13,18,0,0,6
3,1,61,2,6,1,9
0,2,4,0,1,4,2
2,1,23,0,1,5,0
6,13,99,9,1,6,1
12,5,6,99,6,9,6
18,2,128,38,2,3,6
1,1,5,22,1,1,1
12,0,3,8,1,2,2
1,10,3,34,3,1,1
5,3,8,4,3,33,2
10,2,37,42,4,10,10
1,1,100,9,3,1,4
1,3,10,25,1,0,2
12,8,1,15,1,20,0
4,10,1,2,0,3,0
2,3,9,19,8,2,8
0,1,2,3,3,2,6
4,1,20,8,3,1,2
10,12,2,1,1,1,2
8,7,38,2,3,0,0
1,1,10,4,6,4,11
2,0,37,19,2,7,5
2,2,23,37,1,6,1
28,9,7,50,4,2,1
10,5,25,5,3,6,1
6,2,6,2,5,3,2
2,0,17,6,6,7,4
6,2,1,64,1,0,4
14,2,15,5,2,1,2
1,12,4,2,5,10,2
2,1,3,23,3,24,0
0,1,13,4,0,2,7
4,0,13,39,1,2,5
7,6,2,7,1,0,1
7,8,1,5,1,1,0
4,3,0,3,5,1,1
2,2,1,11,4,17,10
2,1,2,3,2,2,4
2,2,4,9,1,1,2
2,9,4,16,0,1,0
3,9,2,5,7,3,1
1,1,1,3,3,12,10
2,1,0,1,1,3,3
4,2,7,0,0,2,2
12,13,9,8,1,2,1
1,3,17,21,3,4,0
1,2,5,3,4,0,8
2,0,1,1,14,1,7
9,2,40,7,3,0,2
15,13,17,20,1,0,1
1,2,5,4,0,13,2
1,1,11,2,1,3,8
0,0,1,3,0,6,15
6,2,13,32,3,3,1
8,13,3,87,1,1,1
8,6,43,11,1,3,0
1,1,7,2,7,5,5
1,0,26,1,29,2,7
8,1,10,14,6,1,2
7,8,2,43,0,1,0
9,11,9,4,6,1,1
2,2,7,5,1,10,1
2,1,5,24,1,2,9
17,0,5,27,1,0,5
4,5,7,8,1,5,3
1,11,1,9,1,3,1
0,2,2,5,4,2,1
1,2,11,88,7,6,4
3,0,28,8,10,11,6
11,12,2,5,1,1,2
8,5,2,1,1,1,2
2,1,76,1,1,20,0
0,2,7,8,15,7,6
1,1,21,42,4,2,12
13,18,62,23,6,1,1
8,6,4,10,11,1,1
1,2,1,28,1,2,2
2,1,14,7,2,1,4
2,1,2,16,17,0,7
11,11,2,6,19,1,1
5,9,1,7,2,0,1
3,3,2,2,1,20,2
1,1,4,7,14,2,1
3,0,14,5,4,1,16
25,11,1,13,4,1,6
4,6,13,3,1,1,1
2,2,15,5,34,0,1
2,0,8,1,12,0,4
2,1,1,1,4,1,13
13,14,1,2,1,21,2
4,5,13,1,0,2,0
2,1,9,2,12,1,0
1,0,2,10,20,8,2
1,2,2,2,3,10,9
3,15,0,2,4,0,7
3,2,1,1,1,1,2
4,0,6,1,1,1,0
0,2,1,10,11,0,0
1,1,2,27,12,0,4
8,16,1,21,1,7,6
13,5,1,5,4,2,2
2,1,0,10,18,5,1
0,2,2,3,7,1,0
1,1,0,1,7,1,4
5,13,3,0,25,0,9
9,3,1,1,4,0,4
2,2,1,1,29,1,1
0,1,5,14,38,5,1
0,1,9,26,4,2,2
0,10,3,3,0,0,5
9,4,1,2,5,1,4
11,1,1,1,13,12,0
1,1,9,12,39,14,0
1,0,3,3,5,2,0
3,8,1,2,1,0,10
11,8,1,0,9,1,4
3,2,2,11,21,1,1
1,0,3,14,2,2,2
6,1,13,3,1,18,1
2,7,5,2,15,3,7
6,13,2,2,19,1,5
2,1,1,12,21,1,0
2,2,2,17,2,2,1
1,1,1,3,19,2,0
2,7,2,1,1,2,3
9,14,0,1,11,1,7
7,2,1,41,4,6,4
1,1,3,9,12,8,1
0,1,9,1,12,4,1
8,10,3,2,3,1,0
6,9,1,1,2,0,1
3,3,1,4,20,0,5
1,0,12,12,3,1,1
2,0,6,2,12,14,0
0,7,1,2,16,2,2
0,14,1,1,6,1,7
10,3,0,4,8,7,8
9,1,1,3,13,16,2
1,1,0,4,28,1,1
1,8,1,1,22,0,1
0,10,1,2,3,0,3
8,1,0,5,8,2,5
6,3,0,4,11,2,3
0,0,1,1,3,2,0
1,7,1,1,1,4,1
0,11,1,2,5,20,0
12,1,0,7,4,3,8
5,1,2,24,6,2,6
3,1,1,8,22,1,2
1,9,1,2,11,2,1
0,8,2,1,25,0,0
13,4,0,4,4,0,2
13,1,1,3,2,1,7
2,1,1,3,2,2,3
2,1,6,1,13,2,2
2,16,6,4,7,2,1
4,3,1,2,2,0,4
3,2,1,2,13,4,8
1,1,1,4,9,31,4
1,1,3,3,71,3,1
2,12,6,1,7,5,0
12,5,0,2,2,1,1
5,0,1,8,1,2,9
2,2,0,4,0,4,8
1,2,2,2,0,1,3
2,10,10,0,1,2,1
6,6,1,2,2,2,2
11,2,1,2,29,1,6
2,1,2,1,6,1,7
0,2,2,1,1,4,2
0,11,12,2,0,1,2
6,2,2,1,9,4,1
5,2,1,1,13,4,5
9,1,0,19,2,2,14
2,3,2,3,0,2,2
0,18,10,2,1,1,0
2,3,2,1,11,2,0
15,0,1,1,5,0,4
1,1,1,12,16,0,9
1,1,4,6,2,2,1
2,11,10,1,0,2,1
5,4,3,15,4,6,1
10,2,1,3,2,6,3
1,1,1,4,6,1,12
1,2,1,5,2,5,4
2,11,7,1,7,5,1
3,5,6,2,2,1,0
18,1,1,1,2,2,0
4,2,0,3,1,0,9
1,1,2,4,2,3,4
0,13,1,1,2,2,1
3,4,8,0,4,2,1
14,0,3,1,4,3,2
4,2,2,15,9,11,8
1,3,1,1,2,1,7
1,11,1,3,1,1,3
4,4,11,2,7,1,2
11,1,1,1,5,1,0
4,1,1,4,3,2,4
3,0,2,2,3,2,10
0,9,13,5,4,8,2
3,4,13,0,2,11,0
12,3,2,2,0,1,1
2,1,1,1,4,1,2
1,1,1,6,1,2,5
0,11,4,3,2,0,4
2,5,2,2,0,8,1
9,1,2,0,2,1,1
6,1,1,3,4,1,0
2,0,2,9,0,4,7
1,10,4,6,3,3,4
9,8,2,0,3,0,2
14,3,1,0,2,1,1
5,2,2,2,2,1,2
1,0,1,3,1,1,12
0,9,1,1,0,0,4
4,8,9,3,16,3,1
12,1,3,1,6,2,0
4,0,2,1,1,1,1
1,1,1,1,1,1,10
1,5,0,6,2,9,4
0,14,5,11,3,9,2
9,2,8,1,10,7,0
6,1,4,0,5,1,2
2,1,1,5,6,1,7
3,2,1,19,3,1,8
2,6,12,1,4,1,3
5,3,2,1,2,8,1
9,2,0,0,2,2,0
4,2,2,5,8,1,1
0,1,1,6,1,0,10
0,9,3,3,1,0,2
0,4,7,1,0,6,2
10,1,4,0,1,3,2
5,0,2,1,2,5,1
1,1,1,5,1,2,3
0,11,2,3,0,1,3
2,7,4,2,1,6,1
16,1,2,2,3,2,2
2,2,2,1,6,1,1
0,4,1,1,3,1,4
1,2,1,8,2,2,8
6,9,6,2,0,4,2
3,1,10,2,2,11,2
0,1,0,2,3,3,1
1,127,1,2,5,0,8
0,16,1,7,10,2,6
1,11,2,2,1,3,2
18,27,8,1,1,9,2
5,2,5,1,11,4,2
1,50,1,2,3,0,3
1,257,1,7,2,0,6
1,16,5,2,1,6,3
10,2,14,14,2,18,1
5,25,3,2,2,1,2
2,21,1,1,6,2,1
1,32,0,4,2,8,7
15,19,3,5,3,3,4
6,5,5,1,0,4,2
5,35,2,1,5,5,1
1,7,2,2,2,1,1
2,38,1,3,1,1,8
2,62,3,4,0,0,10
15,18,5,0,0,0,3
4,26,3,1,1,4,0
3,1,1,0,4,1,0
1,131,1,2,1,1,7
1,46,1,2,0,0,10
8,185,6,3,3,2,3
5,10,9,1,2,2,1
2,3,2,0,3,3,0
1,4,1,2,5,1,0
1,4,2,4,4,8,7
14,173,8,5,2,3,3
6,157,7,1,1,4,0
2,37,3,0,2,27,0
1,25,1,2,1,3,2
3,1,1,7,2,2,10
15,1,3,8,3,0,3
7,116,19,3,3,16,1
1,20,3,1,1,1,0
1,1,1,0,6,1,1
2,380,1,5,4,6,4
11,46,3,6,0,2,6
9,5,9,1,1,2,1
3,7,4,2,1,3,0
1,71,1,1,2,2,0
1,7,1,2,8,2,7
10,145,0,6,4,0,3
6,62,9,2,2,4,0
2,26,6,1,1,7,1
0,21,1,0,2,0,2
2,74,1,0,2,2,5
3,112,0,2,1,3,8
22,2,3,7,1,2,3
3,103,5,0,2,5,1
2,471,4,1,1,2,2
2,23,1,1,2,2,4
1,4,0,1,5,1,4
12,18,2,10,5,1,1
1,4,8,2,0,6,1
1,4,3,1,1,1,0
2,21,1,1,3,1,2
6,88,1,0,2,1,9
11,64,2,1,0,0,7
1,147,1,2,2,10,2
0,18,9,2,1,11,1
0,1,3,1,0,1,0
6,16,2,1,3,1,5
8,126,2,7,3,0,10
7,12,1,3,2,19,1
2,195,10,1,1,5,0
0,42,4,1,0,1,1
3,101,2,1,5,0,4
12,100,1,1,3,2,7
2,119,6,9,1,9,3
1,18,11,3,1,2,1
1,17,1,2,1,3,2
1,66,0,0,1,1,1
8,76,1,4,9,3,8
3,19,6,14,1,2,2
1,2,7,1,2,1,1
0,52,3,0,1,1,1
3,88,1,0,1,1,0
8,25,2,2,2,0,6
3,70,1,1,1,2,5
4,22,9,1,1,2,0
1,2,4,0,1,10,0
2,318,1,1,1,2,0
12,28,2,1,4,1,2
4,4,0,3,0,1,10
0,15,1,3,0,3,2
0,232,9,0,1,2,2
1,15,5,1,1,2,0
10,27,2,1,1,11,2
5,182,0,1,2,15,10
0,67,3,13,1,4,4
2,80,6,3,1,1,1
2,5,2,1,0,1,1
7,1,1,1,8,1,7
11,69,2,5,3,1,12
1,163,1,6,2,3,1
2,30,8,1,2,4,2
1,62,4,0,0,1,1
8,2,0,1,1,1,7
4,4,1,0,1,9,9
2,110,1,6,0,4,3
0,8,2,2,1,0,1
0,21,10,1,2,2,0
2,158,2,1,1,0,4
19,10,1,1,13,0,2
3,69,1,8,3,14,1
2,5,5,2,1,8,0
1,126,7,2,0,1,1
0,12,2,0,2,1,1
24,75,1,1,2,2,4
3,43,1,0,1,15,1
2,3,3,6,2,4,3
1,20,6,4,2,2,0
2,2,1,1,0,1,1
14,19,2,1,2,1,7
5,121,1,1,5,8,11
2,5,0,3,3,3,1
1,6,10,11,1,2,0
7,22,3,0,1,2,1
17,64,0,2,2,0,4
3,21,2,3,2,1,10
0,2,0,2,2,3,2
0,44,7,3,2,4,1
2,46,5,1,1,5,1
9,13,2,0,1,1,3
2,26,1,1,1,1,7
2,6,3,4,2,0,2
1,69,9,1,0,8,2
1,29,7,2,3,9,1
7,209,3,1,3,3,3
6,11,1,1,3,6,7
3,40,1,1,2,4,3
1,19,0,8,1,11,1
1,58,11,3,1,2,2
4,8,3,0,2,1,1
11,53,1,2,2,10,3
3,29,0,0,6,1,2
1,5,5,4,2,2,1
0,33,9,1,1,2,0
7,39,1,1,1,1,1
2,11,1,0,0,1,2
1,13,2,0,4,0,11
1,7,0,3,3,15,2
2,127,6,9,0,3,0
2,33,10,1,1,1,0
1,7,1,0,1,2,2
1,6,1,0,0,1,6
2,124,2,2,5,5,2
2,31,5,2,10,2,2
1,19,8,0,0,0,1
11,5,2,1,2,5,3
5,212,1,1,4,11,10
0,8,1,0,4,2,4
1,75,8,6,7,2,1
1,8,8,3,0,1,0
9,100,2,1,1,2,3
5,10,1,0,1,2,7
3,2,0,1,2,1,2
0,16,4,2,2,2,1
0,6,13,5,4,5,1
5,9,2,2,0,1,2
8,36,1,1,0,0,7
3,5,1,2,1,0,4
1,1,2,1,5,1,1
1,71,8,6,3,12,2
2,38,1,2,5,2,1
7,82,2,1,2,1,2
7,18,1,1,5,7,10
3,36,0,1,2,22,1
2,17,9,4,3,1,0
1,1,5,3,2,1,2
11,192,1,1,2,1,4
15,37,2,1,2,5,9
2,13,1,0,2,3,2
2,10,7,1,0,1,1
0,116,10,2,2,1,1
3,22,2,2,2,11,1
2,8,2,1,1,8,8
2,0,0,0,3,1,4
1,45,7,2,2,9,2
1,4,8,2,1,1,0
5,1,2,2,3,0,1
8,119,2,2,1,1,6
1,32,1,2,2,1,3
0,35,6,0,3,1,1
1,37,8,1,1,1,0
3,61,3,3,2,1,1
6,3,1,0,1,2,4
10,0,0,1,0,33,9
1,31,1,1,4,4,6
1,14,7,2,5,1,1
6,100,5,7,1,1,0
7,15,1,2,0,2,2
2,77,2,2,1,1,4
2,12,1,0,1,2,8
0,6,1,0,3,3,2
2,6,9,1,4,33,1
18,2,2,6,2,5,2
4,87,1,2,1,16,7
2,50,0,1,3,12,11
0,20,3,2,9,1,1
6,4,9,5,1,5,0
15,110,3,7,3,0,1
4,2,2,1,0,18,6
1,90,0,0,0,23,8
0,122,1,1,6,3,3
0,6,2,5,0,0,0
5,2,8,3,3,0,1
7,34,2,2,2,1,3
1,2,3,1,0,0,6
0,49,1,1,3,3,2
1,15,8,5,2,32,2
13,68,7,6,0,4,0
3,32,1,1,1,8,2
0,9,3,0,2,2,10
0,23,2,2,2,1,2
1,23,2,2,9,13,2
9,7,7,7,3,13,2
5,2,4,2,1,9,1
5,123,0,0,0,2,9
0,16,0,1,8,1,8
1,4,1,1,2,28,2
1,0,10,5,1,4,0
11,79,2,7,0,1,3
3,74,0,2,1,2,9
1,43,0,1,2,2,8
1,12,1,1,1,12,3
4,2,6,1,2,19,1
9,14,4,5,1,3,2
3,74,3,4,1,0,2
0,8,1,1,5,2,8
1,4,1,1,6,56,2
9,25,5,1,6,13,1
10,13,10,0,1,6,1
2,95,1,2,1,2,1
2,10,1,0,1,1,9
2,77,1,2,2,3,2
2,36,2,1,1,44,2
18,55,5,5,0,8,2
3,3,3,6,0,1,0
1,2,1,2,1,1,6
0,0,1,2,0,1,9
3,4,1,0,1,0,3
9,1,10,0,0,9,2
6,91,2,9,1,4,0
2,27,1,2,2,2,2
1,9,0,2,1,0,5
0,49,1,2,1,1,2
8,3,4,0,8,16,3
7,15,4,3,4,8,0
1,16,2,4,1,21,1
1,64,1,0,1,3,2
0,57,1,2,1,1,4
7,18,7,1,3,31,2
8,31,8,0,2,3,1
4,26,1,12,1,1,0
0,9,1,3,5,2,6
1,1,1,0,4,1,10
2,26,7,2,0,48,3
10,72,11,1,1,16,1
10,21,1,3,1,3,1
3,3,0,0,3,18,10
1,64,0,1,3,1,6
0,88,2,1,5,1,1
1,8,11,1,0,6,1
1,1,2,7,0,27,1
5,13,1,1,1,2,10
1,124,1,3,0,2,8
1,29,6,1,1,5,2
14,1,11,1,1,4,1
9,10,2,3,2,1,1
1,6,2,8,2,27,3
1,49,1,2,0,11,9
2,62,5,2,1,2,3
11,73,10,0,2,1,2
2,87,2,0,0,1,2
1,9,0,5,2,5,0
0,1,1,3,1,7,10
1,24,8,1,1,1,1
5,46,8,1,1,1,2
2,6,2,2,3,0,0
1,2,0,3,6,0,2
0,4,1,2,2,1,9
1,21,1,1,2,6,9
8,7,11,2,3,24,1
13,3,4,1,0,3,1
1,28,1,1,1,2,1
2,46,0,1,5,1,5
1,35,1,3,2,2,9
6,12,9,4,1,0,2
12,46,4,2,2,1,1
1,4,1,2,0,16,0
1,2,1,1,4,14,8
1,89,3,1,0,1,7
7,11,9,2,2,28,1
16,24,6,1,2,4,0
4,93,3,2,3,1,0
2,53,1,1,1,27,3
1,5,2,1,2,7,6
8,46,3,3,1,16,3
9,27,9,0,0,13,2
3,3,1,2,1,16,0
0,47,0,4,1,9,1
1,32,1,2,2,10,12
1,4,2,1,1,85,4
16,1,10,1,1,14,2
3,9,2,1,2,2,2
1,56,0,3,2,8,0
2,83,2,6,3,1,7
6,18,1,2,1,5,7
15,6,10,1,0,131,1
1,12,5,1,0,5,1
0,78,1,2,1,72,2
0,7,0,7,3,12,1
8,17,0,4,3,1,6
4,10,10,2,0,2,3
7,78,1,0,1,36,2
4,10,0,1,2,8,2
1,8,2,3,2,59,3
2,131,1,4,2,12,6
6,7,9,2,2,6,2
12,6,5,1,1,93,0
1,56,2,0,1,42,2
2,7,1,2,4,5,2
2,1,0,2,0,5,8
8,104,5,2,1,33,4
1,5,6,0,0,6,2
1,15,3,1,1,16,1
2,24,0,4,1,3,0
2,99,1,12,1,28,6
3,7,1,1,0,111,9
12,4,13,1,1,14,2
4,21,3,0,3,110,1
2,25,1,2,3,36,1
1,1,1,8,6,3,2
1,2,2,7,0,65,9
11,60,9,0,1,53,5
1,80,4,2,1,16,1
1,57,0,0,1,11,1
4,11,1,6,14,49,1
5,2,0,3,2,109,9
4,2,10,1,1,2,8
2,62,2,2,1,120,2
0,14,0,0,4,157,1
2,2,0,4,1,7,2
7,2,1,6,2,101,3
10,44,6,4,2,81,12
7,18,5,1,1,22,3
7,5,1,0,5,13,0
2,5,1,16,4,172,1
1,36,1,4,2,76,5
33,16,6,1,2,6,9
8,2,7,2,2,135,4
2,24,1,1,1,56,1
1,85,2,3,2,18,2
2,6,1,4,3,77,3
2,36,3,4,1,23,9
5,52,5,2,1,44,4
2,7,2,0,2,33,1
1,9,0,1,1,88,1
1,17,1,2,5,6,1
5,24,2,5,1,14,9
12,22,13,2,1,104,9
3,98,1,0,0,11,2
1,61,1,1,0,1,2
8,8,1,7,7,136,2
21,3,0,2,0,70,5
2,17,8,1,0,155,11
1,50,4,1,0,6,2
10,14,1,2,1,25,1
38,25,1,0,2,74,1
206,31,0,8,3,17,4
9,19,4,4,3,18,11
12,8,5,1,1,167,2
2,2,1,0,7,47,0
245,22,1,0,4,38,1
96,96,2,1,6,134,5
48,18,4,5,3,8,12
30,1,11,2,2,2,2
2,2,1,1,0,1,1
220,30,1,1,1,139,1
140,14,1,0,1,45,2
9,1,1,9,2,163,15
77,0,8,1,1,6,0
6,260,1,1,1,98,1
9,14,1,2,2,73,2
38,40,2,2,3,21,7
24,100,1,3,3,113,10
320,41,8,8,1,22,2
35,30,7,4,1,94,0
5,4,2,1,1,65,1
26,39,1,1,2,4,5
3,16,1,0,3,121,11
0,69,5,8,1,10,2
47,14,9,2,4,85,1
53,2,1,2,5,14,1
58,0,2,1,1,207,4
177,160,0,2,2,15,9
22,25,0,4,3,33,3
34,15,9,1,3,1,1
10,12,5,1,2,89,1
147,6,1,0,0,95,2
276,63,2,4,1,29,9
14,166,2,4,7,40,3
30,8,8,3,3,5,2
2,4,7,0,2,81,1
1,4,1,1,2,42,1
1,1,1,2,2,2,10
0,57,2,2,3,29,5
156,15,7,3,0,168,1
15,88,8,2,0,27,0
55,48,1,1,0,3,0
7,6,1,1,1,131,10
151,44,1,2,5,144,10
68,42,4,1,1,27,3
6,40,7,3,1,43,1
3,3,3,3,1,2,1
134,16,1,2,0,164,7
9,6,2,1,2,102,5
2,15,1,7,3,8,1
0,65,3,2,1,1,1
168,90,6,2,8,2,2
99,7,3,2,1,119,12
7,3,1,5,2,12,8
3,11,0,3,3,29,1
17,30,4,2,2,66,1
150,53,5,1,0,28,0
74,6,1,1,1,6,9
40,2,1,0,0,1,9
4,23,2,1,5,22,2
86,2,2,5,1,7,0
14,48,9,0,2,10,0
47,83,2,1,1,239,3
16,16,1,1,1,36,10
113,5,0,0,5,2,4
49,3,1,2,2,22,2
72,27,10,2,3,128,2
32,8,3,6,2,242,1
42,57,0,1,0,10,13
139,6,1,0,2,6,3
9,49,2,4,4,6,1
28,13,8,6,2,83,1
2,1,4,4,2,124,4
127,127,1,1,1,7,15
4,20,1,2,1,24,4
95,34,2,2,9,5,2
6,12,5,2,2,207,1
39,7,5,2,2,67,3
10,0,1,2,1,92,14
62,201,0,1,1,7,1
33,16,0,1,1,16,0
8,3,1,4,1,58,2
86,1,9,2,9,128,4
26,70,3,2,3,5,14
308,6,1,0,1,1,2
14,1,1,1,0,11,2
9,129,1,10,3,155,2
11,10,7,5,2,50,3
18,3,5,2,1,38,8
85,2,0,0,1,64,4
11,88,1,2,1,98,2
15,35,2,2,5,6,1
281,4,5,3,3,22,2
23,2,10,1,2,2,8
18,9,3,1,0,14,9
3,1,0,10,1,97,4
46,13,0,8,5,96,2
44,2,6,4,6,52,0
10,23,6,1,0,17,1
2,33,2,2,2,1,5
55,22,2,0,0,4,0
4,16,1,1,0,101,2
4,1,5,5,4,6,1
164,67,9,4,3,13,5
114,91,2,2,2,87,7
72,8,2,0,0,39,5
3,2,0,2,3,7,0
91,18,0,0,7,6,2
45,77,13,0,1,1,0
41,16,2,0,4,119,10
62,61,0,2,2,108,7
18,5,2,14,1,25,3
34,2,0,3,1,37,1
5,38,9,2,1,49,1
5,41,5,3,1,18,13
40,3,1,54,1,3,5
25,0,0,8,2,24,2
3,7,0,7,2,12,0
39,110,8,2,2,54,1
122,17,8,2,2,135,7
90,6,2,1,1,8,9
10,3,0,3,0,1,2
88,12,1,1,2,35,2
18,112,5,1,2,4,1
2,31,9,1,0,13,1
126,24,5,5,1,17,2
46,124,3,2,4,127,3
33,5,0,7,4,52,2
2,29,1,20,1,7,1
8,58,3,2,5,3,2
105,82,5,0,1,1,10
9,6,1,183,0,33,2
2,2,0,67,2,217,2
15,23,1,36,2,30,1
73,4,8,11,1,2,4
53,17,10,3,0,67,9
13,41,1,1,1,137,3
4,36,3,22,1,56,1
37,3,0,89,1,29,0
14,41,4,210,0,5,2
33,4,2,8,2,5,6
25,59,3,100,3,77,7
37,101,2,3,2,5,0
197,17,2,164,4,7,0
12,56,1,33,17,5,0
11,3,8,126,2,32,7
90,3,2,41,1,99,13
29,0,0,109,1,27,2
1,76,1,10,2,59,1
48,17,1,147,3,30,1
39,2,8,9,2,31,9
120,16,5,27,2,9,5
15,70,0,132,0,6,1
54,4,2,4,0,53,2
51,24,0,200,0,43,0
2,2,7,199,5,4,3
30,76,8,9,2,2,12
26,9,2,2,0,80,3
12,3,1,103,2,20,2
58,14,0,39,2,5,1
5,1,3,10,0,273,2
61,49,8,79,1,13,11
5,8,2,4,2,6,3
199,16,1,118,2,3,2
19,13,1,83,2,29,1
2,73,2,104,2,126,0
39,5,7,64,10,8,2
22,4,6,5,1,5,0
1,3,1,188,4,1,1
3,30,1,15,1,6,1
160,30,0,7,1,3,1
18,3,5,233,6,93,12
17,8,5,15,1,64,3
24,3,2,350,1,78,1
2,77,1,29,4,5,0
21,25,1,26,1,2,1
18,17,0,27,1,71,12
4,17,7,132,1,16,5
125,1,4,86,2,27,1
6,10,1,13,0,3,2
19,1,0,89,2,26,0
3,0,1,232,1,135,8
39,2,4,8,3,39,9
19,124,6,41,2,6,3
61,13,2,177,1,51,0
154,6,0,6,1,25,1
5,2,1,154,0,52,8
31,0,4,29,1,33,9
104,6,10,5,1,23,3
66,9,2,59,1,141,1
34,49,0,46,2,13,2
3,46,1,37,2,11,3
9,47,5,37,3,30,9
3,5,11,4,1,39,4
10,2,1,25,3,213,0
4,39,1,69,1,58,1
109,20,1,11,2,7,1
27,43,3,135,4,73,9
43,63,9,17,8,22,10
16,5,2,15,1,10,3
10,1,1,161,1,133,2
5,1,1,40,1,36,1
94,30,2,6,2,4,8
97,38,8,51,2,3,7
11,4,3,44,0,87,1
91,39,3,25,1,61,2
8,25,0,54,1,66,1
81,3,1,89,3,30,4
18,14,6,17,1,4,12
30,2,5,13,1,45,3
13,60,2,10,12,143,2
127,15,2,52,3,151,0
17,45,1,110,2,38,6
77,10,3,44,4,11,11
17,47,8,5,1,127,2
5,59,3,40,0,19,2
8,7,0,2,1,198,1
50,1,2,150,3,20,2
11,28,0,43,4,2,10
1,112,12,22,5,5,1
44,25,1,13,3,2,0
126,3,0,13,2,55,1
182,1,1,36,1,101,2
15,36,0,45,1,5,11
19,41,7,54,4,123,4
9,2,5,45,1,142,1
120,1,1,100,2,7,1
12,104,0,15,2,14,0
53,18,1,9,4,19,15
108,1,8,5,2,9,3
15,1,7,0,2,35,2
2,5,1,312,2,3,1
1,87,1,24,2,1,5
152,25,1,4,1,48,4
13,19,5,34,2,185,0
4,4,8,2,12,14,1
249,19,2,96,2,4,1
57,11,1,158,1,2,3
24,113,1,47,2,57,9
23,14,0,30,1,17,3
3,14,8,44,2,46,1
2,1,4,63,2,14,0
34,139,1,5,1,47,1
56,14,2,46,0,45,14
35,12,1,4,2,14,8
12,18,7,168,11,36,1
5,2,6,11,3,80,0
2,0,0,21,1,21,2
31,18,0,39,3,2,6
12,9,1,17,2,1,6
17,19,1,35,1,57,2
5,28,5,63,1,145,0
36,3,4,29,1,8,0
23,15,2,9,1,47,3
21,16,1,63,2,42,9
5,1,2,137,1,21,4
97,78,4,5,13,75,2
5,71,6,21,3,158,2
29,10,3,109,3,96,1
34,4,0,4,0,12,10
25,2,0,18,5,26,4
9,7,7,18,2,17,2
32,36,5,4,2,5,1
94,13,1,137,2,2,2
7,25,2,40,2,18,8
77,118,2,11,2,14,4
14,10,1,1,3,14,1
7,2,8,227,22,124,1
206,15,3,74,3,14,2
11,2,0,15,2,38,10
2,47,0,65,11,9,5
47,38,2,14,5,2,3
38,3,9,2,2,63,0
28,9,2,2,1,3,2
3,2,1,92,1,91,10
38,18,1,27,1,164,2
43,3,1,19,2,6,1
22,23,6,47,1,54,0
51,3,6,21,2,98,1
47,8,1,232,0,8,9
5,7,1,24,5,1,11
161,9,0,36,3,3,1
10,79,4,23,9,57,1
5,10,4,2,3,289,1
2,125,1,50,1,9,8
28,12,1,38,0,123,8
61,1,1,9,0,10,1
5,22,4,32,2,51,1
84,9,14,250,2,42,0
12,131,8,12,11,25,3
13,7,2,2,4,5,1
30,146,74,143,21,2,1
54,21,20,55,9,36,1
59,10,4,5,3,71,0
6,4,14,0,1,5,0
69,48,223,46,2,5,4
116,129,14,68,3,90,10
18,21,20,4,1,51,2
27,3,96,14,1,17,1
18,2,92,94,2,146,2
20,3,20,38,0,5,7
48,15,59,7,0,7,2
28,15,69,60,8,13,0
58,5,6,35,4,7,0
52,9,88,1,3,2,2
2,6,21,103,2,17,6
21,43,19,25,2,71,5
11,12,83,96,1,58,2
104,12,7,80,0,5,2
42,81,104,9,0,9,1
17,72,155,6,1,54,2
57,6,5,68,1,127,6
21,12,62,108,16,77,6
19,101,16,15,4,103,1
7,108,100,43,2,7,1
24,13,110,2,2,6,2
28,13,197,17,0,8,12
5,3,30,23,3,103,3
93,45,151,2,1,6,1
21,5,7,19,2,44,1
21,76,37,50,0,48,0
63,153,164,15,1,10,11
47,8,7,17,9,14,4
24,9,89,12,10,86,1
100,47,175,109,5,12,2
29,87,56,39,2,64,2
19,6,45,11,2,39,15
54,6,45,34,0,24,4
5,69,66,5,7,178,1
65,42,84,1,2,30,0
35,78,18,353,0,100,1
1,20,22,17,1,8,8
97,67,102,1,14,2,7
98,5,30,1,3,10,2
16,217,3,48,0,118,2
2,16,46,82,0,9,1
15,1,61,30,0,6,7
29,13,270,2,1,48,9
31,17,45,29,1,146,2
3,130,133,17,1,9,0
27,12,179,126,2,16,1
31,13,35,20,11,12,2
43,50,103,16,2,66,11
50,8,92,114,1,138,2
4,1,34,4,26,9,0
151,5,93,58,8,7,1
19,14,5,42,18,11,5
17,46,7,11,1,2,8
6,15,77,72,2,12,4
19,41,244,17,1,182,1
25,4,22,60,2,7,1
139,55,4,42,2,56,3
5,6,76,5,1,27,5
6,1,268,10,37,6,2
27,9,12,159,5,5,0
38,106,21,35,1,108,1
4,8,21,45,2,5,1
29,28,72,48,1,3,5
17,30,155,4,19,46,9
18,6,6,75,29,3,1
99,73,20,39,7,23,2
24,43,29,4,21,45,2
11,9,3,41,3,87,1
13,2,10,31,7,19,7
40,1,55,19,2,25,3
5,14,53,47,9,22,1
3,23,21,211,2,19,2
82,9,103,9,2,2,1
5,24,31,211,61,17,8
10,4,5,31,9,142,4
22,27,91,6,5,60,1
109,11,6,3,1,47,2
24,2,16,29,6,22,1
8,1,4,10,5,3,5
53,14,21,88,70,39,9
5,13,45,91,6,87,5
23,2,3,20,27,62,1
3,45,25,12,12,4,1
4,12,4,6,2,3,1
28,1,44,194,11,48,9
20,43,24,21,1,4,6
34,18,99,7,2,45,1
42,2,76,3,17,86,1
60,12,6,36,21,7,1
11,13,36,7,5,11,4
16,2,98,46,2,22,7
21,16,59,11,34,40,2
31,43,6,16,6,79,1
1,8,13,62,64,71,1
30,1,112,10,5,8,6
3,1,34,21,34,24,8
36,0,140,62,21,3,1
42,4,5,29,4,31,2
10,22,47,62,2,25,1
0,7,37,33,2,122,3
111,3,39,60,2,4,9
5,8,49,51,18,2,8
1,4,45,4,14,96,3
29,9,17,39,64,7,0
21,3,15,95,12,2,2
180,2,8,30,28,77,9
14,22,104,23,35,39,11
38,5,106,5,20,3,2
32,18,5,4,9,0,2
3,2,2,21,1,187,2
26,2,59,14,19,11,7
4,14,21,47,2,129,7
10,4,98,8,3,10,2
33,4,77,38,7,3,0
10,1,114,11,0,2,0
0,0,10,58,72,1,7
70,1,8,36,58,7,10
64,3,28,59,6,5,1
43,11,70,38,2,22,1
5,9,15,51,0,11,1
52,1,48,13,7,12,4
13,1,92,3,41,26,12
11,5,103,66,7,101,2
7,14,40,8,34,89,0
41,1,3,0,43,18,0
3,7,7,163,5,2,6
63,4,83,23,2,13,13
28,36,39,16,14,82,2
5,5,15,34,1,8,2
32,3,4,80,8,79,1
6,3,41,20,3,6,8
224,14,33,22,57,32,11
9,3,12,85,5,36,2
19,11,36,19,4,53,0
28,2,46,157,37,111,1
79,2,217,25,4,23,3
13,1,57,8,4,7,7
8,27,22,2,3,32,2
50,7,59,26,35,10,0
41,1,65,3,6,0,1
5,30,88,96,14,50,3
26,3,29,31,6,54,9
16,8,48,36,9,24,4
9,9,8,4,30,17,1
65,1,3,4,4,58,1
10,1,13,56,45,141,1
0,1,157,15,23,6,6
17,7,7,3,4,2,7
58,14,1,67,8,15,1
3,1,77,52,16,34,0
32,1,17,66,49,54,1
28,2,54,4,15,15,7
18,2,22,9,9,1,11
21,18,3,93,3,1,2
72,4,2,11,1,83,0
6,1,15,56,6,39,1
13,1,72,11,30,49,4
3,6,25,25,12,61,8
48,8,22,94,5,6,2
16,5,96,11,14,17,1
3,2,20,128,36,9,2
125,0,7,5,6,8,1
19,9,82,1,17,4,11
1,18,8,2,22,11,2
3,3,31,30,6,25,0
106,1,124,39,1,155,2
6,1,116,14,14,18,0
6,18,70,15,10,5,6
4,4,5,103,25,15,5
32,2,73,15,10,31,1
49,3,6,3,26,2,2
12,2,20,15,12,1,1
8,0,179,34,16,43,2
48,19,119,4,15,67,3
107,2,4,73,16,5,1
4,1,6,108,11,25,1
22,1,82,10,11,16,2
12,3,28,12,10,2,5
32,9,13,3,24,1,10
19,4,3,18,7,143,1
21,9,164,129,11,25,1
7,5,70,155,13,5,1
5,1,78,14,2,44,3
55,6,36,10,66,75,9
10,7,51,14,7,9,3
11,2,73,4,2,85,2
46,1,91,56,2,68,2
27,2,18,65,0,9,3
12,8,6,47,32,1,6
11,14,4,33,6,1,5
25,3,21,32,6,21,1
18,2,185,10,1,70,0
56,1,16,38,27,8,1
7,11,36,83,26,1,10
59,16,10,9,31,29,4
57,3,2,114,3,41,1
19,1,1,5,21,88,0
8,1,86,36,19,11,1
23,12,35,30,21,141,5
39,1,34,17,2,7,12
19,1,26,14,8,18,2
35,1,62,34,12,44,2
11,1,10,7,1,3,2
5,18,5,39,8,6,4
41,10,57,13,15,2,8
21,1,246,14,30,44,0
63,1,10,42,11,70,0
5,1,34,29,1,4,1
15,18,90,2,7,10,3
127,6,6,33,30,0,11
15,0,7,34,5,2,3
25,0,25,9,17,91,1
21,1,8,13,18,48,2
4,9,49,9,3,4,1
47,11,43,14,5,96,6
22,2,93,10,35,15,4
52,2,8,28,45,54,1
25,1,7,26,4,8,1
45,14,34,53,1,10,1
23,3,90,60,11,1,10
2,0,7,6,14,2,3
10,0,29,7,16,22,2
6,2,67,2,2,16,0
22,15,60,14,2,275,2
135,3,51,25,28,54,10
21,0,10,16,29,248,4
30,0,26,42,16,10,2
36,7,17,8,5,3,1
33,2,49,70,20,13,0
4,3,16,4,1,16,4
6,6,5,82,41,49,5
2,2,19,42,15,23,3
61,1,29,21,9,21,1
14,10,2,96,5,77,1
11,9,62,8,26,38,8
30,3,8,60,9,5,10
4,1,32,22,4,29,1
0,0,22,24,1,10,1
55,6,43,2,11,29,0
63,16,56,21,19,3,9
4,4,17,11,10,76,8
2,0,9,85,21,21,2
26,2,6,25,24,81,0
2,11,14,3,2,31,2
35,9,71,13,0,5,3
17,2,33,74,8,0,7
3,1,18,14,1,29,4
68,1,6,10,16,6,1
41,11,10,61,40,81,0
3,12,7,92,36,11,0
193,2,13,23,11,24,13
25,1,5,9,5,67,2
2,2,6,89,2,10,1
4,10,19,14,8,11,1
66,2,23,3,4,63,1
6,3,14,102,1,35,10
2,1,4,26,4,17,6
24,5,22,6,20,230,2
24,9,34,24,4,9,1
35,6,100,14,10,5,1
73,1,46,7,10,2,14
65,1,3,12,15,16,8
4,2,14,45,24,30,2
27,4,11,8,4,10,1
3,14,30,6,28,4,1
111,1,39,25,5,30,5
4,2,23,108,2,2,9
25,2,97,9,15,0,2
13,8,10,14,6,222,0
3,4,109,28,2,33,2
24,0,9,30,14,11,9
47,1,88,24,9,2,7
19,1,20,11,30,2,3
19,4,45,13,6,16,1
12,13,14,29,29,5,1
9,2,22,38,6,48,3
5,1,40,7,22,54,8
15,1,93,42,22,5,8
4,4,20,17,2,27,3
50,12,16,47,3,76,2
29,6,63,2,3,7,2
13,2,38,35,1,34,8
34,2,62,47,2,67,9
41,1,12,4,57,36,1
52,3,4,61,80,4,2
14,10,59,11,6,0,0
2,2,11,9,3,1,11
4,1,14,2,37,2,8
23,5,21,64,9,7,2
38,9,142,38,1,29,2
39,3,26,41,31,27,2
4,1,3,18,17,2,4
4,1,103,16,2,16,8
44,1,40,3,17,16,0
27,10,22,55,6,65,0
28,4,3,16,1,4,0
3,1,29,17,24,53,2
12,0,97,31,8,29,11
6,0,15,93,3,7,2
40,11,8,95,4,30,2
21,5,38,25,0,7,0
2,1,56,16,43,33,4
6,0,5,43,4,3,9
20,2,45,17,16,133,4
39,10,6,32,31,55,2
8,5,40,42,8,4,0
1,1,34,35,4,2,1
46,2,4,26,5,2,8
17,1,42,28,18,2,8
2,12,8,49,34,1,1
128,4,59,34,4,8,2
17,1,40,18,7,16,1
60,0,5,2,2,10,2
14,1,10,109,1,9,11
3,13,3,17,3,47,1
2,23,1,141,2,16,0
59,3,2,42,25,3,0
6,2,28,14,16,54,6
26,4,31,24,8,13,7
33,11,28,52,23,1,1
4,3,1,5,9,4,1
2,2,32,32,2,2,1
15,2,7,5,3,1,3
68,6,7,30,10,5,6
6,13,56,93,14,7,7
46,4,53,56,2,17,2
6,1,4,29,16,36,0
6,0,12,5,30,3,0
0,4,3,7,3,17,7
0,15,31,83,2,2,9
26,3,20,6,29,8,2
19,1,2,2,14,149,1
2,0,18,14,3,14,2
120,6,5,64,15,33,8
15,16,3,8,6,19,10
3,3,35,26,3,3,2
1,1,26,6,10,0,0
0,0,53,2,12,8,1
94,5,7,132,1,3,4
28,12,34,13,13,0,8
19,1,3,85,22,2,3
1,2,35,7,8,15,2
3,0,13,4,13,15,2
69,4,19,7,4,23,1
5,13,10,50,18,6,3
3,4,2,29,6,2,3
0,2,15,31,1,1,1
0,0,52,1,5,2,0
6,9,5,62,7,3,1
16,15,33,10,8,2,9
8,4,8,9,15,47,9
15,2,19,8,7,23,2
3,1,53,179,21,4,2
45,2,18,16,17,59,0
4,15,14,3,6,11,3
9,6,4,2,10,1,7
1,2,101,3,1,27,2
6,2,4,1,0,43,1
3,4,9,141,2,2,0
19,13,39,86,2,3,1
1,5,44,18,4,1,11
2,2,3,7,15,1,3
41,1,3,3,5,1,1
16,5,22,1,4,0,2
2,15,27,92,0,1,2
1,3,29,8,36,2,9
3,2,40,36,7,2,6
3,1,11,14,13,2,2
7,3,5,2,3,40,2
4,11,11,45,3,11,2
65,3,1,62,12,1,11
3,2,20,19,2,2,5
21,1,28,43,4,2,1
22,1,2,9,18,8,0
8,12,49,5,4,1,1
1,4,59,92,4,1,12
3,0,20,36,14,2,3
10,2,2,38,1,3,1
33,1,78,4,1,4,2
6,9,13,53,4,1,0
0,11,1,11,20,1,6
59,1,63,11,7,0,5
25,0,9,10,8,39,0
36,5,22,23,12,16,1
9,5,3,0,2,2,2
2,1,35,5,3,3,4
39,2,54,76,5,1,4
9,1,4,51,3,1,1
22,0,20,13,40,0,2
2,11,40,3,6,1,1
5,5,14,45,2,2,1
42,2,7,33,0,2,10
93,1,1,12,5,0,4
9,1,44,4,31,1,1
2,12,7,69,5,14,1
6,6,40,35,6,2,2
31,1,2,2,3,0,12
4,0,29,57,3,20,3
20,2,8,7,11,11,0
11,13,26,21,18,7,1
47,4,21,26,7,1,1
28,1,2,7,1,4,7
3,2,2,2,10,2,4
0,2,23,94,3,2,1
2,7,14,18,7,3,0
18,5,6,34,0,2,1
5,3,16,17,3,1,9
1,0,19,14,42,8,9
2,2,34,3,16,12,2
8,5,3,13,5,0,2
16,15,1,13,22,2,0
53,2,19,80,6,2,7
4,1,10,64,10,2,9
1,0,48,9,3,33,5
1,5,21,20,2,10,0
4,14,1,2,2,1,1
2,3,4,21,4,0,0
0,0,15,27,9,0,10
30,1,21,49,28,1,4
22,10,20,10,23,3,0
12,7,13,71,2,38,1
2,1,35,7,2,14,2
0,2,30,20,29,1,10
7,0,56,9,24,3,2
18,6,5,41,4,1,2
8,10,24,26,9,2,1
1,2,5,25,9,4,3
1,1,20,39,1,2,6
13,0,20,14,1,1,4
49,7,117,59,1,2,1
4,9,9,11,25,5,2
1,3,3,18,11,0,1
3,1,1,82,4,35,11
5,0,10,10,4,4,5
4,2,19,2,11,9,3
1,13,20,7,2,1,2
24,3,63,2,2,2,1
4,0,4,11,30,2,8
76,1,19,65,26,2,10
8,7,44,7,2,16,2
1,6,9,3,11,8,0
2,6,34,6,2,2,1
0,1,15,1,6,1,5
14,2,3,0,15,1,4
9,0,0,44,44,2,0
4,11,2,22,15,7,2
2,11,13,44,3,7,0
42,1,112,11,13,15,6
6,2,88,9,25,1,13
7,1,7,2,8,4,2
1,11,14,1,4,7,0
0,4,23,2,17,0,3
8,2,176,19,2,1,7
3,0,9,2,4,4,13
2,2,2,23,16,11,0
1,11,13,3,1,2,0
1,4,53,1,1,2,0
1,3,9,1,27,1,7
5,1,3,7,7,0,10
9,7,1,2,13,8,2
36,13,45,1,1,5,2
11,4,35,1,5,0,2
1,0,5,10,1,1,0
1,1,9,4,0,8,7
11,1,23,1,3,10,3
9,12,27,2,2,1,1
3,2,4,28,6,20,2
41,2,11,4,7,3,1
8,1,13,1,1,1,6
63,4,28,2,39,0,12
77,11,90,2,7,5,3
11,2,6,6,54,2,2
7,2,2,2,7,0,3
36,1,10,9,1,2,14
4,2,17,7,10,0,3
2,10,53,4,0,3,1
1,3,31,2,1,3,3
15,0,4,5,2,2,2
11,2,43,4,1,0,10
3,2,36,2,4,8,3
2,14,3,1,0,8,1
0,3,19,4,5,2,1
11,1,6,5,62,21,1
8,1,4,3,16,2,18
2,3,50,1,4,1,5
0,12,5,3,1,12,1
1,3,34,15,1,0,2
7,1,38,7,2,0,1
2,2,6,16,6,1,10
1,3,0,31,2,0,7
2,9,3,30,9,1,2
1,5,67,3,2,0,0
4,1,13,40,15,2,1
13,1,1,19,36,2,9
3,1,33,3,2,0,3
1,11,57,12,4,1,2
1,5,6,97,20,1,1
6,0,1,14,5,6,2
9,1,3,56,3,17,4
3,1,11,5,20,3,6
0,11,18,2,3,3,2
1,5,9,2,1,36,1
5,1,8,1,1,3,1
12,1,2,35,17,2,4
4,1,13,45,5,1,11
2,8,15,23,2,6,2
3,9,44,20,2,1,1
6,3,24,1,1,0,1
8,1,2,1,1,0,3
5,0,17,2,1,2,2
2,1,51,26,14,0,2
1,11,5,6,4,3,2
1,4,4,3,57,0,0
3,2,67,6,8,1,1
1,2,6,16,1,1,8
3,3,3,10,2,0,12
1,9,14,1,13,4,2
2,2,9,2,1,12,1
6,1,11,5,13,6,0
10,0,19,4,2,2,14
0,4,63,3,12,13,7
0,15,6,2,8,16,1
3,3,7,5,6,3,0
6,2,34,1,23,2,0
5,0,117,1,5,1,14
1,3,55,11,2,2,5
2,9,3,3,24,4,2
0,8,4,1,8,1,1
5,2,60,0,3,0,2
12,0,25,3,1,1,10
3,1,3,6,0,3,7
2,8,66,7,1,6,2
1,10,40,0,9,3,0
6,3,12,0,7,2,1
