HandOpen,HandClose,Wrist Flexion,Wrist Extension,Supination,Pronation,Rest
23,0,2,1,14,1,0
13,1,2,0,5,0,15
5,5,0,1,3,9,34
2,20,10,1,2,9,47
1,33,30,8,1,16,56
1,36,42,17,0,11,50
1,32,33,21,1,11,35
2,23,23,18,1,10,16
3,12,9,10,0,4,7
14,5,5,9,7,2,2
26,3,2,9,16,0,1
34,1,2,4,25,0,1
35,1,0,3,25,1,1
29,1,0,1,20,0,2
19,0,2,2,14,2,3
8,1,2,1,6,0,18
4,5,5,0,2,12,36
2,18,18,1,1,28,45
0,29,34,4,1,22,52
0,33,49,12,1,10,47
2,33,43,17,2,5,32
0,26,22,14,2,6,16
1,17,10,16,4,13,7
14,8,4,15,13,16,4
27,4,3,8,22,21,3
38,2,1,4,28,21,1
35,1,2,1,28,10,2
31,2,1,1,27,6,2
12,2,2,1,18,2,30
1,18,2,2,2,22,49
0,24,30,0,1,5,4
20,4,5,16,0,1,1
28,1,3,11,22,0,2
1,0,0,1,15,10,41
1,22,1,0,2,37,37
1,24,30,1,1,11,3
24,2,14,20,9,2,1
23,0,1,14,25,1,11
1,2,0,1,6,9,53
2,33,19,1,2,20,9
6,17,22,10,0,6,1
34,1,2,13,7,1,1
12,1,0,1,24,8,31
0,15,1,1,6,12,48
2,30,25,2,2,4,4
18,5,10,17,1,7,1
27,2,0,24,6,1,1
3,2,3,2,21,1,44
3,24,3,1,7,17,36
0,26,28,2,3,16,1
27,1,7,25,1,0,2
22,2,2,6,8,2,10
1,2,0,2,26,6,51
2,33,1,2,6,36,10
9,20,33,1,1,8,1
37,1,23,20,1,1,1
9,1,1,13,8,2,40
1,14,1,1,28,9,33
0,30,3,2,5,20,1
12,4,25,9,0,13,1
33,0,8,17,1,2,11
4,0,1,3,5,0,49
1,25,0,2,26,5,7
0,25,7,1,8,27,1
21,1,24,5,3,7,1
26,0,7,16,2,3,32
2,2,1,4,4,1,52
1,32,1,2,24,6,5
1,16,15,0,6,15,2
26,2,33,7,0,4,0
22,0,1,21,1,2,40
2,13,1,3,1,1,38
2,33,2,1,24,11,1
4,4,11,0,8,16,0
35,1,20,7,2,2,9
14,1,1,15,1,2,52
1,30,1,3,9,1,22
1,25,14,1,27,13,2
17,1,27,0,9,15,1
26,1,8,8,1,2,25
2,2,1,15,1,1,47
2,35,1,5,8,0,4
1,19,10,1,21,13,1
27,0,24,0,7,49,1
21,1,5,9,2,5,39
3,11,2,27,0,1,44
1,29,1,6,9,2,2
6,4,30,1,23,1,0
32,0,20,0,9,16,6
12,1,1,9,1,10,48
1,24,2,13,1,1,23
0,24,2,10,6,47,1
14,3,32,2,28,10,2
32,0,28,1,9,1,24
5,2,2,12,2,1,48
0,34,1,10,0,2,5
2,18,18,1,6,18,2
22,1,25,0,32,5,0
21,1,2,2,9,2,40
3,15,0,17,1,2,40
1,28,2,6,0,1,2
5,3,23,2,5,23,1
33,0,18,1,24,3,5
14,1,3,1,6,0,50
1,17,0,17,3,2,24
1,24,4,10,2,27,3
19,2,27,0,5,40,2
27,1,9,1,24,5,25
4,3,1,2,7,2,51
2,34,2,20,1,2,6
2,19,1,8,0,13,0
30,1,20,1,6,24,1
24,0,17,0,26,1,41
2,13,3,6,9,2,38
2,35,1,18,1,1,3
5,5,18,1,0,8,0
33,1,42,1,5,34,8
16,1,4,1,22,9,47
1,20,1,17,4,1,26
1,27,1,25,0,0,2
19,3,14,4,0,9,1
26,2,18,1,5,21,18
3,2,3,0,26,5,49
2,30,1,14,11,0,6
0,19,1,11,1,2,1
29,2,41,2,1,7,0
24,1,7,0,15,14,34
1,13,2,0,16,2,42
0,31,0,18,1,2,4
4,6,1,12,2,13,2
36,1,45,2,1,5,6
15,0,13,0,23,24,48
2,25,2,9,15,6,26
0,31,2,17,2,1,2
14,2,14,2,0,2,0
28,2,21,2,3,5,14
2,0,9,1,25,1,49
0,28,1,10,10,29,5
0,20,0,16,0,2,0
32,1,10,4,1,3,0
26,0,24,0,14,27,35
1,9,1,1,19,6,38
0,34,0,8,4,1,2
4,10,6,20,2,2,0
34,0,36,9,1,1,5
15,2,25,2,23,19,48
1,20,2,2,15,23,29
2,27,0,14,2,3,1
14,3,1,10,0,2,2
33,1,26,1,7,3,19
3,1,14,0,30,27,51
2,26,0,1,12,18,5
0,23,1,26,1,1,1
26,0,17,3,1,0,1
21,1,8,1,15,13,37
3,8,6,0,15,36,44
1,32,0,5,1,4,3
7,7,0,18,2,0,1
33,1,33,7,1,2,5
15,1,24,2,24,18,47
2,10,2,0,17,14,30
1,35,1,2,2,2,1
16,3,0,18,0,1,0
32,1,21,18,5,4,17
4,2,10,2,24,9,56
0,15,2,0,10,18,8
0,27,0,5,2,2,1
28,4,7,19,1,2,1
21,0,28,2,16,8,32
2,1,4,1,19,17,45
1,39,2,1,3,6,3
4,9,1,5,0,2,2
34,1,9,25,1,2,3
15,2,29,4,29,19,45
1,1,5,1,15,14,32
1,30,1,0,2,2,1
14,18,0,8,2,1,1
32,1,4,19,2,0,17
2,0,31,4,31,7,54
1,7,13,0,4,47,6
2,33,2,0,1,5,1
30,9,1,4,2,2,1
23,1,22,16,6,1,33
2,0,29,8,20,7,44
0,9,3,0,11,25,4
3,34,0,1,0,4,0
29,10,1,4,1,0,1
18,2,24,17,25,2,45
3,2,16,4,15,9,33
0,22,2,0,1,6,2
13,30,0,0,0,4,0
31,3,8,3,0,12,13
4,2,35,19,25,0,52
1,0,9,6,14,19,7
1,28,1,0,1,11,1
26,26,2,2,0,2,1
20,3,3,4,10,4,34
1,1,32,21,21,0,43
1,10,15,9,8,18,4
11,31,1,2,2,31,1
30,6,2,1,0,2,3
5,1,13,6,13,1,44
0,1,22,15,18,0,31
1,15,4,2,3,31,1
13,26,2,0,2,6,0
32,2,2,2,0,1,18
4,0,38,15,12,2,51
0,2,26,13,14,2,7
0,25,2,3,3,22,0
22,11,0,2,1,15,1
27,2,7,1,2,1,30
2,2,34,13,23,0,45
2,25,13,16,11,14,4
5,34,1,2,1,24,0
34,5,0,2,2,9,0
17,2,13,1,14,1,42
0,1,22,18,18,3,31
2,15,1,6,3,19,2
14,30,1,2,1,25,2
27,3,4,1,0,4,14
4,1,25,3,19,1,54
2,0,16,17,25,1,8
0,33,3,9,1,33,2
24,24,0,2,0,6,2
27,2,2,0,6,2,26
2,0,43,1,31,0,49
0,6,25,14,8,3,5
3,35,3,12,1,24,1
33,11,2,3,1,14,2
19,1,7,0,0,1,44
2,0,35,8,22,1,35
0,19,10,18,18,3,2
11,29,0,11,1,29,1
32,4,1,1,1,9,14
5,1,19,1,9,1,50
2,0,45,17,28,2,6
1,31,5,9,7,21,1
22,25,0,2,1,13,1
30,3,7,1,0,2,26
5,1,28,1,10,1,47
1,5,9,9,16,2,4
3,33,2,14,1,22,0
32,15,0,1,1,12,2
22,0,5,2,1,1,42
1,1,35,2,18,7,37
0,19,9,3,15,5,3
12,30,1,22,0,9,2
30,3,1,5,0,14,11
5,1,2,2,4,3,53
0,2,35,2,26,1,8
2,31,9,10,4,22,1
25,21,0,11,1,29,3
26,1,1,2,2,2,27
3,3,3,1,11,2,45
0,4,12,1,21,7,5
2,41,26,19,5,19,0
31,12,2,8,0,7,1
16,1,1,1,1,1,39
1,1,27,0,18,1,35
0,15,28,2,20,1,1
10,30,2,23,1,19,2
30,4,2,14,0,21,8
3,2,3,2,3,4,46
1,0,26,1,11,0,21
1,26,23,6,14,1,2
21,21,3,23,1,6,0
24,2,1,4,0,21,25
2,0,1,0,0,11,51
1,4,28,1,23,2,5
1,37,14,4,13,1,1
31,13,1,25,2,19,1
16,1,1,6,0,3,42
2,2,15,2,11,3,41
2,16,27,1,29,1,2
10,28,3,4,3,2,1
27,4,0,18,0,13,10
5,0,1,6,0,7,53
2,2,22,2,17,2,10
0,24,12,2,16,1,2
23,24,0,4,1,20,1
28,2,1,17,0,9,40
1,1,14,11,3,24,38
1,4,15,1,35,2,3
1,34,1,2,10,0,2
26,15,0,9,2,0,8
18,1,2,19,2,23,47
2,1,5,2,10,17,24
0,15,30,2,33,2,2
9,31,5,1,2,2,1
33,3,1,17,1,25,19
15,0,1,9,1,15,51
0,1,10,3,17,3,4
1,27,21,2,21,1,1
19,30,5,1,2,6,2
26,2,3,16,1,50,38
5,0,0,14,3,16,39
0,2,17,2,31,2,2
1,35,25,2,14,1,0
31,15,1,1,1,10,10
22,2,0,16,1,13,46
1,0,3,13,9,8,12
0,14,25,1,27,1,1
10,30,14,0,8,0,0
35,3,2,4,1,9,38
4,0,1,23,0,25,39
1,0,13,11,12,6,3
0,27,27,2,19,2,1
23,23,3,2,1,1,8
26,2,1,11,0,10,48
3,2,7,16,0,29,26
1,5,25,3,24,5,2
0,35,13,0,14,3,1
31,17,1,1,1,1,22
22,1,1,19,1,26,50
2,0,15,9,4,5,5
1,14,16,1,15,3,1
4,30,8,2,11,0,1
34,4,1,1,1,10,39
11,0,2,17,0,30,38
1,0,14,9,19,8,3
1,28,15,1,22,2,1
24,31,2,2,3,1,8
26,3,2,1,1,2,46
3,1,2,19,0,2,27
1,4,24,11,18,9,2
2,36,16,2,15,3,2
35,14,1,2,1,1,16
17,0,0,4,1,0,55
2,1,8,25,4,14,5
1,14,41,4,26,51,1
8,31,16,1,10,4,1
34,4,1,1,2,2,36
10,2,0,3,2,2,38
1,0,9,22,10,19,3
0,24,28,7,22,9,1
22,25,5,1,5,2,6
25,2,1,0,0,0,45
2,2,0,4,1,1,24
1,2,11,17,7,20,1
2,34,25,2,14,6,2
28,21,5,2,10,2,17
26,1,1,0,0,1,49
2,1,0,1,1,3,7
0,11,30,19,24,21,2
6,36,12,2,17,1,1
34,6,2,3,1,0,32
10,1,2,0,0,3,43
0,2,1,4,13,27,5
2,21,27,18,20,5,0
20,30,13,3,3,1,7
28,1,1,1,3,0,49
1,0,11,3,2,2,23
1,5,27,6,16,7,2
1,37,15,21,7,34,1
30,14,1,6,1,4,20
22,2,2,1,0,0,47
2,1,3,0,11,0,5
1,13,18,1,29,2,1
5,32,6,22,21,35,2
32,4,1,7,1,41,38
14,2,1,2,2,1,38
0,1,1,0,6,2,4
2,21,25,5,21,39,2
17,24,12,15,2,13,3
30,2,0,6,1,1,47
3,0,2,2,0,0,28
1,5,14,2,1,1,1
0,35,24,3,25,38,2
35,14,3,27,4,27,17
19,2,0,7,1,2,49
1,1,0,1,1,0,7
1,11,20,0,1,4,1
11,33,33,5,18,30,2
35,4,1,21,16,3,35
6,1,1,5,1,1,40
0,2,11,1,1,2,3
0,25,34,0,5,17,0
24,26,5,4,21,55,3
28,2,1,19,21,4,48
4,1,1,13,2,2,31
2,0,10,1,1,0,2
1,32,22,1,19,16,0
33,17,5,8,13,20,18
20,2,1,15,2,2,51
2,1,1,4,1,2,7
1,10,36,2,11,2,2
5,29,16,1,22,8,0
30,3,2,11,2,44,30
15,1,0,5,1,7,42
1,0,1,0,1,2,2
0,23,47,2,10,1,0
19,22,15,0,13,11,4
30,2,1,8,1,5,46
3,1,2,15,2,1,32
2,0,7,3,5,0,2
3,30,21,2,25,6,2
29,17,6,0,5,19,13
23,1,2,9,1,14,54
3,1,2,14,1,2,7
1,11,11,3,5,5,2
7,36,24,1,15,16,1
29,5,4,2,11,14,32
19,2,2,6,1,2,41
2,1,1,19,2,2,2
0,22,12,3,11,1,0
19,24,14,2,7,19,2
27,1,1,2,16,16,42
3,1,0,7,3,2,34
2,1,5,18,1,1,1
0,26,25,4,16,9,2
30,17,9,3,10,34,12
23,2,1,1,2,10,53
1,0,0,10,1,3,9
2,8,2,15,2,1,2
6,35,23,2,11,5,0
34,9,13,0,21,12,30
10,1,1,1,2,1,46
1,1,0,15,2,2,3
1,6,1,14,4,27,1
16,33,24,1,18,7,2
34,10,37,2,20,6,40
4,2,1,7,2,1,35
1,0,0,30,2,2,2
0,22,26,10,9,0,1
25,28,9,2,14,15,12
26,2,2,2,2,19,53
2,0,2,7,1,5,7
0,2,2,13,2,1,2
6,29,14,6,13,1,1
33,20,19,1,8,39,26
15,1,1,2,2,17,45
2,1,0,11,1,2,4
2,9,9,11,0,0,2
16,35,33,3,22,2,2
32,9,9,1,9,10,40
3,3,1,1,2,14,37
2,0,1,15,2,17,3
1,10,3,17,0,1,0
25,35,30,2,14,18,12
25,6,11,0,18,15,53
2,0,2,1,2,1,7
0,0,2,19,0,0,1
7,22,6,6,8,16,1
34,21,25,1,22,22,26
15,2,18,1,28,3,50
1,0,2,5,2,3,5
0,0,2,29,0,0,1
14,30,20,12,8,9,0
31,21,21,1,39,36,43
2,3,3,2,6,4,31
1,1,0,9,1,2,2
0,9,1,15,0,2,2
28,33,23,3,4,2,12
25,9,39,0,25,26,50
2,1,3,1,10,36,10
0,1,1,4,1,2,1
5,10,11,16,4,0,2
35,28,31,5,20,11,41
13,3,3,0,10,3,38
1,2,1,1,1,24,2
3,2,0,8,2,9,1
16,21,17,27,0,1,10
31,26,32,4,22,2,50
3,3,3,1,11,29,9
1,1,2,1,4,20,2
0,1,0,8,2,1,1
26,30,24,17,4,2,24
24,26,18,5,25,29,47
2,2,1,1,2,12,4
2,1,0,1,2,1,0
6,7,23,5,1,0,0
35,35,27,23,17,15,40
13,11,4,3,16,20,40
1,0,1,2,1,0,1
1,0,0,1,1,1,1
12,21,20,17,0,2,6
31,30,11,19,15,34,46
4,3,3,4,29,8,25
1,0,0,1,3,26,1
0,2,0,1,2,2,0
29,29,30,20,2,0,22
26,20,24,11,33,17,47
3,2,1,1,18,14,6
0,1,1,2,2,2,0
6,10,7,1,0,1,0
31,32,37,15,4,25,39
16,5,12,8,15,34,41
1,1,0,1,8,6,3
1,0,0,1,2,2,1
18,18,22,2,0,0,8
30,30,39,17,9,51,44
5,3,6,6,19,6,21
3,2,2,1,4,9,1
2,1,5,1,2,22,0
22,23,47,1,2,2,24
26,19,9,19,4,17,48
3,2,3,5,17,11,7
2,0,1,2,6,10,2
4,10,3,0,1,1,1
35,31,23,1,1,11,36
18,4,16,26,11,6,40
2,1,1,7,19,9,3
1,2,1,1,2,1,2
13,17,15,1,0,1,10
33,28,18,1,0,32,51
5,3,3,26,10,24,11
0,2,0,11,12,2,1
2,2,1,1,1,1,1
27,28,19,0,0,3,36
26,22,27,7,0,6,43
2,1,2,22,23,2,2
0,2,2,5,14,17,2
3,6,15,2,2,1,5
32,40,25,1,1,2,45
15,10,4,6,18,30,26
1,3,1,14,21,7,2
1,0,0,4,2,2,0
18,8,25,2,0,2,18
26,32,16,0,0,9,50
4,6,4,5,23,7,6
0,2,2,21,14,13,2
1,0,0,5,1,3,0
24,14,14,2,1,2,33
24,25,35,1,20,2,40
1,3,3,9,15,11,3
0,1,0,22,33,14,2
3,0,0,5,3,1,4
33,29,33,2,1,2,46
22,22,24,1,14,13,31
2,1,1,9,4,11,2
0,2,0,24,3,2,1
14,6,4,5,0,7,19
29,36,25,2,0,2,48
6,10,5,2,19,24,6
0,0,0,11,30,21,1
0,0,2,11,2,2,1
26,22,13,1,1,0,36
25,27,18,2,1,42,39
1,3,9,0,31,54,4
0,2,2,9,7,3,2
4,0,0,17,2,3,3
34,27,40,1,1,0,44
17,23,20,2,2,0,30
1,2,1,0,30,36,1
1,2,2,14,46,3,1
12,8,3,12,3,1,15
31,34,24,2,0,0,50
5,13,15,2,21,4,8
2,1,3,0,26,19,1
0,1,0,17,18,17,1
23,13,13,7,1,2,35
26,32,37,1,1,1,41
2,4,4,1,8,43,3
2,1,0,4,17,13,1
3,0,2,19,2,20,4
29,28,17,6,1,2,41
18,21,31,1,1,28,29
2,1,3,0,90,29,1
2,1,1,2,21,31,1
14,5,4,22,2,2,18
32,31,14,7,1,22,48
4,15,30,1,1,24,5
2,2,4,1,32,30,1
1,0,0,0,5,11,2
21,16,2,26,3,12,36
27,28,33,5,13,19,43
2,4,23,3,30,99,4
1,1,3,1,40,43,0
2,1,2,0,2,36,3
36,25,15,25,2,31,45
22,24,19,7,72,3,34
1,1,2,2,31,187,2
0,1,1,0,44,149,0
12,5,0,1,17,10,16
30,35,35,18,6,39,53
6,7,32,5,59,148,6
0,1,2,3,33,242,3
2,1,0,3,16,11,1
24,18,3,1,2,150,28
29,32,25,23,49,32,44
3,6,14,14,56,26,4
0,1,3,2,5,38,1
3,0,1,0,1,72,1
32,11,15,7,1,10,42
15,34,21,23,16,210,30
1,5,1,9,100,60,2
1,1,0,2,41,139,1
14,0,1,0,10,37,15
31,31,54,6,41,6,52
5,23,17,19,3,259,8
0,2,2,10,1,77,2
2,50,1,1,218,102,0
26,7,7,0,10,29,31
28,17,26,18,29,49,43
2,1,5,5,57,74,3
0,0,1,2,17,276,1
2,17,1,1,73,53,1
28,53,4,1,5,7,42
21,20,32,17,142,14,31
2,2,24,10,4,35,3
2,3,2,2,45,116,0
7,25,2,1,6,197,11
35,21,1,2,11,27,52
8,3,21,20,2,85,9
1,1,20,8,47,49,2
2,2,2,1,19,135,1
10,12,0,1,76,102,29
32,6,23,2,5,106,45
7,3,28,18,24,76,4
1,0,3,11,26,57,0
1,1,2,1,2,10,1
23,45,15,2,35,49,42
24,101,9,18,2,173,34
2,14,3,16,3,19,2
1,1,0,1,19,157,1
1,99,2,0,19,10,12
31,36,8,0,3,88,54
17,14,21,11,110,166,9
2,16,6,14,9,93,2
1,25,2,2,22,145,1
10,1,1,0,16,50,26
30,1,15,7,2,2,44
7,113,32,13,2,114,4
2,180,5,11,22,56,1
1,9,2,1,28,4,2
21,1,1,0,1,132,47
32,1,20,8,0,45,31
3,0,16,21,10,111,1
1,3,24,10,77,97,1
1,4,2,2,60,76,8
26,0,4,0,5,86,48
42,20,29,15,3,93,18
3,2,5,14,22,77,2
1,16,2,1,6,29,2
8,10,1,0,1,75,26
29,2,1,2,1,8,45
13,1,42,18,45,109,4
3,0,33,10,31,324,1
0,13,2,2,2,18,1
22,176,1,2,2,259,39
27,16,13,6,17,40,36
4,0,11,20,22,23,2
1,1,2,5,3,152,1
2,3,2,1,1,45,7
32,19,1,0,2,22,47
22,44,24,16,11,105,18
1,6,23,13,56,20,1
1,11,1,4,15,91,0
7,2,2,1,2,134,26
35,0,18,0,2,157,47
15,0,17,10,40,126,5
1,0,0,1,12,35,2
2,133,2,1,23,8,1
35,109,0,1,5,61,43
19,13,39,1,17,115,37
2,163,16,1,14,13,3
12,110,1,16,18,21,2
2,6,0,3,0,129,9
2,50,2,0,0,129,49
10,15,18,10,74,20,21
0,2,35,128,28,110,0
0,94,3,17,2,19,1
195,256,1,3,72,174,22
54,8,6,3,7,9,50
3,0,26,16,102,2,6
2,9,14,9,25,130,1
1,109,1,2,1,33,1
0,54,2,2,60,156,39
7,10,17,2,7,64,37
55,47,35,23,2,14,1
4,3,15,177,2,216,1
2,141,2,21,1,22,8
14,12,0,1,59,22,51
21,41,34,1,8,90,24
2,2,24,0,43,144,0
1,0,3,1,3,31,0
173,42,1,1,1,115,19
71,47,7,53,27,80,51
5,56,24,179,2,102,5
7,3,3,65,23,9,0
1,164,1,8,1,10,1
16,32,0,0,3,99,44
106,3,0,2,23,13,38
5,2,37,46,5,79,2
51,92,4,5,1,54,2
5,39,1,0,10,109,9
0,201,1,156,8,59,47
1,11,24,50,9,3,24
202,5,11,2,29,29,2
142,263,2,53,3,82,1
5,17,2,144,0,45,19
113,1,2,2,2,38,51
5,3,27,32,83,29,5
19,268,18,109,14,3,1
30,12,3,138,4,217,2
3,6,0,42,31,19,36
110,0,10,21,42,44,40
3,2,26,1,3,20,1
0,255,5,26,0,25,1
38,161,0,1,1,4,7
93,27,0,0,18,97,47
6,19,16,68,51,122,22
46,5,29,8,36,13,1
35,82,5,3,3,2,1
2,54,0,106,1,40,18
80,33,0,120,17,49,47
7,27,24,4,54,11,5
15,1,16,2,3,160,2
56,0,2,48,25,30,2
5,26,0,3,33,4,36
0,89,17,44,9,125,38
41,4,37,8,5,27,3
4,255,9,35,4,14,2
168,6,2,23,1,22,4
7,2,6,19,49,95,44
34,163,10,171,3,33,26
2,31,59,24,41,192,2
5,4,4,33,5,25,0
57,17,22,3,1,102,21
14,4,2,6,6,40,51
10,223,27,21,7,35,6
16,9,79,3,3,25,1
24,1,10,52,20,25,0
13,19,2,117,1,31,35
1,82,37,3,22,3,44
88,6,19,35,4,8,3
19,4,7,93,1,1,2
1,2,39,82,0,180,8
0,37,6,8,9,47,45
77,47,30,2,1,20,26
90,3,70,102,28,12,3
18,0,5,6,4,29,2
2,144,9,34,22,4,17
12,74,88,28,3,121,51
9,66,7,150,2,12,5
157,9,32,22,18,7,2
35,38,19,2,10,4,0
3,87,2,99,1,7,34
2,4,54,175,18,68,38
4,190,101,5,15,109,2
2,8,5,28,1,5,0
5,76,2,255,0,20,4
36,34,28,7,15,73,42
29,2,29,318,46,97,30
4,15,2,10,7,9,2
3,40,3,116,1,2,0
1,9,37,10,46,34,16
112,2,100,48,5,29,50
8,2,22,4,3,27,7
1,33,27,28,18,10,0
57,29,27,163,7,6,1
4,6,2,15,1,29,32
48,0,24,52,10,42,44
6,2,4,28,11,37,4
1,17,126,59,2,2,1
1,76,41,5,3,22,1
0,7,11,9,9,217,43
187,28,8,183,1,12,32
8,11,137,42,1,9,2
1,60,27,2,3,28,1
0,3,18,135,0,19,16
45,2,2,44,0,38,52
79,90,49,24,66,3,7
6,117,78,5,11,80,2
1,8,8,50,27,18,0
2,1,80,91,2,9,31
2,1,15,22,3,113,43
70,0,37,91,1,71,4
21,81,99,39,3,4,0
16,74,5,53,41,18,2
3,4,36,45,4,45,43
0,17,3,22,2,19,29
1,67,71,11,10,25,2
65,44,34,3,3,11,1
6,3,103,59,24,54,16
7,0,51,155,6,19,55
5,1,52,4,3,1,7
48,19,43,18,17,72,2
3,54,17,204,36,21,0
12,4,108,35,3,2,26
66,0,6,113,1,42,45
7,4,42,32,28,5,7
3,95,4,11,5,43,1
18,17,83,59,0,6,3
13,1,12,34,0,160,42
16,9,63,1,0,54,31
15,18,9,421,16,10,3
2,73,149,25,33,73,1
4,7,60,95,4,4,13
7,2,16,9,1,132,53
27,1,8,191,34,16,8
20,23,77,73,11,30,2
3,25,49,20,1,13,1
2,30,29,53,85,38,28
7,27,32,8,4,25,40
82,2,13,92,21,5,4
30,149,97,19,25,27,1
1,54,25,120,9,79,2
1,5,1,13,3,11,42
94,23,108,1,0,2,31
8,33,40,0,33,18,3
1,2,20,191,2,17,2
1,1,7,25,13,62,10
32,39,10,16,37,10,53
8,22,28,121,21,71,7
58,4,16,198,32,12,0
4,1,44,7,2,25,1
32,33,11,28,1,7,26
16,7,5,9,2,72,43
8,66,68,7,1,5,3
2,7,11,73,10,84,0
33,1,7,39,3,44,0
22,90,166,4,3,3,43
13,11,12,16,1,1,35
8,59,6,270,22,54,2
1,60,17,20,4,42,3
1,29,38,32,1,23,14
19,2,85,7,5,62,53
57,44,17,38,1,50,8
3,48,2,1,34,11,1
0,5,53,30,12,8,0
2,2,16,96,3,2,25
73,57,58,16,3,33,48
7,47,3,4,11,69,6
1,1,32,23,9,10,0
1,1,106,67,24,24,1
13,40,7,35,3,30,35
6,44,23,3,49,14,37
2,8,2,4,10,46,3
1,1,80,109,18,98,0
32,40,40,44,5,6,14
45,32,4,37,27,43,53
30,60,42,73,16,84,9
3,5,10,41,6,21,2
0,4,21,9,18,6,0
102,8,24,27,0,116,25
29,15,19,31,1,6,48
8,18,1,62,28,17,6
2,70,36,5,28,29,2
1,147,5,48,2,50,1
1,6,1,98,1,11,43
23,2,34,10,9,6,36
82,4,129,26,7,2,1
5,10,34,26,18,151,1
0,20,16,4,11,34,10
7,39,3,121,1,23,52
2,3,85,5,7,11,9
32,41,43,44,6,31,2
18,5,2,52,2,47,0
1,4,1,5,3,37,24
25,12,20,18,1,15,47
70,8,47,77,33,27,4
5,49,21,16,19,14,2
0,46,2,174,6,27,1
10,5,2,7,0,139,38
62,1,58,8,7,4,34
4,0,75,13,25,107,2
1,29,6,75,13,18,0
120,3,17,4,7,7,10
16,73,71,1,1,3,49
4,13,22,11,7,81,9
1,1,6,33,49,25,2
1,33,64,4,9,19,0
32,32,4,114,1,89,21
8,3,42,23,2,44,49
47,0,23,18,2,42,5
3,1,8,2,43,4,1
1,134,17,76,39,20,1
72,8,54,6,3,75,35
22,1,8,1,0,64,42
3,13,3,15,8,3,3
0,43,4,81,32,87,1
54,2,22,24,14,32,8
48,73,27,64,1,14,49
2,4,80,77,1,50,20
2,21,9,30,46,3,1
0,1,1,3,8,41,1
25,44,14,4,2,68,23
20,2,13,81,0,19,49
13,3,61,51,3,2,5
2,3,8,2,17,2,2
3,51,13,57,35,156,1
113,7,38,83,2,7,37
8,3,34,15,0,4,36
2,54,2,15,1,8,3
1,45,5,8,94,45,1
11,3,32,29,27,25,6
43,16,41,84,2,9,47
2,22,20,9,1,14,25
0,1,1,81,30,26,1
13,34,3,14,6,3,0
165,96,57,29,33,4,22
12,5,62,4,4,55,51
1,48,4,145,0,17,4
0,64,12,15,9,6,2
79,4,50,2,4,84,0
65,1,16,85,23,100,37
4,5,1,14,7,25,42
2,3,107,30,3,11,2
9,18,69,103,12,102,1
25,80,14,7,16,1,5
5,4,146,29,1,208,45
0,2,30,3,0,48,33
19,30,33,23,0,17,3
23,3,3,42,25,2,2
12,1,14,9,9,7,17
2,66,3,1,3,23,50
0,51,44,16,2,18,7
6,23,133,72,6,106,1
103,9,9,32,30,4,0
12,2,4,12,38,39,30
1,4,34,36,3,29,42
1,2,21,33,2,5,3
95,1,144,26,8,77,1
25,70,5,6,24,25,6
1,7,5,1,34,13,44
23,2,48,17,3,22,31
1,0,109,55,19,29,3
68,12,13,6,11,23,2
31,3,20,21,49,14,17
2,73,123,2,2,4,49
1,23,259,13,1,11,6
28,34,41,22,6,2,0
26,19,22,22,60,24,2
5,2,56,1,8,82,34
1,20,12,2,3,4,43
1,15,162,10,0,169,3
0,42,63,14,1,72,2
46,1,4,4,30,5,6
36,15,1,53,9,1,48
9,16,86,120,1,21,29
1,13,5,5,0,10,2
4,4,18,2,3,24,1
25,19,37,82,60,40,20
12,5,4,44,15,23,52
0,40,18,16,1,9,8
4,12,39,2,1,7,1
32,2,12,26,52,36,0
8,0,13,99,9,58,33
1,26,37,7,20,2,44
21,60,11,1,3,229,3
24,7,79,6,2,27,0
79,2,60,2,14,24,3
5,0,74,96,2,1,42
0,60,22,23,24,52,30
10,39,32,6,2,23,1
45,6,151,1,19,9,0
11,1,32,7,28,19,15
1,11,35,48,3,31,54
1,1,21,14,1,86,6
36,66,1,2,1,11,1
117,6,76,1,56,11,0
4,2,43,85,36,29,31
1,1,1,11,2,12,45
47,76,32,28,1,26,4
22,14,9,3,34,3,2
23,1,0,49,14,33,2
0,0,71,66,3,14,43
0,52,11,3,1,54,32
30,61,17,18,0,5,1
5,11,13,10,37,33,1
36,2,41,5,7,44,18
1,19,44,171,8,11,52
29,15,36,12,1,39,7
10,40,4,33,2,6,2
3,10,3,51,0,5,1
1,6,34,21,17,127,29
38,33,8,1,20,13,49
7,10,3,31,4,13,4
4,1,42,59,2,51,1
11,2,21,14,79,16,1
2,4,36,58,21,12,44
15,75,24,30,2,1,37
9,11,27,5,1,22,2
9,14,34,1,1,107,0
2,51,15,39,34,5,16
1,17,8,1,6,165,54
66,24,19,32,1,13,7
63,15,57,37,1,95,0
4,1,132,43,1,7,1
0,94,4,3,38,1,27
1,18,52,13,28,5,47
42,3,63,4,3,62,5
21,0,50,86,1,48,2
3,17,33,5,0,6,2
1,27,12,4,78,1,44
0,6,107,25,12,77,33
62,1,41,43,2,8,2
34,0,22,8,0,115,0
4,35,15,2,8,16,11
1,10,31,27,2,0,51
8,18,13,43,32,35,10
58,14,9,17,3,4,2
8,31,2,1,1,15,0
3,18,84,55,2,3,37
0,2,42,5,58,2,40
1,2,108,5,10,59,3
44,16,4,5,0,23,1
6,18,23,148,1,9,12
1,89,71,5,2,72,51
0,4,28,4,36,6,8
15,1,3,105,4,115,0
30,1,91,11,1,17,2
32,31,19,8,1,1,28
2,45,9,54,25,29,44
1,3,3,12,16,36,4
2,59,20,4,0,27,2
40,21,9,106,0,6,0
33,15,3,7,2,13,41
4,0,34,7,34,66,38
9,50,23,9,12,6,3
16,52,117,16,17,13,0
33,3,70,1,3,3,7
2,2,15,12,0,45,52
6,1,4,11,7,12,22
33,1,36,16,2,48,2
7,55,91,5,2,3,0
2,8,8,0,1,76,28
30,13,16,89,3,23,44
1,2,16,44,16,12,3
9,23,24,3,3,0,0
27,14,34,4,1,17,1
5,7,3,74,3,47,40
2,1,1,10,34,55,34
1,29,2,18,15,3,1
45,6,56,4,1,0,0
8,5,53,71,0,68,9
7,25,7,8,1,26,45
2,2,33,101,0,54,18
0,25,18,11,24,15,0
7,5,33,2,9,47,0
121,1,13,1,2,24,27
6,6,18,28,0,22,43
1,4,19,48,13,27,5
5,11,26,19,38,7,1
20,21,4,18,3,18,1
8,6,5,19,1,15,39
2,6,2,25,1,10,38
4,1,56,3,23,17,2
37,41,60,8,8,11,2
27,47,4,11,1,2,7
3,5,46,64,1,0,48
0,0,55,6,1,61,19
4,25,11,1,25,33,1
51,8,1,14,19,25,1
11,36,6,18,3,27,24
1,15,87,2,1,45,48
2,1,35,62,28,6,5
48,7,13,35,8,17,1
19,42,2,17,5,42,2
2,3,25,3,2,2,39
1,1,16,0,0,20,39
11,9,78,26,25,62,4
47,17,20,30,9,6,2
4,38,38,33,18,32,7
16,8,29,10,1,12,48
1,2,10,14,2,55,27
1,1,54,24,40,4,2
21,46,16,3,50,45,0
46,6,9,4,3,9,20
6,1,46,20,1,11,49
2,2,15,87,0,11,6
1,57,6,21,5,48,1
54,13,65,27,30,3,1
123,2,14,2,3,6,38
3,2,31,26,1,10,38
3,90,4,24,4,43,3
47,20,31,32,14,33,0
7,13,103,2,8,7,4
1,2,4,0,1,31,47
12,0,1,24,0,3,22
2,1,51,52,7,14,2
117,82,57,23,29,65,0
12,19,30,3,3,7,24
1,1,6,85,0,2,48
1,9,12,40,14,69,5
16,1,34,2,3,6,1
53,18,11,42,16,1,0
3,37,2,1,23,44,36
2,2,1,19,3,3,44
20,0,43,11,1,55,3
35,16,11,21,2,5,1
3,17,2,18,65,2,4
29,5,2,48,5,148,48
2,3,12,10,1,22,26
16,1,13,21,1,3,1
10,0,22,31,47,0,1
14,106,5,11,5,46,22
1,6,2,10,3,3,53
3,2,8,50,0,14,5
33,5,29,53,2,9,1
11,37,6,75,20,51,1
1,7,2,31,17,17,32
0,2,13,6,2,14,40
39,2,6,2,3,6,3
25,2,43,55,8,4,2
2,58,5,12,6,55,4
1,11,2,5,6,4,47
1,29,10,52,12,20,29
53,14,16,78,1,36,1
62,28,38,10,5,6,2
9,3,2,10,29,33,15
1,2,2,49,14,110,54
37,2,29,11,0,6,6
14,42,34,29,2,20,1
2,63,4,1,10,47,0
2,33,10,90,17,8,32
13,2,12,7,14,24,38
33,8,6,26,1,9,3
10,45,14,22,0,17,1
2,43,12,36,24,34,3
1,3,6,1,22,1,47
2,2,18,24,1,15,26
81,50,26,3,11,8,1
6,28,2,15,8,23,0
0,1,15,33,10,4,14
3,3,14,4,2,1,57
5,4,32,38,3,1,7
27,1,4,2,1,64,1
4,79,2,2,39,17,1
0,10,1,32,22,6,31
1,2,83,58,4,2,47
6,12,21,6,0,4,4
46,56,2,9,6,38,1
13,5,0,3,19,51,3
0,0,56,1,7,9,46
54,1,43,33,5,2,30
29,15,10,36,2,31,3
11,49,0,41,1,25,2
2,9,14,15,20,7,16
21,2,20,24,32,24,49
48,2,16,53,3,2,5
30,15,1,10,2,62,2
5,47,1,55,3,72,0
1,4,62,12,43,4,34
24,3,25,6,7,2,42
100,0,2,30,1,0,2
6,50,0,6,0,165,1
6,75,2,31,23,18,4
4,5,42,21,12,12,44
17,2,17,35,2,15,32
15,27,3,50,5,37,2
3,9,1,12,0,7,2
1,1,7,20,9,2,15
24,0,70,44,45,24,47
23,1,19,4,9,48,7
15,49,2,2,3,14,2
2,21,34,2,2,3,0
1,40,49,41,31,0,26
13,3,16,34,24,30,56
3,2,10,2,2,14,6
6,1,10,5,5,22,1
2,78,25,33,1,3,3
1,32,24,28,14,5,52
58,2,23,1,8,45,34
35,3,1,7,3,31,3
13,67,4,1,1,6,0
0,7,21,0,1,1,14
0,26,18,88,30,48,56
34,6,3,53,14,35,8
15,33,19,4,2,6,1
1,26,30,21,3,7,2
3,3,5,20,6,1,26
8,0,2,2,21,27,48
38,2,1,55,7,5,4
18,50,31,6,3,5,1
2,19,18,1,1,6,1
29,2,14,1,1,21,46
7,1,3,154,51,60,43
36,1,9,6,16,18,1
8,27,55,2,3,1,1
2,32,7,49,1,1,12
35,3,8,6,46,17,51
24,3,5,8,9,28,9
1,16,7,20,9,23,4
0,14,36,3,2,2,0
2,8,61,21,1,20,26
10,2,5,1,15,20,54
47,2,3,111,7,17,6
5,9,59,65,18,1,2
2,30,26,9,2,1,0
10,9,2,5,0,1,43
19,1,19,2,33,26,34
11,0,5,27,16,13,2
3,22,32,53,1,2,0
0,43,28,11,9,0,9
10,3,2,2,26,7,50
17,1,2,1,11,8,17
6,18,38,43,2,9,2
9,122,56,39,0,2,0
1,13,17,29,1,0,29
21,2,8,7,17,37,41
36,2,1,3,25,21,4
1,55,11,33,1,2,1
15,10,24,19,0,7,0
18,1,2,18,1,0,36
3,2,1,30,45,15,38
2,155,70,73,21,10,2
34,15,14,17,0,1,0
3,2,1,22,1,1,10
52,4,0,34,9,2,49
26,2,19,11,33,10,8
2,14,32,1,20,2,0
0,18,16,70,1,14,0
33,8,4,21,1,6,30
32,1,11,3,10,24,50
3,93,69,67,5,6,5
0,17,24,26,23,20,1
20,9,2,9,1,4,1
29,1,4,4,2,1,39
44,0,0,24,37,11,39
3,14,35,27,26,25,1
1,41,21,1,2,1,1
1,3,2,60,2,1,9
9,28,8,4,4,6,49
49,10,21,2,7,21,22
10,34,11,71,9,4,2
1,9,14,9,13,1,0
8,2,9,1,0,1,24
45,0,2,114,1,11,47
7,50,12,11,17,32,4
1,18,7,1,17,20,0
7,2,1,53,2,2,0
17,0,0,97,3,1,42
9,1,1,18,14,31,42
2,124,14,33,4,10,2
15,46,23,2,6,2,0
0,6,8,41,1,0,9
56,2,39,3,0,2,48
24,6,3,116,101,32,22
2,40,38,13,9,56,0
0,3,12,2,1,6,1
6,6,4,35,1,2,22
31,4,18,44,6,6,57
18,31,30,88,32,56,5
1,33,62,17,39,12,1
4,2,4,0,3,2,0
85,1,2,2,1,0,37
13,0,46,54,20,27,42
1,22,29,11,21,4,3
2,9,3,10,35,2,1
2,1,2,43,3,1,6
50,47,35,14,1,15,47
8,29,7,31,44,35,24
3,13,5,8,23,14,1
1,3,9,3,1,2,1
5,2,3,3,1,2,23
2,74,5,1,6,7,49
16,11,27,6,41,45,4
14,22,30,8,4,7,1
1,3,8,24,4,2,1
9,0,3,7,1,2,38
31,56,9,55,14,38,40
4,76,21,8,44,25,1
2,11,25,2,5,1,1
7,0,4,48,2,5,5
4,7,1,32,1,183,50
29,48,48,2,18,24,28
54,60,57,1,57,2,1
3,3,5,72,4,1,0
1,0,0,66,5,1,17
27,14,0,8,1,2,51
12,77,33,1,1,19,5
6,4,10,102,55,1,1
1,2,7,16,23,2,0
35,10,1,2,2,2,34
32,11,28,5,2,0,44
5,34,10,45,79,42,2
0,2,28,18,9,8,1
2,1,1,42,2,2,4
19,8,5,3,0,0,50
33,15,44,27,33,2,27
4,10,27,1,47,22,3
3,1,2,44,20,2,1
16,2,1,46,1,1,20
1,4,14,3,1,13,52
41,15,29,1,36,63,8
27,59,29,0,3,13,0
1,3,10,65,8,1,0
47,12,13,23,3,0,37
56,83,53,1,1,2,40
5,7,10,12,38,15,3
6,2,12,70,36,7,2
3,14,6,15,4,2,3
1,25,39,16,3,1,44
61,31,48,1,26,1,29
15,2,2,52,4,19,3
2,1,2,39,0,10,1
1,45,28,10,7,1,19
24,33,32,4,2,1,56
5,7,2,7,70,9,9
7,2,1,8,5,22,2
20,9,0,67,3,5,0
6,25,47,12,8,2,34
1,5,84,58,2,2,46
19,28,6,9,6,4,4
42,3,2,37,72,2,2
2,0,31,22,26,7,5
41,0,40,4,3,2,45
13,1,4,51,1,1,32
18,33,0,13,22,1,2
2,52,0,19,8,4,1
5,7,14,5,3,45,15
104,3,33,100,17,11,51
7,29,11,5,3,0,6
2,3,1,82,47,2,1
0,1,0,4,58,43,0
2,89,31,2,4,6,34
5,37,10,4,1,2,45
53,3,2,47,2,8,4
5,0,6,3,94,7,1
1,1,46,55,11,24,2
2,2,12,13,0,11,48
27,76,1,22,2,2,31
18,7,2,19,26,2,2
0,13,4,4,27,15,1
8,7,72,5,2,11,14
19,61,18,5,19,1,53
31,25,1,4,2,0,8
2,3,2,6,9,34,1
1,0,14,1,3,18,2
0,14,33,78,4,1,33
30,92,2,25,0,2,47
61,5,0,17,6,1,4
2,4,1,1,34,2,2
1,39,13,6,18,18,4
29,20,10,2,2,1,48
16,39,8,65,1,0,31
2,3,2,6,3,13,3
0,11,2,94,35,4,0
9,32,40,16,18,14,16
100,25,34,20,2,3,52
5,1,3,13,0,0,8
2,13,2,2,17,2,0
17,4,27,31,31,11,0
3,10,9,2,6,22,29
41,53,10,72,1,1,45
2,4,2,47,2,1,3
67,1,5,10,26,2,2
10,1,18,1,17,21,3
24,20,11,1,5,16,44
5,22,12,18,1,2,35
0,1,1,35,1,2,1
0,1,39,3,15,2,0
7,21,12,76,18,55,12
36,15,5,4,2,24,52
10,2,0,43,1,3,9
1,52,1,2,1,1,0
1,4,4,10,18,8,2
19,28,25,49,13,12,28
9,28,10,87,1,3,45
8,3,1,20,3,0,4
1,2,0,3,11,1,1
1,16,29,9,15,2,2
14,16,16,40,2,43,43
25,17,1,4,1,6,38
4,4,0,2,4,1,1
2,33,28,0,23,7,2
2,26,20,1,13,0,10
35,14,3,57,0,27,50
25,1,1,2,6,3,8
4,28,0,3,16,3,1
1,26,21,23,26,1,1
19,43,22,57,4,2,26
21,2,4,3,2,27,48
4,2,1,16,0,27,4
2,16,1,49,32,3,1
0,29,6,24,18,1,2
20,4,45,17,2,1,43
28,0,2,1,2,6,34
3,0,0,2,1,16,2
2,37,0,14,32,2,0
1,17,52,3,10,0,12
27,2,8,83,2,2,53
17,1,1,25,1,39,9
1,4,1,3,12,9,0
0,44,3,128,23,3,0
6,10,25,13,3,0,26
25,1,16,1,1,1,48
20,0,2,1,1,3,4
1,15,0,9,25,13,1
1,29,5,40,13,2,0
19,3,13,16,2,13,41
22,2,15,1,1,2,37
3,2,1,8,4,12,3
0,26,1,26,26,18,0
0,28,15,22,10,0,12
27,10,21,2,1,6,52
16,5,1,2,1,42,11
1,45,0,4,12,6,0
0,4,24,3,18,2,0
6,35,127,58,3,1,37
23,13,9,4,0,0,42
10,2,2,2,0,13,2
3,43,0,2,17,14,1
0,28,23,24,21,3,9
13,1,9,7,1,1,50
23,1,2,1,1,10,21
4,30,1,3,3,12,2
1,36,0,14,28,3,0
1,2,25,15,5,6,26
22,1,57,3,1,7,50
26,0,8,1,0,5,5
1,33,2,2,3,10,2
1,16,0,12,30,1,0
2,2,14,15,18,2,43
38,1,2,2,2,28,41
13,14,2,1,1,42,2
0,26,17,2,6,4,0
0,13,3,4,25,3,8
17,0,15,44,8,0,47
34,2,6,4,2,9,22
4,30,2,1,2,38,0
2,77,0,2,1,17,2
2,5,3,21,30,3,20
25,2,37,17,9,2,52
18,12,17,2,3,13,5
1,22,2,1,1,9,1
2,27,0,2,14,4,0
7,3,33,20,21,2,37
39,2,3,11,1,0,39
6,34,1,0,0,9,3
2,108,20,2,0,28,0
1,5,23,11,19,4,9
7,1,58,14,17,1,50
25,28,22,4,1,1,25
10,8,1,1,2,34,1
1,5,0,1,3,25,2
0,2,7,16,34,3,23
14,0,13,8,8,2,50
31,32,8,2,0,0,6
2,50,1,0,0,49,1
0,6,2,0,4,43,0
0,0,40,22,31,3,38
25,26,23,10,6,2,42
16,53,2,3,1,14,3
0,6,1,1,0,10,1
1,3,0,4,1,1,7
11,0,8,22,29,2,47
20,5,14,12,16,3,28
5,38,2,2,2,42,2
1,33,8,2,1,36,2
0,1,2,16,10,2,20
19,1,12,10,34,1,50
18,1,6,1,6,13,6
4,25,0,1,1,25,1
0,5,1,0,2,2,2
1,0,3,14,16,1,35
26,1,7,3,23,2,43
21,23,15,2,2,2,3
2,32,3,2,1,26,0
0,4,1,1,2,13,5
5,1,0,5,21,1,45
34,1,7,14,11,2,31
18,30,4,2,0,12,2
2,16,36,0,1,33,0
1,1,1,0,13,7,15
19,0,1,15,18,1,51
35,6,7,7,4,0,8
5,31,9,3,0,27,2
2,12,22,1,1,12,1
1,1,15,0,15,0,35
25,2,30,19,8,2,44
16,20,23,5,2,4,3
1,20,3,1,3,29,0
1,4,1,2,1,5,3
8,1,4,2,25,1,50
36,1,26,11,9,1,31
11,18,4,7,0,0,2
1,25,3,1,1,40,1
1,2,6,1,0,16,17
14,0,2,0,20,1,51
26,6,77,24,17,1,7
3,36,29,8,1,39,1
1,11,13,3,1,44,0
1,2,0,0,3,2,30
26,1,1,1,25,1,44
21,16,165,23,11,2,4
1,28,11,9,1,9,1
1,5,1,2,1,29,2
15,1,1,0,4,2,48
25,0,12,1,30,1,28
6,24,16,8,7,3,3
1,22,2,15,1,14,0
1,1,0,2,0,5,16
14,0,11,0,10,1,51
27,1,25,1,33,0,7
4,36,8,15,2,0,2
1,20,1,7,1,38,0
1,2,0,2,1,16,32
24,2,9,0,18,1,44
19,8,22,0,18,2,3
3,36,27,16,2,5,1
2,7,6,16,1,25,2
3,2,2,1,0,7,46
44,2,13,1,20,0,34
6,13,6,4,18,0,1
1,27,1,20,2,3,2
0,4,1,5,0,33,15
3,1,4,1,5,4,54
31,0,24,0,24,2,7
18,23,10,10,6,0,0
1,26,1,15,0,9,2
2,2,1,8,1,28,31
11,1,16,3,9,2,47
27,2,27,1,28,1,3
4,33,3,9,6,78,0
1,20,1,14,2,31,2
2,1,2,7,1,3,44
23,0,28,1,2,1,34
21,21,21,1,27,5,2
1,24,29,5,6,2,0
2,4,1,13,2,1,14
5,1,19,5,1,17,53
35,1,30,1,0,28,8
9,28,4,2,24,3,2
1,23,1,12,14,2,1
0,3,0,14,2,18,29
13,2,18,2,2,21,45
20,3,27,0,5,2,4
9,35,5,1,18,2,2
1,12,6,18,3,2,2
1,1,1,14,2,33,45
10,0,32,1,0,7,34
27,12,4,0,18,3,1
4,26,1,5,19,0,2
1,4,26,16,1,0,14
0,2,37,11,1,27,51
23,2,12,0,9,5,6
20,25,17,2,33,3,0
2,21,12,13,11,1,2
0,1,1,12,2,1,30
2,1,117,2,1,26,51
32,7,18,0,9,11,5
14,38,1,2,25,1,1
0,14,1,18,8,0,2
2,1,8,7,1,2,41
8,0,3,6,1,10,35
41,13,30,2,5,26,3
8,31,7,0,25,5,0
2,4,1,16,9,2,13
1,1,14,13,3,14,54
11,1,20,0,0,17,7
29,28,0,1,19,0,0
5,17,1,4,12,0,1
1,1,39,21,4,16,27
2,0,17,8,2,30,48
29,2,2,2,0,3,4
21,31,1,2,7,1,2
2,17,8,4,25,2,0
0,2,35,21,5,24,43
3,2,18,6,0,29,38
27,12,1,1,1,6,3
14,35,0,0,18,2,1
2,5,7,11,19,1,14
0,3,14,16,3,15,54
7,2,14,3,0,3,10
32,22,2,1,0,15,2
6,25,1,1,30,3,1
3,2,26,6,10,1,44
1,1,40,22,1,16,36
11,1,5,5,0,1,2
27,32,3,0,8,2,0
5,21,2,0,30,3,8
2,3,5,6,4,39,49
1,1,1,23,2,23,19
18,15,18,4,1,2,1
29,30,4,1,8,0,0
3,3,0,0,34,1,25
1,1,46,11,7,0,51
1,0,13,12,2,27,5
33,22,2,2,2,45,0
15,26,1,0,4,1,0
1,2,0,1,31,1,42
0,2,10,22,7,9,34
6,2,17,9,2,8,2
30,31,2,1,1,2,0
9,19,1,1,9,1,10
1,1,0,2,24,1,51
0,2,24,17,12,11,11
8,11,39,12,1,6,1
33,31,2,1,1,1,0
8,5,0,1,18,2,43
2,1,19,5,22,6,39
2,3,19,15,4,16,3
8,21,4,2,1,12,0
34,29,1,2,1,1,5
7,3,6,1,29,2,48
1,2,15,3,10,1,24
2,2,22,23,2,4,2
10,31,3,4,1,13,0
29,18,1,1,6,5,25
6,0,1,1,30,2,52
0,0,56,1,18,2,5
1,12,23,17,2,11,2
20,32,1,3,0,27,1
24,6,1,0,10,2,40
2,2,8,1,17,1,40
2,0,40,2,3,2,1
1,21,11,18,2,48,1
29,25,2,8,0,6,8
14,1,2,0,21,2,44
2,1,1,0,13,0,23
1,1,49,3,2,3,1
7,33,46,17,0,2,2
32,18,3,9,9,26,22
10,2,3,2,29,4,50
1,0,35,0,8,0,6
1,7,15,6,1,1,2
16,35,0,22,0,13,1
25,11,0,11,4,25,36
2,0,18,2,27,1,42
2,0,39,0,10,0,3
4,19,8,8,0,7,2
28,25,3,18,0,11,6
23,1,0,5,10,5,47
1,1,2,0,18,1,24
0,1,62,2,2,1,2
10,28,11,12,2,10,2
28,26,2,15,0,3,20
5,2,2,2,22,2,51
1,0,27,0,19,19,5
1,9,5,1,2,4,0
20,38,1,19,2,13,1
24,9,0,9,6,30,38
3,2,0,5,39,3,41
0,2,70,0,7,1,3
2,5,32,0,1,7,1
20,28,1,16,1,19,6
20,7,2,12,2,2,46
0,1,64,2,31,1,28
2,1,6,0,5,2,3
7,14,4,0,2,37,0
33,26,5,20,0,36,20
11,4,1,15,4,3,53
0,2,1,2,25,2,5
0,0,58,2,15,0,1
18,22,6,5,2,34,0
24,24,2,17,10,25,38
1,1,2,11,7,5,42
2,1,1,3,18,0,2
2,3,22,1,3,2,1
25,32,32,15,2,11,4
20,19,1,11,0,11,47
0,3,2,1,28,1,27
0,1,16,1,11,1,0
11,7,16,2,2,9,0
29,30,2,18,1,23,20
4,11,3,6,2,7,55
2,1,6,2,25,1,5
0,1,4,2,11,0,1
17,19,0,0,1,0,0
23,26,14,22,1,24,34
2,3,6,6,15,6,46
0,0,2,1,14,2,4
1,2,2,2,6,2,0
30,28,35,1,2,0,3
21,22,11,25,1,26,47
2,1,1,4,7,7,31
2,1,4,0,26,1,1
10,7,29,2,4,2,1
24,33,17,1,0,0,16
4,11,2,19,1,42,57
1,2,0,6,24,15,7
1,1,2,1,9,3,2
16,21,71,1,2,0,0
22,25,25,2,1,2,33
1,4,2,24,2,30,45
2,1,4,14,12,10,3
1,0,27,1,21,2,0
21,28,40,0,2,2,3
21,19,3,7,1,28,45
3,1,1,28,5,7,38
1,2,2,5,24,6,1
6,8,18,1,12,2,2
28,32,7,0,1,0,15
8,11,4,8,0,28,54
1,1,9,19,15,22,7
0,0,4,4,17,2,2
10,18,28,2,2,0,0
25,27,6,0,1,5,31
5,3,2,4,1,32,44
1,1,0,15,23,13,3
0,2,3,6,20,1,1
20,28,34,1,2,0,3
25,19,56,0,1,11,48
2,2,3,4,1,49,30
1,2,5,22,26,7,1
1,5,26,7,9,2,1
27,33,11,3,3,2,15
18,8,2,2,0,1,52
0,1,1,13,3,37,7
1,2,2,14,19,21,1
8,9,28,2,14,2,2
31,34,16,1,2,1,28
17,10,1,2,0,26,46
1,2,2,12,15,5,4
0,1,41,7,20,3,1
16,15,53,2,3,0,0
24,29,6,0,0,0,43
4,5,2,1,0,14,35
1,2,1,13,20,19,3
2,0,24,10,25,7,1
25,28,6,2,3,3,12
16,19,2,0,1,9,52
1,1,1,7,7,23,9
1,0,2,7,25,4,3
3,5,28,11,9,0,2
30,34,14,2,1,1,32
10,13,2,1,0,47,46
2,2,0,1,6,37,4
0,1,32,18,27,3,1
19,16,55,7,17,0,2
23,27,7,1,1,0,46
1,4,2,2,1,27,36
1,0,2,2,6,6,1
2,0,12,23,30,6,1
30,25,32,9,7,2,14
19,25,4,3,1,3,53
3,3,1,1,0,4,10
0,0,2,2,13,25,1
6,5,0,18,17,6,1
32,30,19,5,3,3,39
9,13,58,2,2,0,33
2,1,4,2,0,11,2
1,0,2,1,19,24,0
6,14,27,23,13,2,11
28,29,25,11,2,1,53
10,3,3,1,2,1,7
1,2,2,0,5,39,1
1,1,5,12,23,24,0
16,25,22,8,14,1,29
24,18,6,3,2,1,50
3,2,1,0,2,14,5
1,0,1,1,14,4,1
0,5,2,5,15,0,1
25,31,7,19,4,0,40
19,14,30,13,2,3,37
2,2,24,2,1,21,3
0,1,2,0,20,37,0
4,14,16,15,7,6,12
29,31,14,9,1,1,57
15,4,3,3,1,1,9
3,0,2,2,1,5,1
1,1,8,0,17,8,0
13,24,37,19,15,18,26
25,23,10,15,1,3,48
3,1,0,2,1,0,4
0,0,1,1,2,2,0
2,3,28,2,31,27,1
25,39,25,18,6,11,43
22,16,2,11,2,2,37
2,2,0,1,0,5,3
2,0,1,0,1,44,0
4,12,26,6,31,7,10
30,28,4,19,6,2,54
13,2,2,6,1,1,8
2,1,16,2,0,5,2
0,0,10,1,4,25,1
19,24,24,5,28,12,25
23,22,9,18,11,2,48
1,3,1,6,1,0,5
2,0,2,3,1,18,1
1,4,3,1,9,27,1
23,36,18,8,26,4,44
22,12,4,21,5,0,38
3,0,1,7,2,0,2
1,2,0,0,0,65,2
4,16,3,1,9,13,8
29,30,92,4,26,3,51
14,3,13,18,8,0,23
2,0,1,4,1,8,2
1,2,1,1,1,10,1
14,23,12,2,8,4,25
23,23,20,3,28,2,50
4,2,3,15,6,0,6
0,0,0,6,0,3,0
1,2,6,2,1,36,2
25,31,8,2,9,5,39
27,17,20,1,25,2,42
3,3,18,18,9,2,3
1,1,1,8,1,0,0
4,14,8,2,1,4,8
31,25,25,1,17,31,49
15,2,7,6,18,7,28
0,2,1,22,2,2,1
2,0,0,4,0,3,0
13,25,5,1,1,19,19
26,23,40,1,14,5,49
3,1,17,5,12,6,5
2,2,1,15,1,1,1
1,3,2,8,0,1,0
26,31,15,2,0,9,40
21,18,8,1,22,22,42
2,2,1,5,16,9,2
0,1,1,24,1,5,1
3,13,1,8,0,1,8
33,28,21,0,5,7,51
17,3,25,1,30,12,25
1,2,17,4,4,4,3
1,0,6,18,1,0,2
11,25,6,6,0,0,25
27,18,17,2,11,5,53
5,1,4,0,18,17,6
1,2,2,8,3,6,3
2,3,0,24,1,1,1
22,29,9,7,0,1,36
20,14,20,2,24,20,45
1,1,28,1,16,4,3
0,1,3,3,1,2,2
5,13,1,21,2,12,8
32,30,15,5,2,5,45
13,1,42,1,19,20,27
1,1,2,0,22,7,2
1,1,2,6,2,1,0
12,22,0,21,1,0,20
31,24,17,4,6,0,51
4,2,12,0,31,23,5
0,1,0,0,4,4,0
0,3,0,5,2,2,2
24,35,18,22,1,1,40
22,15,2,7,11,0,44
1,1,31,2,27,14,3
1,0,25,1,3,6,1
1,12,3,2,1,5,4
31,33,5,22,2,10,49
15,4,2,5,22,1,28
1,0,1,3,17,16,2
1,1,0,1,1,13,1
11,32,2,6,1,1,20
27,14,3,23,1,10,53
4,2,19,6,29,23,6
1,0,15,2,14,6,1
2,3,1,2,0,12,0
20,13,1,8,0,2,33
29,18,19,17,9,8,42
3,2,6,4,21,14,2
2,0,2,1,8,3,1
2,14,10,2,1,0,4
31,62,1,1,0,2,44
15,4,37,19,7,18,29
2,0,45,4,31,14,2
1,2,2,2,9,5,1
11,33,1,0,0,0,16
30,26,9,4,2,0,53
4,1,10,26,1,4,8
1,0,7,6,20,24,1
0,1,10,1,9,11,0
22,43,3,1,1,1,34
20,15,19,0,1,1,44
1,1,22,20,10,12,3
1,1,2,10,25,27,0
1,15,1,0,2,4,5
25,30,6,0,0,2,48
14,6,56,12,2,3,30
1,1,9,12,14,53,3
0,2,2,2,11,26,1
7,28,0,2,2,2,18
33,27,0,1,2,2,56
8,3,9,19,1,18,5
2,1,28,12,21,13,2
0,3,5,2,15,3,2
10,33,2,0,2,0,34
27,25,2,11,1,8,47
4,1,24,5,4,36,4
1,2,32,14,29,5,1
1,8,3,1,19,2,2
19,37,1,1,1,0,48
25,7,30,7,2,4,31
2,1,24,18,7,26,2
1,1,1,3,27,9,2
1,10,1,2,6,1,18
29,37,2,1,2,12,53
17,2,46,13,0,2,6
1,1,59,13,17,10,2
1,0,5,3,19,6,0
13,21,2,2,2,0,28
28,28,0,0,0,0,45
4,3,31,19,2,4,4
1,2,30,8,25,47,1
1,3,22,1,16,4,1
24,35,3,0,2,2,42
24,20,4,0,0,0,34
2,3,15,18,2,11,1
0,0,2,11,28,8,0
3,12,1,1,9,2,16
29,34,2,1,2,1,52
18,4,14,3,2,0,7
1,0,6,19,3,5,1
2,2,2,7,26,16,1
9,22,2,0,14,8,27
34,27,0,1,3,1,47
8,2,20,4,1,1,4
2,2,25,19,10,1,0
1,3,3,4,25,24,1
9,25,2,0,2,3,45
31,16,2,0,1,1,35
10,0,26,2,2,2,1
2,2,8,22,28,25,1
0,16,2,8,18,27,13
19,27,3,0,1,2,53
22,5,1,0,1,1,8
2,1,29,4,3,2,2
1,0,17,20,30,35,1
2,38,2,9,6,28,25
30,7,1,2,1,3,45
18,3,19,2,0,0,5
1,2,17,9,6,1,0
2,0,3,21,23,9,1
11,25,2,5,6,22,44
25,25,6,0,1,3,36
5,2,5,0,1,0,3
2,0,21,7,7,4,0
0,1,7,20,26,20,11
25,30,1,5,9,6,54
21,15,0,0,1,2,9
2,2,22,0,1,0,2
0,0,24,2,8,2,0
2,6,5,17,22,12,29
28,39,2,9,15,15,50
14,8,5,1,1,4,4
0,1,37,0,1,2,1
0,0,8,4,9,3,0
7,12,1,27,20,26,43
30,30,1,8,7,3,42
9,5,2,2,1,0,1
1,0,20,1,2,3,2
1,0,26,3,9,1,13
6,20,3,18,27,3,54
32,27,0,9,4,1,11
9,3,16,1,2,5,2
2,0,19,2,1,3,1
1,2,7,10,16,24,42
9,33,2,10,22,34,41
33,12,4,3,2,4,1
10,1,36,0,1,1,0
1,0,14,0,1,1,8
2,8,2,10,19,1,51
17,32,0,19,12,7,19
22,13,21,2,1,21,1
3,1,24,2,1,3,0
0,0,11,0,9,2,24
0,20,0,13,24,1,49
30,33,1,8,5,21,6
19,4,72,3,0,21,0
2,1,21,2,0,1,2
0,0,1,1,4,0,41
6,26,2,13,28,4,42
28,22,20,12,9,45,2
10,3,18,1,1,7,0
0,2,5,0,0,1,9
2,7,1,3,4,1,51
19,39,0,22,30,5,25
25,9,15,7,6,10,1
2,0,61,3,1,12,0
0,2,9,0,2,1,27
1,5,1,1,6,0,51
28,33,0,23,37,26,6
17,11,12,4,6,10,0
2,1,13,2,0,1,1
3,2,3,1,1,2,40
8,20,2,5,8,3,42
32,22,11,22,23,17,2
8,2,33,14,10,24,0
2,1,6,0,1,1,7
0,3,1,0,0,2,51
7,21,15,12,16,9,24
30,22,13,13,21,13,2
10,1,3,3,2,11,2
1,2,15,0,1,1,21
1,8,2,2,1,0,48
17,35,0,19,26,18,5
25,11,14,8,14,10,2
3,2,38,1,1,2,1
0,0,2,0,1,0,36
1,15,1,1,9,9,45
25,29,21,13,24,12,4
17,3,24,9,9,4,0
2,0,1,3,1,0,5
2,1,0,0,0,2,50
7,30,1,0,2,22,24
31,24,74,16,24,11,0
11,3,21,9,6,1,2
0,2,0,3,1,0,18
1,4,0,1,1,88,51
17,32,2,0,5,13,7
25,10,38,13,34,85,1
4,1,43,9,3,9,0
1,0,2,3,1,2,35
1,20,1,0,0,10,42
27,29,6,2,15,15,3
22,5,28,15,32,8,1
1,2,4,15,5,2,6
0,1,0,3,0,1,56
7,29,1,1,2,40,25
32,17,4,4,13,25,2
11,2,25,18,16,1,1
1,0,9,8,1,15,19
0,6,1,2,1,3,52
16,35,0,0,1,45,6
25,18,16,2,24,30,0
4,1,7,26,14,7,0
2,1,3,7,0,16,36
2,16,1,2,1,42,43
26,24,9,0,3,57,4
20,3,16,4,21,44,2
2,1,17,17,13,52,5
1,1,1,4,0,171,48
9,29,1,2,1,10,28
37,16,6,0,26,125,3
13,2,61,3,15,6,2
1,1,4,19,3,57,20
2,13,1,10,0,5,54
19,33,11,1,26,19,6
24,8,1,0,7,23,1
3,2,2,6,3,9,1
1,2,3,10,5,12,34
0,20,86,6,30,95,42
24,24,10,3,3,31,2
22,1,4,1,14,2,2
2,0,5,6,6,131,5
1,2,5,15,1,78,46
6,29,7,5,1,7,29
30,22,2,0,1,37,3
10,1,1,0,16,26,0
1,0,25,7,2,17,21
1,9,13,18,1,92,52
18,41,1,3,1,6,10
26,6,2,0,13,245,0
3,1,30,0,90,66,2
2,2,30,8,6,18,48
1,6,3,21,1,47,32
29,33,2,2,53,15,2
17,11,0,2,83,78,2
2,1,32,0,6,53,15
2,0,16,5,2,120,55
7,15,1,22,236,14,7
33,25,2,4,9,16,2
12,3,2,1,7,36,1
2,2,26,1,58,71,33
0,1,4,8,11,125,42
15,24,3,17,0,59,4
28,19,0,5,38,40,2
3,1,60,1,76,4,2
0,0,25,0,77,2,45
0,5,2,8,4,246,31
25,32,1,17,65,63,1
18,13,0,3,143,220,0
2,2,15,1,9,7,18
2,0,44,0,1,165,53
6,16,5,9,0,33,8
34,25,2,12,45,12,2
13,4,1,7,70,79,2
1,1,5,2,4,34,31
2,2,16,0,15,10,45
18,30,8,6,23,245,4
25,19,6,25,36,284,0
4,1,4,3,6,11,4
0,1,6,1,2,115,48
0,4,16,0,1,68,33
28,28,5,7,1,28,4
16,16,0,19,72,10,0
1,0,0,6,74,20,12
1,1,25,0,4,26,54
6,19,81,2,20,72,8
36,29,8,6,12,30,1
14,4,2,18,5,75,1
0,1,4,5,15,82,30
1,1,23,1,58,7,46
13,26,8,1,21,6,5
26,18,1,9,15,298,2
5,2,2,18,8,25,2
0,0,2,5,2,117,45
2,7,45,2,81,19,33
25,38,10,0,87,13,1
14,10,2,2,9,133,1
1,0,0,20,12,101,14
2,0,13,6,97,8,55
7,15,32,1,6,96,10
28,25,4,2,39,93,0
12,4,2,3,19,12,2
2,0,0,15,10,10,42
0,0,27,7,15,8,36
16,24,4,1,104,54,1
24,23,0,1,4,134,1
2,1,20,4,1,59,14
1,1,3,18,68,56,54
0,7,9,2,13,18,8
30,32,29,0,19,36,1
16,13,2,2,7,48,2
2,1,1,4,1,2,31
0,0,3,19,36,109,48
6,9,19,1,8,145,4
31,29,12,1,1,11,2
12,8,0,1,56,53,2
1,2,0,6,32,50,43
0,0,36,22,3,25,33
14,10,20,5,0,9,1
23,29,9,3,0,71,0
3,7,2,1,261,10,13
0,2,0,6,29,71,53
0,4,22,18,3,22,8
23,23,39,5,0,62,3
20,21,6,2,68,94,1
1,2,1,1,59,5,23
1,1,1,9,3,30,49
2,6,16,18,26,2,4
29,31,35,7,53,0,1
11,9,2,2,3,165,2
1,2,1,0,53,25,42
1,0,24,6,34,27,40
12,1,28,20,1,20,1
21,34,9,15,1,38,1
3,17,0,3,103,1,10
1,0,1,2,11,134,54
2,1,24,10,1,29,10
26,13,52,11,1,6,2
19,27,5,2,11,69,1
1,6,2,0,49,13,42
2,2,3,3,6,11,37
1,0,25,24,2,93,3
31,25,40,9,67,6,1
14,21,5,1,14,105,8
1,2,2,1,6,32,51
2,1,1,2,1,35,27
15,3,23,16,25,31,0
26,25,23,8,24,12,0
3,33,1,2,2,21,26
1,3,1,2,83,7,51
0,0,14,0,19,2,5
6,7,30,20,1,95,1
25,2,3,11,13,89,1
13,0,0,1,13,6,41
1,33,2,1,26,12,40
2,3,20,4,2,9,2
73,21,25,15,7,23,1
75,41,1,5,19,32,9
7,11,2,2,13,9,51
1,6,5,2,37,22,20
3,39,41,4,7,119,1
8,3,5,16,3,22,1
0,30,0,9,30,12,26
31,139,13,1,22,18,49
6,3,8,1,4,57,6
14,42,17,3,91,4,0
11,83,8,21,34,22,1
29,13,5,11,3,125,34
3,114,3,1,19,30,40
1,5,29,1,4,7,3
29,14,12,9,10,3,0
42,33,1,21,47,96,5
6,2,1,2,5,17,46
21,59,2,1,1,10,24
1,10,8,1,18,67,2
24,19,26,11,2,3,0
80,0,7,8,31,70,19
10,43,3,2,13,33,50
2,70,8,0,18,31,5
234,121,23,0,8,21,1
21,5,3,14,1,2,2
2,1,0,8,15,49,40
27,151,0,3,4,7,42
7,8,3,0,36,2,1
76,8,33,0,7,35,0
5,335,8,14,34,51,8
6,44,2,12,2,4,50
1,3,1,1,19,22,24
6,68,0,0,23,16,0
95,9,30,2,3,4,1
5,0,21,15,6,1,22
1,2,0,11,1,55,51
65,144,2,3,125,7,5
16,11,8,0,17,82,1
2,61,18,8,1,10,0
18,50,15,25,0,153,38
35,2,0,4,9,64,43
2,60,0,0,27,14,2
47,18,32,0,4,4,0
35,65,28,7,8,45,5
3,4,2,20,1,21,53
83,26,0,3,3,36,23
10,19,2,2,34,3,1
3,3,65,0,38,52,1
0,6,15,2,6,5,19
3,3,1,8,5,103,54
103,0,0,6,12,11,7
8,80,1,1,0,4,2
45,35,38,30,40,5,1
5,53,33,6,8,117,39
0,7,3,37,1,8,47
95,1,1,4,16,125,3
120,2,17,0,6,118,2
2,55,23,0,2,8,4
10,69,1,70,23,3,47
6,5,2,112,1,9,27
1,2,2,7,40,32,1
0,126,17,1,9,111,0
132,17,13,0,26,6,18
12,50,0,5,8,1,54
11,3,2,9,24,11,8
2,67,1,3,20,51,1
105,42,17,1,2,30,0
22,3,12,1,7,48,35
1,68,2,1,19,8,48
11,125,1,10,14,23,4
2,19,30,5,2,35,2
4,17,25,5,2,31,3
125,1,3,2,15,3,49
17,6,1,6,11,0,28
2,17,1,0,16,50,1
0,16,8,1,2,66,2
51,54,18,0,2,6,17
35,10,14,0,48,26,51
9,1,1,99,25,9,8
1,52,2,199,12,43,1
16,34,20,7,1,34,0
67,42,3,30,6,1,37
4,15,5,7,62,179,43
0,2,1,0,20,21,4
42,46,2,0,2,3,0
24,46,22,0,0,1,3
122,69,22,20,0,9,46
9,44,0,2,70,3,29
3,154,0,8,57,92,2
1,56,9,3,4,7,1
24,3,25,0,1,13,17
9,1,2,0,6,50,55
1,91,1,191,42,33,7
63,192,0,94,7,33,1
86,4,35,85,2,3,2
32,152,24,5,1,24,33
1,6,1,8,0,30,43
1,160,1,105,18,56,3
2,47,0,23,11,6,1
46,7,33,112,13,0,4
6,66,21,4,2,73,44
0,5,1,77,1,17,33
112,2,1,37,4,1,3
46,137,6,2,33,22,1
3,53,64,46,5,16,14
2,3,16,95,6,31,51
0,36,1,6,11,23,7
3,155,0,1,30,2,2
36,46,26,113,3,28,1
28,1,56,116,7,19,32
1,1,5,8,6,21,46
1,153,2,47,8,15,3
61,100,0,56,31,124,1
22,7,45,223,12,38,1
19,17,35,5,1,2,45
3,17,3,196,16,9,34
30,44,2,57,10,45,3
6,80,7,39,1,14,2
5,8,24,117,20,18,15
5,4,13,23,2,3,58
4,1,0,3,39,3,8
12,7,2,54,21,11,2
18,0,5,29,3,73,1
4,0,23,184,4,4,31
2,440,22,10,25,34,46
0,37,1,54,18,31,3
30,32,1,49,4,6,0
53,1,15,18,1,68,1
6,2,18,0,0,7,46
2,9,2,235,10,27,32
2,52,0,88,0,5,1
30,75,3,4,0,51,0
70,4,31,58,16,23,13
4,2,7,44,9,3,50
1,0,1,102,21,20,8
51,137,1,5,3,63,2
50,97,9,180,1,53,0
3,5,29,12,35,3,32
1,4,14,140,29,1,44
0,39,1,5,14,19,6
130,24,1,85,3,19,2
12,1,12,52,1,62,2
6,44,32,4,17,4,41
1,2,3,327,30,31,32
26,148,2,16,5,6,2
31,10,0,41,1,46,1
18,2,32,113,6,1,13
1,34,12,31,15,2,55
1,14,1,174,16,20,10
34,52,0,13,2,10,2
36,185,1,3,0,6,3
4,51,34,138,8,41,41
1,2,41,27,12,1,38
0,1,3,10,22,34,2
19,1,0,96,2,19,2
14,8,10,21,0,22,15
6,4,20,88,0,3,53
0,61,15,21,16,4,8
57,18,1,13,14,44,1
8,1,13,141,13,9,0
0,73,23,37,1,12,27
38,45,23,49,9,20,48
2,29,5,1,12,7,6
12,1,1,263,3,57,1
7,59,37,125,11,4,1
0,3,13,3,22,23,37
39,86,2,41,19,23,38
9,45,0,30,3,31,3
15,14,23,138,1,9,0
43,3,37,44,1,9,11
4,81,10,2,11,4,52
15,9,2,1,10,51,10
5,68,31,17,18,8,2
103,52,83,13,2,7,0
3,22,15,99,1,24,41
8,15,10,6,9,14,42
19,18,43,85,25,14,2
21,0,38,148,1,18,2
2,49,107,4,2,1,9
6,81,4,193,9,0,52
0,4,1,51,18,106,22
7,32,55,6,8,13,2
2,180,60,148,2,3,1
8,9,2,4,2,7,26
18,3,46,20,2,11,48
7,60,3,7,1,16,5
13,6,2,78,42,46,0
18,4,51,13,27,5,1
9,3,10,13,3,45,44
0,2,42,74,0,32,40
1,7,142,32,23,4,3
31,14,21,16,20,0,1
9,13,89,3,2,25,10
12,62,161,334,2,28,53
2,3,33,100,31,7,10
3,163,180,4,18,2,1
29,18,7,40,4,26,2
49,1,178,160,1,20,39
3,0,29,4,0,12,42
1,211,26,70,5,27,3
61,51,9,9,24,9,1
44,21,133,62,6,60,8
5,2,30,28,2,37,48
0,24,3,78,34,5,25
1,11,23,5,37,3,1
28,2,105,80,18,1,1
4,72,34,45,2,1,24
6,20,127,4,1,128,50
3,48,8,0,2,8,6
0,6,2,29,7,2,2
14,2,23,21,40,0,1
14,0,174,189,4,9,36
2,51,15,42,1,105,43
1,7,6,4,9,5,3
25,26,149,15,12,0,1
37,20,34,135,2,91,6
4,68,124,44,9,33,51
2,5,301,73,2,5,26
0,39,113,12,46,0,2
1,46,4,85,9,4,0
94,4,92,4,1,17,23
43,34,108,2,1,35,49
3,14,173,80,1,8,6
1,40,4,64,50,2,1
21,1,233,20,15,24,1
42,47,22,4,2,3,39
11,47,26,53,0,26,44
2,2,154,75,1,12,3
0,1,13,13,15,1,0
38,47,116,4,14,46,6
4,61,37,167,4,14,46
2,12,63,61,3,12,27
10,1,7,4,1,6,2
14,1,0,53,9,6,1
21,83,7,23,2,34,20
2,11,32,36,30,14,52
1,3,31,3,2,19,6
27,58,111,105,0,3,1
2,13,4,9,22,2,1
43,49,15,14,9,5,35
20,5,88,79,1,58,43
2,4,13,11,1,9,4
12,2,104,27,27,1,0
14,56,7,200,3,18,5
1,94,115,7,20,20,47
19,5,6,2,2,21,29
22,39,103,4,0,1,2
18,11,54,58,14,10,0
2,49,122,13,2,35,17
0,7,4,0,2,2,54
25,2,24,48,6,2,8
47,1,7,169,5,1,1
27,81,118,32,10,2,0
2,110,102,11,19,16,33
1,6,38,2,2,18,41
0,17,34,69,2,3,2
81,0,91,6,0,7,1
25,107,88,189,27,1,5
1,7,8,12,8,6,47
1,0,45,56,1,31,32
5,1,18,16,0,57,2
9,96,54,36,2,4,1
18,16,18,66,17,23,17
5,1,43,49,10,26,56
0,15,34,3,0,33,9
9,3,89,132,29,7,2
21,117,24,5,15,8,2
7,22,2,22,7,42,31
0,2,119,13,17,7,41
13,25,15,83,1,11,2
16,52,77,91,0,88,0
23,27,5,64,29,29,5
32,2,16,100,8,3,46
5,29,142,24,1,1,30
3,221,28,22,0,14,1
9,12,77,6,2,13,1
6,0,45,8,44,16,14
1,6,82,41,8,20,56
1,36,6,23,1,3,7
0,70,20,15,0,5,1
47,7,92,63,0,68,2
30,0,41,9,76,5,32
1,3,20,13,17,2,45
1,21,44,2,2,19,4
71,41,23,3,1,20,1
29,28,18,45,3,57,3
2,1,29,37,15,5,45
1,0,40,23,16,7,33
2,60,71,50,1,18,2
27,24,53,40,1,16,0
12,3,31,34,1,2,13
12,5,2,5,47,21,54
1,191,3,7,10,22,9
0,21,27,83,0,5,3
72,3,112,7,1,60,1
4,1,28,85,11,2,29
1,67,7,10,10,7,47
0,26,6,6,0,3,6
80,3,82,10,0,41,2
30,0,41,87,8,40,3
4,2,9,7,61,7,45
2,18,11,121,11,44,36
22,43,99,29,0,3,1
12,41,8,3,1,74,0
39,6,2,6,11,21,14
3,3,60,37,19,2,55
0,13,9,32,2,26,8
8,62,7,72,0,13,1
43,4,7,10,0,19,1
21,1,21,5,26,2,29
1,6,7,8,18,5,49
0,42,79,45,2,84,4
9,4,7,19,0,39,1
42,7,0,10,5,2,2
11,6,41,2,29,1,47
0,37,5,99,42,0,35
18,27,23,23,5,69,2
13,8,10,2,0,16,0
26,1,2,74,0,2,11
2,21,4,46,24,64,51
7,49,72,21,20,71,10
8,6,40,110,3,4,0
5,14,2,128,2,2,0
2,2,15,39,11,0,42
0,10,4,50,8,1,41
7,167,12,14,3,11,2
42,11,47,104,47,34,1
17,0,22,9,4,47,15
2,29,70,35,21,3,50
2,42,87,96,6,26,10
1,35,12,52,8,41,2
21,2,1,5,6,18,0
19,104,0,43,1,13,41
1,22,74,4,50,0,35
1,2,20,1,21,35,2
5,1,6,16,3,7,0
47,7,1,46,1,12,12
4,17,8,2,2,3,56
2,62,57,160,18,37,8
1,3,28,172,52,62,2
6,9,4,8,4,43,0
10,1,4,50,0,16,28
67,36,13,4,17,41,46
3,16,60,31,20,58,5
2,2,10,9,0,6,1
2,50,1,228,2,6,2
14,7,0,11,0,5,43
3,78,65,25,29,36,38
12,10,48,21,9,6,3
2,4,7,12,2,1,0
2,11,0,5,4,32,18
27,50,140,0,12,29,54
39,1,9,2,19,22,10
2,0,4,42,1,8,1
1,125,1,14,3,37,1
20,26,2,4,2,4,43
9,2,34,33,12,31,38
2,1,13,41,17,31,2
5,89,4,20,1,39,1
7,69,1,2,5,2,10
23,3,25,20,1,23,53
12,2,26,48,3,61,10
2,46,10,34,32,21,2
6,9,1,2,14,3,0
16,86,3,1,1,62,40
24,13,28,14,11,19,42
3,2,22,28,32,10,2
9,3,8,10,12,3,1
0,17,1,1,3,10,8
1,38,1,56,0,57,47
4,20,42,125,5,52,26
100,3,16,62,14,3,2
3,1,3,8,4,5,1
0,6,13,1,2,29,23
7,47,41,110,1,12,52
6,34,9,25,18,2,7
28,34,36,16,28,26,2
1,49,11,3,2,46,0
6,28,4,19,1,33,41
46,4,84,54,0,5,44
30,1,12,27,12,1,4
10,4,0,3,34,0,1
2,81,8,39,3,7,10
4,18,18,109,1,83,55
32,36,16,77,4,11,10
10,10,13,11,44,3,1
1,38,10,2,11,2,0
2,14,1,104,0,18,38
26,1,46,26,3,15,38
28,0,11,86,16,8,3
1,11,6,22,4,1,0
1,45,2,5,1,82,8
5,29,42,1,0,13,47
9,9,4,47,14,28,25
3,2,16,19,19,3,0
20,124,2,8,24,2,2
2,41,2,62,3,50,23
17,3,33,32,1,59,52
14,2,58,43,2,3,5
3,26,6,2,57,1,1
0,3,3,27,10,10,1
1,63,15,59,3,73,39
49,5,23,2,1,10,40
7,4,64,123,18,4,2
9,19,4,75,5,0,0
1,9,13,31,2,24,6
1,1,15,14,2,48,49
20,1,7,122,7,4,29
7,2,22,44,25,0,1
14,98,3,1,14,13,0
1,60,5,75,9,24,20
2,3,9,31,1,2,55
39,3,39,18,0,10,5
5,37,2,9,29,2,1
15,24,2,9,13,17,1
1,28,30,33,0,9,39
0,1,19,29,4,3,41
0,46,5,13,16,1,2
18,60,1,3,19,38,1
2,9,28,27,3,52,4
1,33,13,5,0,10,48
27,2,6,48,0,1,27
11,64,0,20,24,41,1
41,12,1,8,19,44,2
3,37,8,2,2,8,20
2,3,32,1,1,48,49
22,53,11,14,0,3,6
5,22,2,31,28,12,1
1,1,9,3,11,9,0
2,0,35,37,1,9,38
4,52,19,37,1,1,40
26,53,7,3,1,1,4
18,3,0,18,30,8,0
1,1,2,41,6,18,6
0,4,19,53,2,28,45
23,17,8,13,27,9,28
13,1,47,142,25,1,1
13,42,3,17,26,75,0
1,127,9,30,3,19,17
18,8,24,3,2,17,54
84,77,28,39,7,2,8
10,29,7,26,7,14,1
2,5,1,2,12,13,0
15,2,34,65,13,4,37
11,4,32,9,3,2,45
32,100,5,29,1,6,2
3,8,8,30,30,4,1
1,2,2,20,6,20,5
15,1,20,3,8,53,51
58,23,5,1,1,4,34
3,14,17,30,11,3,1
5,10,8,86,10,12,1
1,2,2,27,19,4,16
14,2,19,39,0,67,56
19,5,14,22,0,8,7
2,12,34,15,29,5,1
1,41,3,39,18,25,1
3,3,14,2,2,4,35
17,0,27,146,25,1,46
21,2,3,30,13,1,3
2,9,1,1,12,0,0
1,72,24,38,0,42,4
5,19,12,9,0,6,49
30,53,2,23,0,17,30
2,16,0,40,25,5,1
1,25,14,14,15,52,2
25,3,5,17,2,11,17
39,4,20,110,2,2,57
14,66,3,6,3,0,7
2,4,0,2,33,2,1
0,33,3,5,8,15,0
3,9,43,1,2,21,34
45,23,9,131,1,2,47
30,5,21,18,0,12,5
4,6,2,0,27,2,1
2,1,5,43,7,24,3
2,45,20,70,2,27,44
58,22,12,5,1,2,33
12,20,1,14,2,0,2
1,0,7,7,18,28,0
0,0,50,63,15,93,13
7,46,11,13,0,6,54
11,36,18,12,1,1,9
49,3,6,11,10,17,1
3,15,4,10,7,49,1
22,14,6,13,3,17,31
38,78,9,28,2,0,48
15,21,10,13,1,3,5
0,1,1,5,2,3,0
1,1,17,40,10,6,1
2,16,48,21,2,65,46
85,41,6,16,3,7,35
20,8,0,9,1,1,1
1,8,10,9,13,10,0
2,8,16,26,19,1,14
25,27,30,15,2,11,55
10,3,2,8,1,0,8
1,1,1,9,8,11,2
5,16,15,19,39,14,0
51,112,27,2,6,2,31
15,5,2,1,0,19,49
1,4,1,0,0,2,4
0,2,0,112,4,63,1
0,8,46,7,19,10,2
23,4,25,63,1,0,43
21,12,2,7,27,0,36
5,49,0,28,2,17,2
0,3,15,18,8,17,0
3,0,27,22,26,2,11
88,50,4,25,7,1,58
12,9,1,2,2,10,8
1,3,2,1,0,51,1
1,53,18,108,0,10,0
8,33,20,68,53,2,28
32,15,17,4,17,0,47
18,9,1,138,2,12,4
2,0,12,15,2,149,1
1,5,9,3,32,4,0
64,17,22,0,23,1,47
9,29,2,1,3,16,36
12,3,1,18,2,1,2
1,0,16,47,0,11,0
0,3,21,4,33,0,11
43,6,4,1,8,46,52
20,132,2,79,5,12,8
3,17,1,26,1,9,1
0,58,13,2,1,3,0
1,23,13,7,23,11,24
38,3,0,15,11,1,50
14,2,1,40,1,1,4
2,5,2,5,0,0,1
3,29,27,39,1,9,0
3,6,20,27,28,23,46
16,20,1,2,37,2,40
3,4,1,57,3,11,2
0,41,8,11,1,4,1
1,4,35,3,2,1,10
9,56,5,11,15,12,54
15,2,0,82,17,69,8
2,7,1,22,4,15,1
2,161,19,1,0,4,0
6,36,26,1,14,2,27
8,2,4,146,10,1,49
7,0,2,16,2,4,5
5,15,5,1,0,22,1
7,35,32,25,24,18,2
3,14,32,66,9,0,40
1,2,3,87,22,3,37
18,18,0,4,3,50,2
43,5,1,18,1,12,2
3,2,47,112,4,0,8
0,142,20,5,32,0,50
10,28,3,2,5,8,24
11,3,1,38,1,63,2
10,74,11,14,1,8,0
0,8,13,17,7,1,21
11,3,8,3,32,1,48
15,0,2,1,5,1,5
5,3,0,85,2,54,0
1,52,41,10,1,44,1
1,38,6,54,8,13,38
21,2,7,5,15,1,45
66,44,1,2,25,13,3
5,42,1,3,2,2,2
3,50,36,90,2,12,9
0,26,38,26,12,0,52
38,3,2,2,38,0,25
43,14,2,2,8,48,3
6,4,6,55,2,11,0
1,17,24,24,2,0,26
2,1,18,4,22,10,54
49,76,1,0,2,16,6
11,25,1,41,30,32,2
2,3,22,22,2,3,0
1,1,27,21,5,0,36
35,64,3,8,78,3,39
10,5,4,4,11,57,1
12,94,1,1,0,36,2
1,12,22,38,1,3,5
1,1,37,2,3,1,49
34,1,2,0,28,12,26
11,100,2,71,5,7,1
1,6,14,14,2,1,2
1,15,18,72,0,0,18
88,2,12,17,12,1,50
36,117,0,2,8,2,4
2,10,1,6,4,45,2
0,0,14,9,0,47,1
0,29,28,33,1,4,40
17,24,4,7,64,2,39
48,2,1,4,24,12,3
4,1,6,42,41,6,0
0,7,38,60,4,1,7
22,6,7,3,0,0,50
51,3,2,4,42,4,26
7,12,1,15,6,27,1
2,237,10,0,2,17,0
2,6,46,43,21,4,22
7,12,4,29,4,2,52
7,8,4,38,66,12,5
47,3,1,10,25,5,0
4,1,14,0,9,2,0
2,7,33,2,20,5,38
49,9,8,40,10,4,43
6,21,3,4,31,9,4
5,8,0,38,2,35,2
1,41,15,81,2,6,6
1,11,14,15,51,3,48
20,63,4,3,43,0,24
66,40,1,15,3,3,2
7,3,2,2,1,24,1
0,11,42,3,20,13,20
14,30,8,0,43,0,52
31,50,3,8,6,0,6
9,7,0,9,1,0,0
2,28,1,10,1,12,2
0,8,43,83,11,45,33
27,34,11,6,78,2,45
31,20,1,23,15,10,3
6,3,3,3,0,42,1
2,20,15,43,34,6,3
1,3,8,6,55,0,48
75,25,7,2,25,0,33
26,36,1,1,6,4,1
3,11,1,73,0,20,0
11,34,11,124,24,7,19
1,17,11,7,51,0,52
33,2,1,1,7,1,5
15,1,0,16,1,5,1
7,17,0,30,1,25,2
0,16,25,3,39,8,39
7,5,17,24,28,1,42
24,1,5,8,3,1,2
12,38,4,129,2,5,0
0,9,2,6,0,24,3
0,102,32,1,14,8,49
67,4,10,4,23,2,30
10,1,1,23,2,1,1
1,17,0,12,5,5,1
10,74,13,17,19,21,16
30,6,24,6,48,12,54
10,2,6,14,4,1,8
1,0,0,4,13,1,2
11,32,0,26,0,9,1
5,34,23,1,34,20,33
8,15,31,59,31,5,46
10,2,4,16,2,1,3
8,26,1,31,16,1,0
1,53,1,4,4,8,3
5,18,26,10,20,23,47
50,1,23,31,13,5,36
23,2,2,9,1,0,3
2,19,5,2,22,0,1
3,40,3,37,4,11,19
77,3,6,31,47,12,54
31,1,18,27,4,1,8
3,6,1,11,1,0,2
0,47,1,1,33,1,0
0,54,14,6,56,6,33
60,3,17,13,7,16,45
30,1,7,46,2,12,4
3,139,2,2,1,2,1
0,35,1,6,42,2,2
1,5,8,5,8,19,46
29,1,38,22,2,17,31
17,9,13,6,58,2,1
6,8,2,5,7,0,1
1,52,18,14,54,4,28
25,10,25,53,29,12,54
47,0,12,19,3,3,8
5,10,0,5,3,2,2
0,23,1,2,14,2,0
1,49,34,6,26,5,29
50,3,16,1,2,18,43
15,1,2,41,1,3,4
2,32,0,12,1,0,2
4,29,6,10,29,1,2
2,26,26,15,16,18,43
57,2,24,9,3,35,35
11,15,4,6,1,2,2
0,14,3,2,11,0,0
0,3,7,15,20,0,14
10,1,27,4,3,16,54
38,25,6,25,0,19,8
5,43,1,9,1,2,1
1,2,1,1,32,0,1
1,13,10,0,12,1,28
8,1,36,27,1,26,50
0,6,3,12,1,9,5
29,56,0,8,0,2,1
8,32,2,31,22,2,1
1,2,13,10,16,1,47
2,7,32,23,2,28,34
29,51,13,5,0,6,1
10,20,1,1,6,0,0
1,3,6,38,33,2,10
29,2,25,38,8,1,55
20,2,25,3,2,21,9
4,47,3,26,2,8,1
2,57,1,1,17,3,0
8,4,21,2,14,1,27
13,1,16,1,3,2,50
29,2,2,45,2,20,5
3,41,2,13,4,8,1
1,5,2,1,12,2,2
5,0,36,8,5,0,41
17,0,21,7,2,1,36
10,27,2,2,0,22,3
2,20,1,3,1,12,2
2,5,28,0,24,0,17
35,2,27,30,13,1,55
34,1,5,12,4,5,10
42,123,1,2,0,20,0
2,18,0,1,3,4,1
5,1,27,5,34,2,43
20,1,20,33,14,1,41
13,34,2,6,1,6,3
1,46,1,3,1,28,0
1,8,12,0,2,4,13
13,2,23,15,33,0,54
56,4,5,7,10,1,8
65,46,2,5,1,7,1
4,22,0,1,0,28,1
1,2,5,1,16,3,30
4,1,28,22,17,2,47
18,7,13,25,2,0,5
16,35,1,3,1,9,0
2,10,0,1,3,25,0
33,0,12,0,24,4,37
18,0,27,26,17,1,42
7,29,3,7,2,1,2
1,27,12,13,0,9,2
5,4,6,1,6,20,9
17,0,28,10,21,8,53
13,4,19,7,6,0,22
7,29,3,3,0,1,2
1,14,0,2,1,12,0
1,2,16,3,15,17,25
3,0,27,3,17,6,52
12,28,5,9,6,0,7
84,25,3,15,0,1,2
11,46,4,2,2,18,1
55,4,24,0,19,4,42
35,0,17,1,18,0,41
5,21,3,15,2,1,3
2,18,0,18,1,2,0
1,7,6,2,2,24,8
23,1,29,1,32,20,51
31,6,6,3,14,1,26
11,60,2,17,3,1,2
2,37,0,5,2,27,1
3,2,41,2,7,20,24
27,0,20,0,15,13,49
3,27,3,3,6,0,5
1,20,1,24,7,0,0
73,5,1,8,1,21,0
27,2,9,1,1,35,39
24,7,28,2,23,3,38
2,61,10,1,9,0,3
1,22,2,8,1,1,0
1,3,2,25,0,10,11
19,1,22,3,3,4,54
26,2,14,2,26,3,12
3,110,3,5,18,6,2
1,5,2,15,1,5,0
19,2,3,10,1,24,38
74,25,32,0,16,5,39
11,71,7,1,21,2,3
1,8,2,9,3,1,1
1,29,0,14,2,16,6
55,1,5,2,1,60,51
44,1,25,0,20,5,27
2,31,7,0,17,1,1
3,104,2,10,2,1,0
48,8,1,10,1,11,23
7,4,4,4,3,31,48
2,51,27,2,37,3,6
144,41,10,5,10,0,1
6,2,1,7,0,12,0
4,0,1,24,1,27,39
4,30,12,2,5,23,39
26,9,23,1,27,11,3
3,7,1,0,7,3,2
1,11,0,25,0,5,6
21,2,1,5,0,13,48
11,1,36,3,19,2,27
7,61,14,3,9,8,2
1,8,0,1,12,3,1
37,78,2,15,1,42,19
66,13,2,7,1,52,50
7,10,39,1,19,4,5
0,6,12,1,14,1,0
1,1,0,1,2,107,0
29,2,0,11,2,17,37
8,13,6,14,2,2,41
4,59,36,2,20,3,3
1,13,7,1,14,1,2
5,1,1,4,3,1,9
67,7,1,12,1,0,51
24,45,14,7,11,35,28
3,7,22,1,17,67,0
1,2,2,0,2,157,2
1,1,0,2,2,13,19
1,8,1,16,4,1,55
33,6,23,2,22,1,8
51,28,14,0,29,0,2
5,11,1,0,3,36,0
3,1,0,1,1,73,36
60,1,3,14,8,6,50
6,38,13,6,29,3,5
2,7,14,2,8,0,1
2,3,7,1,1,15,6
5,1,2,1,1,4,45
48,5,9,19,5,1,28
7,32,25,23,25,1,0
2,14,4,1,14,1,2
6,1,1,0,2,25,21
6,0,0,5,1,7,54
41,16,55,13,14,2,5
7,18,59,2,18,6,1
1,5,7,1,4,2,0
0,1,1,1,2,19,32
12,0,1,7,0,5,48
21,21,14,16,18,1,4
3,21,22,7,19,0,2
0,3,10,1,3,0,5
0,2,2,1,2,28,50
34,9,0,5,5,20,29
13,33,13,19,26,1,3
2,11,24,7,10,1,1
0,1,2,1,1,4,18
2,1,0,1,0,38,54
34,21,21,4,13,26,6
10,27,17,17,23,3,1
1,2,4,3,1,1,1
0,1,3,1,1,0,31
19,6,5,2,2,12,45
20,21,24,16,2,12,4
10,21,6,21,21,1,1
0,4,2,2,4,1,3
2,0,0,1,0,27,48
23,8,1,0,0,26,33
18,30,13,21,25,1,3
1,11,57,10,20,6,0
1,2,24,1,2,13,12
9,2,1,2,1,34,58
32,17,0,1,2,4,7
11,25,2,26,25,1,0
1,2,5,7,7,0,1
0,1,39,0,0,49,29
22,1,3,0,1,42,48
16,19,1,2,3,4,5
1,18,18,19,28,2,0
2,3,112,7,8,2,2
0,0,3,3,2,2,47
23,5,6,0,0,14,36
19,28,25,1,5,5,2
1,17,8,21,21,1,1
2,0,2,6,14,1,12
3,1,2,1,0,2,56
24,11,1,2,1,37,8
15,31,30,7,11,38,2
1,5,28,16,20,1,0
0,2,3,3,3,1,32
14,2,5,2,0,16,48
27,19,12,2,1,10,4
2,22,10,2,19,1,2
0,2,11,16,15,1,3
2,1,0,5,1,52,45
25,1,0,0,1,15,39
15,36,1,0,3,3,2
1,9,28,0,21,3,1
1,2,24,17,9,1,15
8,1,3,14,1,6,53
31,7,9,2,0,4,9
9,25,17,0,2,2,1
1,14,17,10,22,0,1
2,1,2,14,9,2,30
7,1,0,3,1,3,47
31,9,13,2,0,2,4
8,30,41,0,2,0,1
2,8,4,16,35,15,1
2,1,1,7,10,2,42
17,0,10,4,2,22,37
33,15,6,2,0,6,3
2,25,2,0,9,2,2
1,2,1,18,30,1,11
0,1,9,11,4,2,56
14,1,2,1,1,29,9
29,31,13,0,1,23,1
3,18,6,1,12,1,0
1,2,0,19,20,0,36
1,1,1,16,5,1,48
24,4,2,3,2,35,4
12,43,7,2,1,7,1
2,10,26,2,17,1,1
1,1,11,15,18,1,44
3,2,1,6,2,2,40
31,17,12,2,0,9,2
10,26,3,1,2,2,2
1,4,2,8,29,29,11
1,1,7,25,11,6,52
25,0,0,3,1,1,9
20,23,24,0,1,42,3
2,25,22,2,8,29,1
0,1,2,13,26,3,28
3,0,1,7,7,1,47
27,8,28,4,1,14,5
19,39,21,3,0,20,1
3,12,3,1,11,11,0
0,3,1,2,28,1,45
11,0,1,18,3,2,41
28,12,25,5,1,21,3
4,20,21,2,0,16,2
1,3,2,1,20,2,11
2,2,1,0,12,1,52
15,1,1,19,1,5,9
23,20,13,15,0,31,2
2,17,8,2,0,5,1
3,2,1,1,25,1,24
1,2,1,19,12,0,54
15,0,1,16,0,0,5
25,27,15,3,2,16,2
3,12,13,1,8,31,1
1,1,1,0,30,3,44
5,0,0,20,6,2,36
37,5,10,7,1,1,3
17,27,21,3,0,17,0
1,11,3,1,7,32,10
2,1,0,3,28,2,54
16,1,0,18,8,1,11
20,21,35,9,2,8,0
4,27,35,0,1,36,0
1,0,2,0,7,29,41
2,0,1,1,24,3,39
32,3,0,21,7,0,3
18,32,20,7,3,5,0
2,9,47,1,0,12,10
0,2,5,1,9,3,54
3,0,0,3,25,1,8
33,6,1,24,6,0,2
10,35,17,4,1,17,2
0,13,18,1,1,14,22
1,2,2,1,11,1,53
16,0,0,1,19,0,5
21,18,4,14,3,1,0
5,25,33,11,0,33,1
1,3,10,3,0,11,38
0,0,2,0,20,0,41
25,0,0,3,21,0,3
20,30,12,18,2,10,2
0,16,16,5,1,5,6
0,1,8,1,2,21,47
7,0,2,0,25,2,25
30,1,8,1,14,2,2
14,37,51,21,2,15,1
1,16,7,6,1,2,25
1,0,2,2,3,1,50
10,1,3,1,20,2,5
27,10,8,5,11,1,0
4,26,29,17,2,36,1
1,5,18,6,0,15,38
2,1,0,1,14,0,43
20,0,1,0,18,2,2
25,26,5,8,1,0,0
1,15,15,29,2,24,6
1,3,24,3,0,10,51
5,0,0,2,22,0,28
29,4,1,1,21,1,2
13,28,9,11,2,36,2
0,20,33,11,1,45,19
0,1,12,9,7,4,50
16,2,1,1,30,2,5
25,10,2,0,5,34,0
3,28,27,21,1,14,0
0,4,4,6,0,5,39
0,1,6,3,6,2,39
20,1,1,0,23,1,4
20,24,1,2,6,7,2
1,21,27,11,2,28,7
1,2,46,9,1,10,51
2,1,3,3,10,1,26
27,0,2,1,17,1,2
14,29,2,1,5,16,1
2,18,17,7,1,9,19
1,1,7,17,1,2,56
12,1,1,1,15,0,7
32,12,0,0,16,0,1
2,28,1,1,3,19,0
1,5,41,8,1,5,36
2,1,44,17,1,1,43
29,1,4,3,17,2,4
21,21,1,1,12,37,1
2,25,13,3,0,21,5
0,4,17,18,0,8,46
6,0,2,6,7,1,29
29,6,1,1,28,1,2
14,12,1,1,11,2,2
3,26,2,2,2,19,18
0,1,7,18,0,12,52
17,1,17,11,13,5,8
24,10,8,2,21,1,1
2,38,9,2,2,1,0
1,5,19,0,0,18,32
2,1,4,9,1,6,41
20,1,1,21,20,2,3
25,23,0,2,9,0,1
3,25,1,1,2,3,6
2,3,17,1,1,17,50
5,1,10,20,2,12,24
32,2,1,4,23,2,1
14,29,1,2,12,1,0
1,15,23,0,1,61,21
0,1,22,1,1,45,53
8,1,7,19,3,9,6
23,13,0,7,24,1,1
7,22,1,0,10,1,1
0,4,15,0,1,20,34
2,0,22,1,1,43,43
11,0,1,16,13,2,3
23,12,1,13,22,1,2
4,25,2,3,1,3,3
1,5,37,0,1,25,49
3,0,27,2,2,7,34
23,1,2,20,22,2,2
22,36,0,12,18,0,1
3,11,2,0,2,11,19
0,1,9,1,2,16,56
3,0,7,9,4,3,8
30,15,4,17,21,1,1
12,24,0,8,7,1,1
0,8,1,0,3,18,31
1,0,30,2,0,34,47
13,1,13,5,6,3,5
30,23,1,12,27,2,2
2,29,1,6,7,2,2
1,2,17,1,0,23,49
2,0,39,1,1,9,33
31,1,4,7,6,1,1
13,26,1,21,21,1,0
2,23,0,3,17,1,15
0,0,8,1,3,34,54
4,0,17,0,1,8,7
34,8,6,16,10,2,2
14,31,2,18,21,0,1
1,14,0,2,3,6,30
0,0,0,1,2,25,45
13,0,13,1,1,6,3
27,16,35,18,20,1,1
3,21,3,6,13,1,0
1,1,3,2,1,8,48
0,0,15,1,2,35,30
19,2,9,0,1,8,2
16,28,2,18,33,3,1
2,16,0,7,11,0,14
0,1,0,1,1,18,53
2,0,37,0,0,55,7
29,9,21,1,19,5,2
14,30,2,24,19,1,0
0,10,0,8,1,1,31
0,0,9,2,0,8,54
6,1,34,0,1,31,4
27,22,6,0,22,3,3
6,25,1,18,12,1,1
1,3,5,13,3,0,41
0,1,5,3,1,3,35
12,0,22,1,4,17,2
24,36,4,1,26,15,1
3,15,2,22,6,1,14
1,1,3,5,2,2,53
1,1,22,1,0,7,8
19,7,21,2,5,18,0
23,31,0,5,28,4,1
3,9,1,16,11,1,30
1,2,4,14,2,1,49
2,1,2,2,1,19,5
28,10,5,2,13,51,1
20,32,9,6,22,26,0
2,9,2,29,3,2,44
1,1,0,3,1,2,39
13,1,1,1,0,16,2
31,17,14,1,16,4,0
4,20,13,15,22,1,13
0,4,0,8,1,2,52
0,1,0,3,1,8,11
20,0,14,0,10,21,1
20,29,7,0,25,3,1
4,17,2,9,4,1,41
0,2,1,15,0,1,34
2,0,0,2,1,18,2
31,11,12,1,14,15,0
15,28,28,1,23,4,13
1,4,1,5,5,1,54
1,1,1,15,1,0,9
13,1,1,9,0,9,2
38,23,18,1,18,38,1
5,23,9,0,12,7,23
1,3,18,13,2,3,49
2,1,3,13,1,1,4
22,1,2,1,4,18,0
17,27,9,1,24,48,1
3,16,17,0,6,8,44
1,1,2,22,2,2,42
6,1,1,13,3,0,4
29,13,8,3,1,1,0
13,22,6,1,23,5,13
2,6,0,4,10,7,51
1,2,1,20,2,3,7
14,0,15,6,0,3,0
24,18,2,3,14,9,0
3,24,20,0,18,22,25
1,3,14,6,2,5,49
1,2,2,16,1,1,4
22,2,1,7,2,0,2
20,25,0,1,19,21,2
3,21,28,0,13,17,39
2,2,8,3,1,3,37
4,0,2,17,1,0,2
22,4,2,13,6,5,1
13,30,14,0,26,30,9
2,9,32,1,8,12,53
0,1,1,9,2,1,22
9,0,1,13,0,0,2
31,9,5,4,5,4,2
8,31,43,1,25,15,23
1,9,16,1,14,6,52
0,2,3,15,1,1,5
12,2,1,10,1,0,0
22,5,4,5,10,15,1
4,35,23,0,17,16,38
1,9,10,0,3,2,43
0,2,1,12,1,1,3
21,2,0,11,1,2,0
23,7,9,2,20,10,7
1,30,31,0,15,3,56
1,13,5,5,3,0,22
4,1,0,14,0,0,1
28,0,6,4,2,19,0
13,15,46,0,22,15,20
0,26,13,0,12,5,49
1,2,2,5,1,1,5
11,0,1,16,1,0,2
28,0,0,17,10,7,0
6,25,25,2,20,38,36
2,25,18,1,2,9,41
2,1,3,3,1,2,2
20,1,1,19,1,1,0
21,8,4,2,21,4,6
2,29,21,0,14,1,51
0,10,7,0,2,23,23
1,2,1,1,1,35,1
35,0,0,17,5,3,1
18,13,32,15,27,1,25
2,25,16,2,8,36,51
0,2,3,1,1,37,6
9,1,3,22,0,2,1
26,1,1,9,4,2,1
10,29,17,5,24,1,39
0,27,5,0,4,1,46
0,3,2,1,1,40,3
25,1,1,13,1,13,2
28,6,1,11,4,2,6
3,29,24,2,23,19,49
0,13,18,0,9,13,23
1,1,3,0,1,1,1
28,0,2,23,1,0,0
14,15,1,9,5,0,20
2,28,16,1,23,53,52
0,2,43,2,6,11,7
6,1,5,5,3,2,2
33,1,2,17,0,0,0
7,36,3,5,3,3,33
1,17,22,1,26,17,44
0,2,3,0,14,3,4
10,0,1,1,1,0,1
32,4,1,20,0,1,7
3,27,1,6,11,5,48
1,11,16,1,21,32,23
0,1,18,1,4,4,0
18,0,2,1,0,0,1
15,15,0,17,1,9,17
3,26,11,5,18,13,51
1,3,15,1,21,14,7
1,0,5,0,2,3,2
28,2,1,4,1,0,1
15,18,3,20,3,10,31
3,20,9,7,22,2,49
0,2,23,1,14,22,5
9,1,3,1,1,9,1
30,7,2,6,0,1,4
10,28,25,16,12,2,44
1,13,43,9,22,8,29
2,1,6,2,2,22,3
19,1,0,0,0,3,1
30,24,1,0,1,0,19
3,26,2,15,18,7,49
1,5,35,10,14,18,8
1,1,3,0,2,2,0
28,1,1,0,0,0,1
20,24,6,7,8,0,31
2,15,4,13,26,0,43
1,2,40,3,9,13,3
8,1,3,0,2,19,1
33,9,0,1,0,2,5
9,29,1,7,4,0,47
2,10,7,24,24,26,31
0,2,55,6,16,30,2
13,0,24,1,1,7,1
26,15,3,0,0,2,15
4,25,1,11,7,1,54
3,5,13,11,28,29,7
1,1,18,3,4,24,1
15,1,3,1,1,1,1
23,24,1,1,1,1,32
3,23,1,16,11,1,45
1,3,20,24,22,24,4
2,2,18,3,4,4,0
22,3,6,0,1,1,2
23,34,0,2,0,1,43
0,18,3,22,19,18,35
2,2,41,8,17,27,3
6,0,7,2,3,5,0
27,14,1,1,0,1,10
12,34,1,3,5,0,54
0,3,4,20,27,16,9
1,0,30,8,8,22,1
18,0,4,2,2,5,0
19,23,0,0,2,2,31
1,24,1,2,1,0,46
0,3,3,24,22,3,5
2,2,31,6,16,45,0
30,4,33,2,2,21,2
17,24,3,0,0,2,46
2,17,1,2,12,1,35
1,1,9,18,25,19,1
6,1,16,15,5,12,0
31,14,16,3,0,1,13
11,25,1,0,0,1,53
0,3,0,11,12,7,8
1,2,21,11,17,4,2
17,0,11,1,0,16,1
20,23,3,1,1,4,31
3,22,1,2,2,1,41
0,4,2,10,23,9,3
2,0,28,14,10,25,1
35,2,12,3,1,3,2
6,37,2,1,1,2,46
2,15,0,1,12,2,34
0,1,9,19,23,19,3
2,1,22,9,4,18,1
22,14,7,3,1,3,13
22,28,1,0,0,1,53
2,4,1,1,16,1,9
0,2,1,18,16,4,1
6,0,18,9,1,14,0
25,27,19,2,1,13,27
11,28,2,0,2,1,50
1,2,21,1,26,6,4
0,1,37,22,13,14,2
18,3,6,9,0,7,0
19,30,2,2,0,3,42
3,14,1,1,7,10,38
1,0,5,5,20,5,4
1,1,19,12,10,27,1
33,12,4,12,1,25,13
13,32,1,1,1,3,53
0,5,1,0,21,1,9
0,1,4,6,16,12,0
11,1,28,21,1,21,1
32,17,17,9,1,2,32
6,20,0,2,0,0,48
1,3,0,0,34,1,4
0,0,15,8,13,12,1
18,1,32,18,1,46,1
25,31,4,8,0,6,48
1,15,1,3,5,1,37
1,2,2,0,24,6,3
2,1,78,0,9,7,2
25,8,19,23,2,1,10
18,31,1,3,1,1,52
2,10,2,1,7,0,10
0,1,2,1,22,2,1
7,0,22,4,3,28,0
29,20,9,14,1,51,38
13,21,1,6,0,5,36
2,1,1,1,8,1,2
2,2,2,1,25,7,0
10,2,20,13,7,25,10
23,34,5,13,2,3,56
2,18,3,1,0,0,9
0,2,1,0,6,1,0
2,1,1,1,23,3,1
27,15,41,15,6,34,25
19,28,31,10,2,12,51
1,7,3,2,2,1,8
0,1,1,1,7,1,1
7,0,1,1,25,14,0
32,18,20,22,9,21,40
10,19,17,7,0,2,41
0,2,2,1,2,1,2
1,0,1,0,7,1,1
14,3,44,3,28,13,10
22,32,21,15,6,13,52
2,17,1,12,1,1,9
1,1,0,2,1,0,0
1,0,10,1,4,10,0
24,14,31,7,26,16,25
17,30,2,18,6,5,51
3,4,1,6,0,1,5
0,2,1,3,1,1,0
4,0,9,0,6,13,0
29,21,38,1,21,5,37
9,22,8,25,9,1,39
2,2,0,7,0,2,2
1,0,0,2,0,0,1
5,2,4,1,12,8,7
34,34,26,9,24,25,57
15,16,6,9,2,3,21
0,1,0,7,1,1,1
0,1,0,2,0,0,1
15,3,6,0,15,18,21
23,29,20,7,19,21,57
3,9,10,5,3,2,6
0,1,1,17,1,2,1
0,1,1,4,1,0,0
25,9,21,1,20,26,41
19,31,11,1,16,10,42
1,11,2,20,1,2,4
0,2,0,10,1,6,1
4,1,2,1,2,14,11
27,23,16,1,28,4,61
16,27,6,4,12,63,12
1,2,0,14,1,13,2
0,0,0,6,1,79,1
16,0,14,2,22,10,37
21,28,57,0,17,84,41
2,16,10,6,1,19,3
1,1,1,18,0,16,0
1,0,0,6,0,90,6
26,9,38,0,17,32,45
18,32,23,1,12,4,23
2,13,4,11,2,2,0
0,3,0,12,2,144,0
4,0,3,2,2,102,17
31,20,49,2,24,36,49
10,26,3,1,8,39,6
2,2,0,25,2,18,0
1,0,0,5,0,134,0
12,1,0,7,6,72,38
26,36,37,2,27,155,44
4,17,59,1,10,5,3
0,2,4,12,1,60,1
0,1,0,13,1,141,6
21,9,5,2,12,15,45
23,32,46,1,29,43,26
1,8,7,1,3,80,3
1,2,1,19,1,99,1
4,0,2,8,3,6,22
34,10,4,2,21,140,53
14,26,19,0,11,29,7
0,3,7,1,1,57,2
1,2,2,23,1,294,1
9,1,1,13,4,69,34
32,25,9,1,25,91,40
7,21,31,1,10,5,3
1,4,15,3,1,148,2
0,0,1,20,1,134,3
13,0,1,13,13,5,45
24,25,6,2,18,66,25
3,16,30,0,2,34,2
1,1,4,12,2,175,0
0,1,0,15,1,36,16
22,10,0,2,18,179,54
21,28,8,1,6,131,7
1,2,24,1,1,7,3
0,2,2,32,0,5,2
2,1,1,8,4,153,30
30,13,6,2,29,9,41
16,23,23,1,6,20,3
0,3,9,1,3,42,1
1,1,1,21,1,165,3
15,1,14,11,7,50,41
25,28,2,2,28,208,29
2,18,25,0,9,90,1
0,1,4,1,3,111,0
0,0,0,24,0,43,18
21,6,1,10,1,74,50
31,26,0,2,18,10,7
3,10,38,1,16,153,2
1,1,6,11,0,138,0
2,0,1,13,0,23,32
31,19,0,0,8,7,44
16,31,1,1,26,99,4
1,2,44,1,9,124,1
0,0,10,15,0,13,3
10,1,2,12,1,39,52
28,31,1,1,2,27,27
3,19,1,1,28,129,3
0,1,34,5,12,10,1
1,0,11,21,0,135,16
19,5,1,9,0,12,53
27,29,0,1,11,59,6
3,10,39,0,25,76,2
1,1,35,1,4,8,0
3,2,2,22,1,101,29
30,19,2,6,1,5,40
13,19,1,1,21,133,5
2,1,26,0,10,14,1
0,1,35,5,2,64,2
12,1,3,20,1,11,42
21,31,1,8,5,13,31
4,16,1,1,26,65,3
1,1,33,0,5,12,1
0,1,27,0,3,95,15
23,7,2,21,1,15,50
27,30,0,5,2,211,6
3,11,15,2,29,173,2
2,1,17,1,4,161,0
0,0,4,6,1,69,32
26,16,0,18,1,10,43
19,24,2,7,2,60,3
2,2,10,2,26,10,2
2,0,23,0,13,117,3
11,0,3,3,2,25,44
29,26,2,20,2,16,33
4,18,5,5,13,22,4
1,0,27,2,20,99,0
0,0,13,0,3,29,15
22,6,2,2,1,10,55
21,30,0,29,2,109,7
3,10,13,5,23,166,2
0,1,35,1,12,15,0
2,1,9,0,1,53,27
28,17,2,7,1,64,44
14,26,1,22,0,35,5
2,2,15,7,18,42,1
0,0,10,1,2,34,2
12,1,6,1,0,5,45
25,31,2,4,0,148,37
3,20,1,26,18,15,3
0,2,20,1,61,112,0
1,0,20,1,26,67,14
20,7,0,0,2,78,53
23,33,1,2,7,5,10
2,9,6,19,106,2,1
1,3,9,4,10,2,0
1,1,4,3,0,83,42
33,14,0,1,0,88,43
15,27,1,4,19,34,3
1,3,1,22,45,53,1
0,0,27,7,27,47,10
11,0,53,2,1,8,56
28,13,3,0,7,11,9
2,17,1,8,30,2,1
0,2,10,10,8,89,0
0,1,3,8,1,41,28
19,1,2,3,3,15,46
25,14,1,0,142,75,4
4,24,5,1,33,23,1
1,2,15,14,3,18,1
1,1,4,13,1,5,43
31,9,3,1,15,99,36
16,44,0,3,18,13,2
2,10,2,21,40,69,1
1,1,21,6,2,71,8
7,1,12,1,5,6,53
31,3,3,0,236,57,18
8,32,2,1,54,30,1
1,6,0,8,5,98,0
1,3,17,21,1,23,26
8,1,27,1,18,58,48
26,19,2,1,49,34,5
7,101,2,0,53,91,1
2,6,2,9,7,16,1
0,1,18,19,17,2,42
9,76,13,5,20,1,32
28,63,3,1,40,160,3
10,9,1,1,3,26,1
1,2,49,11,100,16,10
0,0,29,16,29,42,55
25,9,2,3,2,10,10
16,23,1,0,82,26,1
3,2,0,0,117,33,1
0,0,11,19,4,4,38
1,0,5,7,83,10,36
27,11,3,3,16,118,3
17,29,2,1,1,2,0
1,5,1,0,2,52,8
2,0,15,25,115,16,49
7,1,14,5,14,60,21
30,21,2,2,13,4,3
11,26,1,1,3,1,0
2,3,12,1,0,146,28
0,2,9,19,117,18,45
17,6,10,7,4,18,5
24,35,3,1,1,1,1
2,13,0,0,36,23,1
0,2,21,0,76,28,37
1,1,38,15,5,33,45
27,15,4,9,1,1,4
16,26,1,2,65,0,0
1,3,1,2,38,145,5
2,1,23,1,13,57,49
7,0,5,5,13,4,27
27,18,1,6,7,2,2
11,15,2,4,0,59,0
0,1,1,1,39,10,17
1,0,9,0,10,3,44
18,3,17,6,1,29,5
20,3,2,11,8,2,1
1,5,1,7,46,84,2
1,1,0,2,21,19,34
1,1,1,1,5,3,39
32,183,38,7,2,1,2
13,6,22,22,17,159,0
1,1,3,9,16,24,7
0,95,2,2,1,5,50
9,54,19,2,1,18,26
30,125,4,3,0,89,2
8,26,2,12,71,51,0
1,1,0,2,51,42,21
2,80,0,0,3,2,49
6,176,45,1,2,31,7
28,12,16,18,1,83,2
10,122,3,32,33,6,0
2,74,2,2,25,18,36
0,4,7,0,6,27,42
20,1,30,11,1,31,2
19,32,14,42,13,8,1
2,171,2,8,111,9,4
0,4,1,11,3,14,47
2,1,12,1,7,24,32
23,129,4,0,1,25,0
18,43,1,20,25,6,0
1,3,5,2,32,36,20
0,26,12,1,2,97,54
13,189,32,0,24,35,7
20,5,4,1,1,16,2
5,143,0,12,83,12,1
2,100,1,4,17,24,35
1,2,2,2,1,1,43
17,0,62,3,1,62,4
22,256,15,7,44,5,1
3,107,0,25,23,5,4
2,4,1,3,2,44,51
0,0,32,0,2,25,29
24,108,22,0,14,19,3
18,14,26,14,19,67,0
2,31,0,26,1,72,21
1,26,0,2,41,31,54
9,2,5,2,4,9,5
30,88,29,1,44,2,0
8,6,2,18,47,124,1
2,62,1,11,4,16,35
1,56,9,7,1,2,47
5,3,20,2,27,0,3
24,3,19,0,18,0,1
8,1,2,84,21,28,4
1,136,1,57,2,116,49
0,24,4,5,35,4,29
5,3,32,0,3,46,1
26,16,5,88,53,9,0
13,24,0,256,6,21,12
1,6,1,18,1,3,54
1,6,6,0,19,0,9
20,1,4,119,0,54,0
29,207,0,8,29,55,1
2,13,16,129,4,7,30
1,1,4,12,1,2,42
0,53,16,3,6,21,3
25,133,11,2,58,57,1
15,30,1,1,14,23,2
2,8,2,23,2,10,39
0,15,2,173,7,46,35
6,0,15,123,9,4,1
26,14,21,35,10,0,0
16,3,4,2,1,75,16
2,6,0,28,3,56,55
0,238,4,37,61,11,9
14,8,18,4,12,34,2
21,78,6,0,19,9,0
3,59,2,33,3,34,33
0,8,1,99,5,55,42
0,1,4,9,20,35,3
29,1,21,6,51,31,1
18,10,13,1,5,7,2
1,76,0,77,3,9,58
1,28,1,66,21,23,37
5,49,18,53,23,7,2
33,2,18,5,13,57,1
9,91,2,1,1,29,11
2,50,5,111,0,2,52
0,4,2,10,9,53,7
8,3,16,6,9,47,1
25,138,5,1,16,8,0
20,12,0,220,4,22,31
1,16,8,50,8,22,43
0,39,8,4,4,43,5
0,9,13,4,7,7,2
9,14,22,57,1,82,2
50,1,3,72,3,4,43
9,50,2,37,56,69,35
2,80,4,3,63,56,3
140,4,33,1,5,33,1
10,1,3,0,8,14,14
1,87,1,51,2,7,50
3,76,1,46,17,37,8
70,33,5,68,26,32,3
99,54,39,42,8,1,1
16,12,9,19,2,104,29
1,19,2,9,0,29,49
0,0,0,0,11,2,5
0,1,10,71,59,5,1
75,160,19,75,4,14,3
207,65,6,6,2,40,49
105,27,2,139,2,3,38
4,34,1,5,53,33,2
0,12,35,4,34,60,1
1,3,17,36,3,10,14
48,0,2,70,10,52,56
2,32,1,62,2,12,8
38,3,0,41,2,1,0
197,17,18,21,25,107,1
7,16,29,189,10,58,32
0,5,1,36,1,8,47
15,42,2,9,4,2,3
216,2,6,33,29,20,0
8,0,47,261,6,59,0
1,26,7,10,0,26,42
78,67,1,213,1,2,39
23,28,1,30,32,6,2
68,1,1,73,35,25,1
31,287,23,13,3,12,15
28,10,15,64,1,6,53
5,8,4,50,14,0,10
54,68,0,45,41,189,0
4,79,8,103,10,6,1
33,5,19,56,0,42,44
60,34,14,209,0,13,38
5,2,1,115,12,0,4
0,2,1,228,35,68,0
1,1,18,32,14,20,10
125,126,12,26,1,9,52
9,6,0,0,29,32,9
2,1,8,23,17,70,2
55,5,0,82,2,7,0
5,1,22,39,7,36,29
72,7,13,123,1,2,43
12,23,2,45,35,143,3
1,5,1,31,17,57,1
33,6,6,38,2,8,5
123,4,32,19,1,3,40
27,0,5,131,2,1,35
3,37,1,4,12,92,2
1,131,0,239,4,57,0
1,13,13,142,31,4,13
1,1,21,75,5,165,50
97,160,3,7,5,119,9
50,11,2,9,2,5,2
37,1,0,107,1,10,0
21,1,12,284,59,2,23
1,294,17,31,3,107,47
6,58,1,24,5,34,5
2,4,1,2,4,3,0
14,3,4,54,3,57,0
39,11,36,80,59,27,40
22,1,17,32,4,21,41
47,0,2,22,6,40,2
2,9,0,10,1,5,0
2,23,11,153,90,0,9
1,6,26,26,7,64,50
47,27,1,176,0,161,22
26,2,1,10,4,5,2
20,13,1,21,36,0,1
99,10,22,157,6,27,25
8,12,25,36,21,17,52
2,14,5,8,3,2,5
2,18,1,15,5,67,1
29,43,15,108,23,40,0
23,4,41,12,21,13,37
5,69,4,2,2,1,45
0,5,1,97,3,1,2
4,6,0,86,43,92,1
41,64,8,97,5,72,5
13,19,36,130,1,12,49
24,39,6,5,25,8,27
1,3,2,67,14,2,2
5,0,0,17,7,42,1
11,29,4,7,1,14,33
57,7,36,8,0,6,51
15,2,7,50,1,15,6
2,132,1,24,20,30,0
2,64,2,30,9,3,1
1,7,2,27,26,62,36
0,0,52,3,2,18,36
1,1,10,140,1,14,2
99,22,1,13,6,2,0
43,3,24,126,29,0,7
4,239,36,4,4,45,48
17,16,3,114,20,7,28
2,1,6,6,0,2,2
14,59,2,1,22,104,1
7,17,30,139,32,18,18
28,13,5,7,9,2,54
2,1,86,3,1,32,6
1,126,4,13,11,40,0
21,28,2,59,40,10,0
10,2,6,104,4,6,37
4,126,68,14,3,2,42
14,51,22,4,13,24,0
15,35,60,17,10,15,1
6,8,7,60,5,27,6
6,72,29,22,2,2,48
0,79,61,0,1,0,28
44,9,5,139,0,86,2
24,1,6,18,6,6,1
48,17,53,1,33,12,23
3,2,41,102,19,35,54
2,23,12,74,5,30,6
99,26,57,6,0,2,1
63,6,115,0,73,7,1
3,1,13,90,21,20,37
1,19,11,41,2,43,41
4,18,38,139,0,16,4
47,49,33,48,1,46,1
29,3,64,13,19,3,2
18,2,36,121,17,42,42
1,1,1,4,3,7,31
1,82,78,176,9,36,2
70,27,93,11,3,5,0
20,9,18,29,2,17,16
1,34,46,5,88,13,51
17,11,30,16,6,64,8
42,0,57,81,3,23,1
3,1,17,8,17,2,0
39,55,0,3,3,19,35
3,84,47,11,23,104,42
9,15,59,80,2,6,3
28,14,48,22,1,31,0
6,5,6,17,25,3,3
3,19,21,25,20,81,46
1,25,52,21,2,67,30
8,3,25,4,0,61,1
69,20,44,121,6,9,1
43,45,3,21,23,22,20
10,13,110,4,2,38,51
2,6,106,34,1,2,6
53,1,102,62,1,45,0
52,9,14,4,10,44,0
2,100,42,275,32,12,34
1,10,11,32,2,4,41
69,2,132,27,10,1,3
59,1,60,1,1,40,1
4,32,6,19,20,28,3
0,59,69,20,47,43,46
0,5,32,45,2,3,29
10,1,4,7,1,16,1
30,30,32,3,37,10,1
13,17,128,98,18,11,17
0,23,74,65,1,26,52
1,2,3,21,0,2,9
36,18,38,2,0,8,1
14,80,44,8,3,44,2
8,7,62,13,40,48,27
8,2,17,57,22,11,49
2,9,32,20,1,1,4
33,16,47,31,1,2,1
21,2,7,43,11,45,1
2,56,2,70,8,10,45
36,5,36,3,9,61,35
15,1,195,2,2,29,1
19,33,6,63,6,17,1
2,8,120,59,12,29,15
10,2,189,73,21,2,52
2,49,44,10,1,4,6
32,3,140,3,0,93,1
31,11,36,10,8,21,1
3,45,58,23,48,3,29
14,2,117,10,18,3,44
20,0,27,50,1,63,3
25,61,32,25,1,30,0
2,43,72,2,18,2,5
12,7,57,1,16,18,48
20,2,38,158,11,79,38
65,0,69,32,1,35,3
4,7,51,3,13,6,1
1,198,17,51,61,0,14
16,9,50,4,5,48,55
23,2,13,20,1,66,10
2,2,238,18,1,29,1
3,33,17,75,29,3,2
8,30,53,6,15,7,40
7,4,6,0,1,3,43
37,1,18,29,1,48,2
7,1,44,83,2,14,1
3,155,2,6,37,1,14
22,7,63,39,4,1,53
1,3,115,138,19,30,8
83,30,17,10,3,13,1
14,43,0,2,10,71,1
2,74,103,215,25,3,27
1,34,38,25,2,12,50
8,38,36,72,0,58,3
38,2,1,5,9,34,0
11,139,29,32,11,2,1
2,21,33,50,35,2,42
2,3,2,121,8,6,43
67,13,1,11,8,22,2
15,35,41,76,2,7,0
1,17,13,8,23,2,12
9,2,46,34,14,0,55
34,0,8,165,0,152,8
12,1,7,7,1,7,1
1,1,33,6,31,1,1
0,97,16,42,31,16,27
29,8,22,45,3,23,48
47,21,10,18,44,9,5
9,38,4,148,5,25,0
2,25,96,102,33,2,1
1,7,84,7,4,57,37
29,37,7,3,1,59,39
22,10,5,3,2,4,3
3,130,21,17,2,0,0
0,4,28,21,11,109,13
84,22,41,62,38,11,55
70,57,2,80,2,4,9
5,10,31,16,3,0,2
1,9,291,2,14,3,2
1,45,9,8,15,92,27
9,20,1,124,2,27,50
35,47,9,13,1,8,3
16,8,58,18,0,5,2
4,1,19,3,15,1,1
1,1,18,19,20,66,42
6,55,2,6,2,13,39
35,33,19,14,1,78,4
3,2,56,13,0,5,0
4,1,5,51,13,34,11
9,58,11,38,14,21,56
23,11,9,85,12,7,11
47,2,28,96,4,1,0
4,24,19,10,4,2,0
1,55,42,4,32,7,44
8,9,4,36,3,30,39
2,1,67,21,0,2,3
56,1,23,4,9,87,1
13,42,25,143,0,18,10
2,40,45,10,64,5,56
1,21,25,39,19,19,9
10,5,13,50,1,10,2
31,10,54,4,1,2,0
3,70,17,89,9,31,25
0,11,20,48,16,74,50
51,16,30,3,2,10,5
34,1,31,17,1,1,2
3,4,6,76,5,0,0
1,58,93,32,33,30,39
2,5,13,8,20,11,41
1,42,5,28,4,0,1
19,3,12,22,1,28,1
4,1,59,0,3,17,7
2,11,26,77,16,6,47
1,65,13,86,17,1,29
43,2,11,31,1,2,3
7,1,21,13,1,10,0
2,1,27,72,13,38,23
1,4,10,5,11,21,52
1,92,1,2,2,2,6
3,9,15,46,0,96,1
101,3,40,17,1,6,1
6,50,5,116,13,29,40
3,12,10,3,9,23,41
14,2,37,1,3,12,3
18,3,7,42,2,1,2
5,0,21,245,40,62,6
2,27,8,10,29,14,56
0,18,49,127,7,2,30
39,6,3,27,1,48,2
23,1,8,7,2,4,1
2,88,17,1,1,15,19
0,75,63,35,33,3,49
3,44,11,39,10,1,6
24,6,29,4,1,49,1
57,1,15,1,0,45,0
10,93,11,93,9,3,37
7,13,23,37,17,2,48
31,10,4,10,6,1,4
12,0,34,13,1,58,1
0,6,8,8,0,20,8
1,2,1,1,37,12,47
34,37,1,114,43,2,26
5,3,44,20,4,23,3
3,62,19,133,1,3,1
23,11,10,10,2,29,18
2,13,1,18,30,6,56
20,4,19,15,10,13,6
12,0,25,67,2,20,0
21,1,27,3,0,26,1
1,55,1,29,2,4,35
1,7,0,63,26,18,44
17,11,35,30,6,1,2
14,5,67,8,12,26,0
8,35,3,28,2,17,4
1,22,27,9,1,11,48
5,5,10,11,12,2,26
10,15,4,14,5,64,1
8,2,5,34,0,4,0
2,28,6,5,2,2,18
40,18,7,4,5,59,54
51,1,68,9,14,8,6
4,1,11,11,15,19,2
1,74,1,34,3,18,1
0,22,2,84,1,4,37
16,7,43,4,8,39,41
25,1,12,15,25,53,4
16,6,11,21,6,5,1
1,22,11,2,1,10,4
1,3,2,46,0,2,50
14,1,60,21,16,34,33
25,119,21,10,4,4,3
12,11,1,4,0,31,1
0,59,19,113,2,1,16
0,5,17,20,3,24,54
84,1,17,48,27,2,8
32,2,2,14,5,31,1
6,186,2,2,5,7,0
1,9,7,61,0,8,37
22,2,111,87,10,23,47
15,1,7,50,36,7,4
19,1,1,5,10,1,0
0,20,12,0,1,0,2
2,17,7,93,0,30,45
33,4,20,52,20,6,33
6,1,26,7,33,12,3
29,31,3,4,2,3,0
1,93,32,2,21,5,15
3,19,49,16,6,2,57
60,2,53,132,20,8,9
4,0,4,12,9,1,2
0,14,0,1,1,0,1
3,26,61,0,1,1,33
27,1,27,226,26,2,46
19,1,7,15,14,30,2
0,7,1,5,5,34,0
1,122,21,2,0,3,6
0,43,29,4,19,2,48
26,6,18,76,12,0,34
46,1,3,11,34,12,1
2,25,0,1,3,2,1
0,34,63,70,2,4,15
1,3,10,47,2,2,61
22,0,41,20,59,3,9
1,3,29,1,11,41,2
1,75,16,2,1,35,1
17,42,10,7,1,8,31
24,4,2,47,15,2,44
22,8,1,4,17,6,5
2,39,13,36,1,2,0
1,15,63,38,2,1,2
5,1,28,19,0,2,49
47,30,1,25,17,0,33
23,38,16,59,27,44,3
5,9,43,11,10,59,0
1,18,36,17,4,8,16
0,11,14,62,1,6,53
37,6,7,26,7,5,8
32,52,9,2,3,6,1
4,5,22,128,1,29,0
2,52,32,26,21,15,31
1,15,17,1,19,1,50
66,2,10,26,15,0,5
5,61,32,44,2,12,0
3,9,50,45,1,45,2
2,2,4,18,0,10,46
57,1,84,64,56,1,36
40,68,9,51,4,0,1
3,41,8,13,20,33,1
1,18,10,23,3,7,14
0,2,2,69,0,3,53
9,5,31,4,21,2,10
53,9,9,179,26,1,1
50,89,8,7,2,6,2
3,4,2,1,1,49,43
1,35,15,189,41,13,36
3,4,45,19,17,1,3
16,10,10,20,5,5,0
37,14,5,2,0,57,14
2,2,4,84,5,7,53
5,6,4,97,25,3,9
4,80,35,8,13,5,1
1,19,15,4,0,1,1
6,8,0,1,0,38,29
9,1,0,94,4,14,49
7,48,29,30,19,0,4
4,23,27,36,3,1,1
8,11,30,3,4,0,1
13,1,2,52,2,17,43
2,2,21,24,14,13,36
0,19,16,26,32,1,3
19,65,12,1,5,2,0
18,30,1,46,1,2,9
19,2,10,69,0,0,52
0,10,34,13,17,20,22
2,9,31,104,56,2,2
32,6,15,15,7,2,1
3,1,2,211,1,59,28
0,3,15,15,5,8,47
1,40,42,6,9,2,6
9,41,5,3,16,1,1
35,4,4,35,2,1,1
2,22,10,26,0,2,38
4,26,83,7,14,5,41
2,84,16,59,39,12,2
22,6,4,18,5,4,1
27,80,2,7,0,1,10
3,3,24,22,0,12,52
10,50,34,24,0,16,10
1,38,2,26,30,2,0
31,3,1,42,12,1,1
29,0,0,5,1,6,41
2,109,43,7,0,25,39
0,85,13,24,2,6,2
18,18,9,3,24,0,0
13,21,2,62,15,1,14
2,4,4,3,2,40,57
1,2,52,10,3,38,11
1,12,13,94,1,3,1
26,4,3,37,31,0,2
14,1,1,3,20,1,43
0,15,56,0,4,19,35
1,50,13,1,0,31,2
9,19,3,198,1,4,0
28,1,2,14,11,1,10
3,18,2,60,21,1,54
15,12,2,20,2,12,11
1,136,22,7,2,6,1
2,17,17,44,17,2,1
68,4,0,17,1,3,38
43,37,14,60,1,17,37
2,34,12,42,1,14,4
8,0,24,3,10,2,1
1,5,4,94,2,1,10
23,60,4,6,25,1,51
14,54,26,1,3,0,10
2,6,10,237,0,23,1
0,5,1,12,41,10,0
12,3,1,80,7,0,45
7,52,9,44,1,0,43
4,79,45,13,4,9,3
36,6,14,126,5,21,0
33,2,6,124,12,5,6
15,15,2,29,21,1,48
2,52,32,108,3,1,26
6,13,37,201,1,9,1
4,1,3,13,0,7,2
1,2,0,64,26,3,22
30,6,7,53,27,1,52
2,62,14,27,6,1,6
1,9,14,2,1,24,1
24,6,1,218,0,29,1
25,4,17,7,27,4,35
28,6,15,3,23,1,41
3,42,41,1,1,0,3
1,22,4,164,3,0,1
14,4,3,6,35,19,5
77,47,5,27,29,11,52
17,39,21,10,3,2,26
1,3,27,75,1,1,2
0,75,2,15,0,15,1
25,5,0,53,5,7,21
47,111,1,2,27,1,48
10,24,36,178,23,1,6
4,6,15,28,2,1,2
51,19,2,5,1,6,1
8,30,25,2,19,12,36
9,1,4,34,21,2,40
4,2,6,16,3,0,2
2,4,6,2,8,1,2
10,25,10,141,30,11,4
28,10,4,37,4,13,50
2,77,9,45,0,2,25
0,10,42,23,1,1,0
2,12,5,85,0,8,0
69,0,2,13,6,41,19
28,5,15,206,5,14,53
4,0,12,60,11,2,5
3,7,14,4,12,2,1
53,30,2,3,2,8,1
29,15,20,47,4,15,33
7,10,29,9,1,2,41
0,40,14,1,0,6,4
30,14,2,0,4,0,1
74,1,0,3,15,5,4
14,21,17,5,2,21,50
0,21,40,90,14,3,24
5,5,7,8,5,0,1
32,30,2,94,1,3,1
48,32,2,74,6,4,17
2,24,4,49,68,20,52
15,9,28,8,19,4,6
2,1,28,11,1,0,1
40,24,1,97,0,0,1
29,34,25,29,37,6,33
3,4,12,16,28,24,35
0,0,21,52,3,3,4
5,48,3,4,1,2,0
39,101,3,208,0,1,5
9,12,22,10,17,6,46
1,2,11,7,23,22,26
0,12,15,9,9,5,2
56,51,6,19,2,1,1
69,11,24,2,1,1,13
4,1,23,75,19,17,48
10,12,26,18,29,15,8
41,63,3,30,3,2,2
21,6,5,4,1,1,0
3,1,27,73,26,0,31
1,0,23,41,70,12,40
1,37,2,9,7,16,4
13,6,13,22,2,1,0
50,72,30,2,0,0,1
4,25,54,1,9,2,44
1,17,8,26,36,23,27
0,48,1,4,13,7,2
56,2,2,53,2,2,1
37,4,20,13,2,1,15
2,26,25,45,16,1,44
1,17,1,88,15,33,5
26,3,2,38,1,13,1
26,14,16,4,0,2,0
22,2,75,4,11,1,30
1,97,4,2,34,9,36
0,18,1,26,3,20,3
17,19,2,66,0,4,1
5,1,50,6,1,1,3
25,1,17,3,19,0,42
24,78,6,21,20,4,30
2,91,0,28,2,22,2
39,6,10,7,1,2,1
29,2,34,2,6,1,15
2,14,18,16,31,1,37
2,41,2,3,18,11,7
12,3,0,78,2,14,0
5,15,28,22,1,1,1
5,15,33,4,12,1,28
3,22,5,5,50,1,36
0,29,1,63,4,12,4
28,2,1,16,0,22,2
25,4,51,2,0,3,1
5,58,13,1,38,1,41
0,10,15,3,14,2,26
2,0,8,14,6,17,3
39,9,4,143,1,9,1
4,1,11,35,2,2,11
2,1,4,6,21,1,44
15,107,0,7,27,0,5
13,18,16,3,3,19,1
13,5,2,5,1,9,1
3,4,8,8,46,2,25
0,56,7,1,17,1,38
1,7,2,1,1,0,3
2,2,2,74,1,18,0
75,0,16,17,0,14,1
4,2,12,3,14,2,36
1,32,3,1,27,0,27
1,53,1,39,4,6,3
39,3,14,12,0,18,0
18,0,19,14,1,5,11
1,15,17,67,29,2,44
21,19,2,25,24,0,7
0,42,0,11,1,5,0
47,4,27,3,4,33,1
44,21,32,1,20,8,23
4,43,4,7,13,2,39
2,2,2,12,5,1,4
35,0,7,48,3,5,1
6,0,35,3,1,20,1
50,56,11,2,12,4,39
3,41,2,4,29,1,31
1,3,2,18,10,2,2
30,0,7,3,2,9,0
23,45,11,2,11,6,9
2,40,14,35,42,5,45
0,6,1,15,10,13,16
15,1,0,58,2,1,2
35,1,23,5,2,3,1
10,28,37,8,31,18,25
1,5,11,1,27,6,45
6,10,1,32,2,2,3
1,3,1,3,1,1,1
105,7,35,2,13,3,2
14,23,13,1,23,21,39
1,8,2,6,5,10,32
2,1,5,8,0,0,2
2,29,17,4,0,0,1
5,1,24,9,18,13,9
6,56,4,9,26,10,46
0,12,1,16,4,2,18
22,5,1,12,0,1,0
18,2,31,4,1,3,0
70,19,8,1,19,23,22
5,12,9,25,19,18,39
1,2,1,35,2,2,3
9,1,39,8,2,1,2
49,51,25,0,10,7,0
3,6,10,27,34,29,36
0,20,2,6,8,2,32
32,3,2,5,2,1,2
26,0,18,13,0,0,0
2,3,27,2,20,16,6
10,33,6,1,33,18,48
20,4,17,5,3,4,18
20,1,2,19,1,1,1
1,1,23,11,1,0,4
1,9,6,1,29,11,21
1,9,14,0,24,12,41
1,18,1,3,2,2,4
53,3,6,23,0,0,1
11,1,30,6,6,1,1
0,15,21,2,26,13,35
1,26,9,0,14,12,33
69,15,2,9,0,1,4
9,3,25,16,0,1,1
2,0,11,4,17,9,5
1,81,1,12,29,19,46
0,77,1,1,2,6,24
18,4,2,7,0,1,1
16,2,48,8,0,0,0
25,39,62,5,25,4,17
5,15,4,4,14,23,41
3,91,2,2,1,4,5
14,5,7,1,0,1,1
11,0,39,50,18,0,1
38,25,5,6,16,6,29
2,62,5,0,1,22,38
3,8,5,6,2,7,3
14,1,32,2,1,3,2
5,9,17,11,23,1,5
25,75,3,1,19,14,42
2,27,1,1,2,19,22
27,3,5,2,2,2,1
10,2,16,3,3,0,0
2,20,32,23,10,1,19
1,5,9,4,16,8,43
7,16,1,1,1,11,4
37,18,0,1,0,3,2
3,30,28,4,8,0,2
1,2,45,16,31,0,34
0,21,5,18,13,12,38
68,1,1,2,1,17,2
21,5,6,3,0,1,1
4,29,40,62,15,0,5
0,75,19,17,32,1,45
1,25,1,16,3,16,22
9,2,2,2,0,11,2
39,43,32,7,2,1,1
4,87,22,40,23,2,19
1,6,1,5,23,5,42
6,1,1,46,1,17,4
27,2,17,4,1,5,1
23,11,72,41,9,0,1
32,70,15,13,37,1,27
3,5,2,15,13,9,36
11,1,6,1,2,19,4
6,0,9,12,1,8,0
6,36,59,6,19,1,4
1,41,4,4,29,0,44
0,2,22,2,2,9,22
6,4,4,0,0,24,1
9,6,26,2,1,3,0
21,67,30,25,28,2,15
6,14,8,7,11,1,41
1,1,2,1,2,4,4
0,2,14,2,0,29,1
36,8,41,24,8,2,0
20,29,7,21,30,0,32
2,10,1,5,16,1,40
3,1,9,0,2,5,3
24,1,29,1,1,25,1
39,25,28,20,9,7,4
2,32,18,7,36,1,44
1,3,2,19,10,2,23
3,1,26,1,1,3,0
16,5,13,1,1,19,1
19,39,13,17,23,4,13
3,18,13,8,23,1,46
1,1,2,3,2,0,6
21,5,39,0,1,6,1
57,6,9,0,5,22,0
4,29,2,24,38,4,30
0,7,2,15,8,2,36
1,2,3,5,2,2,2
19,2,34,0,1,3,0
27,0,12,7,2,21,2
7,32,1,22,38,4,41
0,4,8,3,9,1,25
1,2,9,1,2,0,1
43,0,27,1,0,1,1
29,25,7,14,6,20,15
2,37,3,5,34,18,41
2,4,4,18,8,1,5
1,1,26,2,2,0,1
23,2,20,1,1,9,0
7,39,9,6,2,22,35
3,9,3,9,33,5,42
1,3,1,27,9,0,4
23,0,47,3,1,1,0
25,2,30,0,0,6,1
3,8,2,15,3,19,40
1,29,0,14,31,2,29
1,7,16,10,11,0,1
11,4,40,0,1,0,0
26,0,15,4,0,11,14
2,30,20,20,14,18,42
1,12,21,5,23,3,8
1,5,11,2,1,1,1
8,4,9,0,0,0,0
17,4,2,6,0,21,27
3,15,1,21,24,20,36
1,19,8,8,24,1,4
1,2,17,1,3,0,0
9,6,6,1,1,5,3
11,19,3,2,2,20,39
3,20,6,25,28,6,29
29,34,14,9,11,2,2
25,9,15,2,1,1,0
14,1,18,1,1,6,10
1,91,19,1,11,28,47
2,75,35,25,24,2,6
1,5,12,10,4,1,1
17,1,6,1,2,1,0
11,88,2,1,0,2,29
1,11,34,18,20,18,36
0,15,28,16,19,6,4
0,1,12,3,3,1,0
33,23,1,0,0,2,2
21,28,4,3,16,5,39
1,6,27,21,27,31,31
2,2,29,7,7,7,3
5,2,5,6,1,1,0
28,21,1,0,1,0,12
12,20,8,1,13,4,45
0,3,28,21,24,36,6
0,1,11,14,2,3,2
11,1,0,1,1,1,1
21,33,1,2,0,0,26
4,36,9,10,31,8,38
1,13,43,17,13,26,3
1,2,4,6,2,7,1
27,5,1,1,0,3,0
20,8,1,2,6,1,41
1,21,28,5,29,5,28
1,5,30,18,12,16,3
5,1,16,5,1,3,2
31,29,1,1,2,1,14
17,22,8,1,12,0,47
2,4,16,6,26,2,6
1,16,19,10,5,20,1
9,2,3,5,2,3,0
25,20,1,1,2,0,24
11,18,27,2,26,0,42
0,2,17,13,15,3,4
0,0,13,14,1,17,1
33,25,1,4,0,6,2
26,30,3,1,3,2,36
2,4,23,0,31,1,32
1,3,13,14,13,3,2
7,0,1,8,1,24,0
34,31,1,2,1,9,9
17,32,23,1,12,2,45
1,3,11,0,16,1,19
2,1,1,17,13,2,1
17,1,1,16,1,28,1
25,18,1,5,6,4,24
3,21,0,0,33,2,40
1,3,53,9,11,1,3
0,1,8,19,1,12,2
21,20,0,7,1,18,1
18,24,4,3,11,4,36
1,3,20,0,25,1,29
0,1,8,5,4,2,3
6,0,10,22,0,6,0
30,23,1,12,1,18,10
12,26,9,1,23,9,42
2,2,17,1,33,1,9
1,1,17,19,4,0,2
14,0,1,22,2,6,1
29,23,1,5,2,26,22
7,14,2,0,23,11,43
1,1,33,1,11,2,5
0,0,24,17,1,1,1
32,5,1,16,0,32,2
28,43,1,2,14,13,35
3,10,12,1,26,1,31
1,1,23,5,5,0,2
4,2,3,23,1,5,0
27,47,0,7,0,21,10
14,16,1,2,26,2,45
2,3,27,2,11,0,9
1,3,22,1,2,1,1
8,6,2,16,0,4,0
30,27,0,11,2,24,21
10,14,7,2,24,14,42
1,2,37,0,13,1,5
1,0,4,2,3,1,1
24,13,0,22,0,11,2
21,29,5,7,15,21,34
2,2,2,1,24,4,33
2,0,24,0,4,1,2
0,5,5,3,1,1,2
38,17,5,9,1,12,7
16,15,1,18,18,7,41
1,1,1,2,23,1,22
1,0,26,1,2,0,3
16,2,8,3,0,0,0
29,35,2,17,1,16,20
3,10,2,10,23,8,41
1,1,2,3,18,3,4
0,1,26,1,1,1,2
31,9,13,10,1,1,1
25,23,1,11,15,15,30
3,13,3,1,27,5,29
1,1,31,1,4,2,2
7,1,12,0,1,0,0
22,17,2,23,1,0,9
15,28,0,6,17,20,48
1,3,0,3,19,16,19
0,2,32,0,2,0,1
9,0,20,7,1,1,0
31,30,1,13,5,0,17
8,20,0,6,30,21,41
2,1,1,1,13,5,4
0,1,15,0,1,1,0
19,10,19,1,1,0,2
22,37,3,24,11,1,38
5,3,0,7,22,25,34
1,1,12,3,4,12,2
0,0,32,1,0,3,1
26,22,3,2,1,1,3
21,20,0,18,14,6,43
1,2,0,14,24,19,22
1,0,40,1,3,3,2
0,2,27,1,1,1,1
29,42,1,6,3,0,21
18,13,2,13,35,25,39
1,0,13,12,11,13,6
0,0,22,1,1,6,1
8,7,3,1,0,1,1
29,26,4,18,16,0,33
8,14,3,6,28,13,36
2,0,16,2,4,6,1
0,1,14,1,1,2,1
12,18,2,0,0,1,4
24,27,0,24,18,0,41
2,3,4,3,21,22,22
1,1,61,30,3,17,1
0,1,28,2,1,2,0
18,24,2,6,0,0,14
22,15,0,24,25,4,43
1,2,1,5,15,28,6
2,0,17,2,1,7,1
2,14,4,0,1,2,0
27,30,1,1,10,0,33
19,5,1,25,25,1,34
2,0,37,7,4,24,4
1,0,23,9,1,5,0
0,17,1,1,1,2,5
28,19,11,10,24,1,42
12,2,10,14,23,2,25
2,0,0,4,2,22,0
1,3,34,3,0,8,0
17,37,64,1,3,3,16
26,19,3,0,29,2,46
2,3,0,25,9,1,7
0,0,23,3,3,21,1
1,6,47,1,1,17,1
29,29,2,5,1,2,30
15,10,5,9,31,2,33
0,1,33,16,19,12,2
1,1,11,3,1,13,1
11,17,0,2,2,2,3
30,14,0,1,4,1,41
5,5,1,8,24,1,28
1,0,22,23,6,25,3
0,0,17,5,1,15,1
25,30,0,1,1,1,13
21,15,9,1,11,0,46
2,2,26,12,29,1,7
1,1,28,17,5,25,1
0,5,3,2,0,11,0
35,43,0,0,0,1,26
15,6,0,1,20,0,33
2,1,16,15,15,6,3
0,0,78,16,2,16,1
10,8,7,0,1,8,3
31,30,2,2,1,2,41
4,9,2,1,24,2,22
0,1,23,22,17,5,1
1,0,3,9,2,9,0
18,8,0,2,1,22,12
25,29,0,0,9,3,41
2,14,1,0,29,1,6
1,2,24,18,9,8,0
1,1,6,12,2,18,1
28,22,1,1,0,5,29
19,24,0,1,6,1,38
2,3,35,9,28,0,3
1,0,5,20,8,4,2
5,1,15,7,1,10,2
31,24,13,1,1,12,46
8,19,2,2,14,2,26
3,1,97,3,27,1,1
0,0,14,14,5,13,0
7,9,2,13,2,10,9
31,30,1,6,1,0,44
7,12,3,1,13,0,15
0,1,20,13,23,12,2
0,1,8,13,4,19,0
7,12,1,2,0,3,26
32,22,0,1,2,1,36
14,3,3,1,27,1,4
2,1,26,20,13,6,0
0,0,8,8,2,11,2
18,26,2,2,1,7,40
23,16,1,1,4,5,30
2,2,3,0,32,0,3
0,1,17,22,10,9,1
2,10,13,4,2,23,11
33,28,1,2,1,5,46
23,6,1,1,22,1,6
3,2,16,0,13,0,1
1,0,20,6,3,6,1
8,16,3,21,1,21,28
32,24,0,1,3,6,39
11,2,1,1,28,2,4
2,1,26,2,13,0,1
1,1,13,14,0,6,1
24,29,1,6,2,23,35
31,13,1,3,4,3,32
4,1,2,1,26,1,1
1,0,24,1,8,0,0
0,6,5,13,1,3,9
28,30,1,17,0,18,43
16,10,1,1,3,3,22
1,0,78,0,26,0,1
0,0,46,5,10,1,1
10,17,10,10,1,2,30
25,26,1,4,2,26,37
6,2,0,1,18,6,2
1,0,20,0,22,1,1
2,0,14,8,5,1,1
15,29,3,22,1,6,35
24,18,1,6,1,23,30
2,1,1,2,23,2,3
1,1,14,2,17,1,1
1,7,2,5,0,1,9
24,32,1,28,2,7,45
22,10,8,2,4,12,16
2,0,3,2,28,6,1
3,0,16,0,9,1,1
13,19,3,0,1,1,24
30,26,1,15,1,5,42
5,3,1,8,5,19,3
1,1,68,2,30,7,1
1,1,118,1,8,2,1
21,26,2,5,2,0,37
23,18,1,20,1,6,29
2,2,2,9,3,20,3
1,0,16,0,26,2,0
0,6,43,1,12,2,7
27,30,2,4,1,2,43
20,15,0,16,2,13,21
1,0,1,5,13,9,3
0,1,31,1,20,11,1
6,4,8,1,5,0,22
35,29,2,12,1,1,42
13,6,0,12,1,29,5
1,1,2,7,24,15,1
1,1,13,2,11,1,1
14,18,10,1,2,0,37
24,21,22,23,1,6,32
3,3,2,12,4,37,2
1,0,11,3,30,11,2
0,0,10,1,10,2,4
27,28,2,1,1,1,46
18,21,1,19,0,7,18
1,2,0,7,19,25,2
0,0,5,1,14,2,1
10,5,18,1,3,2,19
27,31,30,0,1,1,42
4,17,2,24,1,11,6
2,1,1,13,20,13,1
0,0,27,2,17,1,1
21,14,4,1,2,0,33
31,32,1,6,2,1,33
5,4,7,26,6,19,2
2,0,13,11,28,8,2
0,0,9,2,8,1,6
31,24,3,0,2,0,45
19,22,1,12,0,1,22
2,2,0,4,9,12,1
1,0,14,2,25,24,0
9,11,63,1,11,4,19
32,22,7,2,0,1,42
11,5,1,12,1,1,5
2,2,1,19,17,14,0
0,0,18,0,20,4,1
13,9,8,0,4,1,33
27,27,2,1,0,1,31
3,7,1,19,1,3,2
0,2,0,11,22,22,1
1,1,33,1,22,6,6
26,12,20,0,1,2,47
19,23,2,7,2,1,22
2,2,0,8,4,1,2
0,0,43,14,27,23,1
6,0,40,1,15,5,15
30,26,6,1,2,2,40
13,19,1,8,1,1,5
1,2,0,13,16,3,2
0,0,12,7,23,26,1
19,6,21,1,3,11,32
28,31,6,0,1,2,35
3,10,1,10,1,0,4
1,1,1,18,18,5,0
1,0,45,4,12,8,5
29,14,12,2,0,8,45
17,26,1,0,1,6,23
2,3,1,11,4,2,3
0,0,1,19,35,2,1
4,0,22,2,7,21,17
28,22,24,1,1,4,41
12,23,3,1,0,1,5
2,2,0,16,2,1,0
1,0,5,9,31,0,0
15,10,9,1,11,26,33
26,29,3,0,2,6,36
6,8,9,1,0,0,3
2,1,1,22,12,1,1
0,0,10,7,26,1,6
31,10,23,3,3,15,41
21,23,2,1,1,9,22
1,4,0,3,0,3,1
0,2,1,22,26,0,1
5,0,15,5,14,1,14
33,25,32,1,1,18,43
19,20,2,1,1,4,4
2,1,1,2,3,1,1
0,0,15,15,27,0,0
15,6,44,17,14,3,32
36,35,5,2,1,19,35
3,14,2,2,1,10,2
1,1,0,4,8,2,2
0,0,0,22,16,1,4
23,14,22,2,3,4,42
26,25,10,1,2,12,24
2,4,2,1,0,10,2
1,0,0,1,19,1,0
6,1,9,25,29,1,15
32,26,40,7,2,26,45
15,21,7,1,0,14,5
1,2,2,1,0,2,1
0,2,1,3,17,1,1
14,5,4,14,29,1,31
26,33,45,6,2,15,36
3,12,23,2,1,18,4
0,1,1,0,6,2,0
0,1,1,1,26,3,3
30,10,10,29,16,8,42
20,32,34,3,1,26,22
2,2,4,2,1,5,1
1,0,2,1,16,2,2
4,1,1,2,14,0,14
30,23,24,21,2,13,40
14,19,7,11,0,26,4
1,4,2,1,1,8,1
2,2,1,2,20,2,1
18,4,4,4,32,0,31
22,30,29,16,2,15,33
3,14,8,5,1,14,3
1,0,2,1,1,3,0
1,0,2,0,29,1,3
26,12,4,7,9,0,41
24,22,41,18,2,21,26
3,2,6,5,1,9,1
0,0,2,4,4,2,0
4,1,1,1,19,0,14
28,26,3,14,6,1,45
13,15,19,15,0,24,7
1,2,3,1,1,9,0
2,1,1,1,4,2,0
7,3,2,1,25,0,28
31,27,13,12,18,1,36
7,14,33,21,0,16,4
1,2,8,2,2,8,1
0,0,2,2,7,1,1
11,9,1,1,42,1,38
25,32,6,21,9,1,27
4,8,29,7,1,13,1
1,0,28,3,0,13,0
1,1,3,0,7,1,14
23,10,1,0,21,1,45
17,28,9,13,1,4,9
1,4,28,11,0,25,2
2,0,37,1,13,7,0
5,1,2,2,30,1,28
33,21,1,4,6,1,41
14,21,34,21,1,8,4
1,3,14,3,1,24,1
1,0,1,0,0,1,1
7,2,2,2,17,2,36
32,31,3,7,22,1,28
8,14,38,14,1,4,1
0,2,18,2,1,21,1
1,0,2,0,2,4,10
14,14,1,0,16,1,41
27,25,8,8,21,1,6
4,7,20,19,1,2,2
0,1,7,3,1,33,1
0,2,2,2,9,14,26
15,12,1,2,22,2,38
24,22,17,6,7,0,5
3,2,16,14,1,4,0
0,1,3,3,0,6,2
3,0,1,0,15,12,39
31,27,3,0,12,3,29
16,16,22,11,4,0,2
2,2,13,9,2,2,1
0,1,3,6,1,9,9
1,13,1,0,21,20,49
34,25,26,1,9,2,17
6,4,15,2,1,1,2
1,2,1,20,0,1,2
0,2,0,7,0,15,26
15,24,0,1,15,8,39
26,17,31,0,17,1,2
3,3,17,11,3,0,0
1,1,3,13,1,15,1
1,2,0,4,3,22,38
20,32,10,1,33,3,31
25,20,33,1,9,0,2
2,1,5,14,1,0,1
0,1,2,10,3,13,10
1,11,0,1,1,4,44
27,30,1,1,24,0,8
15,3,25,1,21,0,1
1,0,19,23,2,1,1
0,1,1,11,0,23,22
17,16,1,1,0,8,40
22,21,9,0,25,2,5
5,3,17,14,10,0,1
2,1,1,10,0,0,1
0,2,0,1,1,18,37
23,27,0,1,27,10,29
24,17,27,1,16,0,2
3,0,33,12,1,0,0
2,0,4,8,0,4,5
4,12,0,2,4,14,44
28,28,0,0,53,3,17
15,4,22,0,11,1,1
1,1,21,22,2,1,1
0,1,2,9,1,5,21
10,18,1,2,18,13,41
30,26,2,1,10,7,5
4,2,30,1,4,1,1
0,2,20,21,1,0,0
1,2,3,10,0,8,36
22,22,15,2,1,25,31
23,17,36,1,1,6,2
1,1,4,1,33,1,1
1,0,2,25,27,0,8
0,7,0,9,11,11,49
38,31,1,2,15,17,19
11,10,47,1,7,12,2
2,1,44,2,2,3,1
1,1,3,15,1,1,22
19,15,2,8,5,6,41
21,25,9,1,22,65,4
5,2,55,1,5,51,0
0,1,6,0,1,11,1
1,0,1,26,0,19,34
23,29,0,6,1,50,31
20,18,10,1,16,6,2
2,1,33,0,10,4,1
1,0,3,1,4,23,5
0,9,0,18,2,46,42
33,32,0,7,15,3,21
19,7,7,2,18,5,3
2,1,24,1,1,15,0
0,1,7,3,0,11,17
12,8,1,16,1,6,40
31,34,1,11,24,4,5
5,9,18,2,18,23,1
1,1,17,1,3,14,1
1,1,2,2,1,101,33
15,7,1,14,7,89,33
28,29,1,9,9,13,2
4,10,20,3,2,31,0
1,1,35,1,2,18,4
4,0,4,10,3,13,44
28,20,1,13,2,66,18
9,18,10,3,50,13,2
3,1,30,0,8,26,1
1,1,2,0,2,96,18
5,0,2,14,1,33,42
31,27,1,16,1,6,5
12,17,35,1,89,12,1
0,2,9,0,37,1,1
1,0,3,1,3,193,31
17,8,1,24,2,32,35
29,34,1,13,1,10,2
4,10,12,2,0,14,0
1,1,23,0,25,53,8
0,2,3,5,5,2,47
24,20,0,16,0,92,23
25,24,2,4,19,86,3
3,4,24,2,25,25,1
1,1,15,0,8,71,15
1,0,4,1,0,40,41
20,25,2,16,0,224,6
21,18,37,5,15,9,1
2,1,39,1,46,69,0
1,0,5,1,9,171,33
14,7,0,1,0,34,34
30,34,1,18,1,60,3
4,9,41,9,37,29,0
1,2,8,1,6,105,4
0,0,1,0,3,9,38
24,3,1,6,4,64,24
23,29,1,19,2,75,2
3,9,14,9,7,27,1
2,2,13,1,71,80,15
1,1,1,0,12,57,39
25,6,2,4,1,18,5
21,30,1,23,3,75,1
2,9,20,4,9,92,1
1,3,13,1,14,34,32
9,1,0,1,2,3,33
30,6,0,2,2,268,2
9,31,24,13,3,50,1
1,11,33,8,12,9,3
0,1,2,0,3,204,40
5,0,2,1,1,175,24
31,17,0,6,2,47,1
9,24,13,21,46,6,1
1,2,26,10,34,213,13
1,1,17,1,2,42,42
4,0,1,1,18,44,6
38,27,13,14,1,21,0
14,16,20,8,35,70,0
1,2,1,2,31,23,25
0,1,1,0,82,58,33
19,8,0,0,8,58,2
27,33,20,13,1,109,1
4,9,23,12,0,97,3
1,2,2,2,15,126,41
6,0,1,1,7,54,25
24,8,1,2,1,144,1
22,35,22,24,16,6,0
2,11,16,10,21,136,13
2,0,2,0,1,116,44
9,0,0,0,29,46,6
27,13,0,5,18,88,0
9,28,63,18,4,48,0
2,2,18,7,1,21,30
0,0,2,1,12,29,36
6,1,1,0,9,48,4
29,30,10,3,57,55,1
12,18,32,13,43,19,4
0,2,2,7,5,11,39
1,1,0,2,2,164,28
21,6,0,1,16,6,2
26,26,19,9,168,52,1
2,14,22,17,5,22,14
0,1,2,13,3,96,42
0,0,2,0,12,11,7
32,11,4,1,11,11,2
13,23,22,13,126,19,1
2,1,6,15,4,52,27
1,0,0,3,1,9,35
3,0,1,2,1,179,3
38,27,6,1,28,14,1
12,16,22,26,4,82,1
1,2,6,5,1,17,41
0,1,2,2,1,28,27
29,5,1,0,6,4,3
22,25,5,0,42,189,0
3,16,12,21,15,16,14
1,1,13,10,2,11,40
1,0,1,2,1,22,6
28,10,0,1,39,13,2
13,22,14,2,11,0,1
0,3,23,24,4,54,27
1,0,1,6,8,48,36
11,1,1,1,56,42,4
33,24,2,1,13,16,1
4,24,27,8,3,2,1
0,2,9,16,8,40,36
0,0,1,4,2,94,27
18,9,2,5,19,10,3
29,28,1,1,37,1,1
4,11,16,3,4,70,12
1,0,10,17,2,112,47
1,1,2,4,6,43,7
35,15,1,1,12,27,1
15,25,8,1,15,13,1
1,3,37,8,1,53,25
0,1,6,26,1,5,37
10,0,0,3,19,36,4
33,19,0,1,16,20,0
8,30,1,1,2,34,1
1,4,17,4,1,99,34
1,0,11,23,1,10,29
15,1,0,5,20,35,1
30,2,1,2,6,30,1
2,7,29,1,19,8,11
0,4,19,4,7,11,47
1,6,9,24,3,15,7
29,10,2,9,4,5,1
19,50,1,0,20,36,1
2,3,6,0,9,29,19
0,0,19,5,7,5,39
4,0,4,25,21,126,5
28,1,1,6,7,173,1
10,33,2,1,32,92,1
1,10,22,0,13,23,38
0,0,15,6,0,1,30
6,1,2,25,5,1,2
28,14,1,12,56,50,1
6,23,13,3,16,34,9
1,4,27,1,1,22,47
0,1,6,13,49,37,21
8,0,2,6,4,36,1
24,22,1,2,23,7,1
5,27,16,1,7,31,22
1,1,20,0,1,30,40
0,1,2,7,17,38,4
23,12,4,18,15,12,1
25,26,1,5,2,103,0
4,2,9,1,1,20,36
0,35,21,0,12,70,30
1,80,4,12,8,18,3
27,171,2,15,55,3,0
21,48,3,0,29,73,6
1,2,18,0,2,8,46
1,1,4,2,1,29,20
8,18,1,17,86,35,1
28,63,0,10,32,44,1
12,12,6,1,2,6,23
1,4,23,0,5,152,41
1,120,9,4,4,27,5
16,23,2,25,1,23,2
29,1,1,4,92,21,1
3,2,0,1,9,5,35
0,0,31,1,2,38,33
0,33,15,6,1,16,3
30,30,1,19,164,15,1
23,3,0,6,14,8,8
2,1,12,0,1,5,49
1,19,25,1,100,10,15
8,23,3,15,5,113,3
27,3,0,14,11,9,0
16,0,0,10,0,3,20
1,41,4,0,1,16,41
1,51,28,2,1,35,5
17,89,7,14,74,2,2
23,36,1,6,41,13,0
5,2,1,2,8,29,35
0,13,11,0,2,12,32
1,5,34,1,82,9,2
27,1,4,17,15,31,0
15,1,0,13,0,6,7
1,0,0,0,4,3,46
0,36,6,0,103,19,20
4,13,29,6,12,87,2
25,19,19,26,1,41,1
14,197,1,8,0,5,17
1,41,1,1,49,7,46
1,4,21,1,43,37,5
10,1,3,15,17,54,1
32,0,1,13,2,16,1
5,0,2,5,10,69,39
1,24,1,0,14,10,34
0,23,20,1,10,18,4
28,22,4,8,1,23,2
15,1,0,25,33,9,6
2,23,1,3,21,97,42
1,27,1,2,15,15,26
5,2,28,0,15,2,2
30,0,15,9,2,23,3
11,4,2,21,30,33,20
0,0,1,2,32,55,41
0,0,6,1,6,4,7
15,82,25,1,2,6,1
25,17,7,35,0,9,1
3,6,2,9,26,31,33
1,77,1,1,24,24,33
1,5,17,1,13,9,4
23,49,36,72,13,6,2
24,5,4,138,19,71,4
4,23,1,76,9,12,44
1,112,1,12,6,41,22
4,5,19,0,1,4,1
34,1,27,131,33,15,0
8,0,4,199,42,115,18
2,71,1,26,23,7,40
0,25,0,67,2,3,7
2,2,18,12,0,43,0
32,10,29,57,2,60,1
13,34,2,31,1,34,34
2,3,1,23,100,2,33
0,2,15,1,5,31,2
13,1,30,0,1,23,1
30,17,3,117,30,9,4
4,22,0,98,42,2,45
0,2,2,10,2,81,28
0,1,32,24,1,12,1
26,67,14,1,1,22,0
23,4,2,158,4,8,19
1,42,2,17,65,30,42
1,25,1,282,4,18,6
5,2,48,26,0,12,1
30,4,15,422,15,30,1
11,145,1,154,10,1,32
2,4,1,9,23,17,37
1,0,21,168,4,39,3
17,62,33,40,0,7,1
24,23,4,62,23,1,3
2,7,1,167,7,0,40
0,1,0,6,46,81,26
1,1,25,68,8,22,2
23,161,13,177,3,2,1
15,77,1,23,6,1,18
1,7,0,2,8,35,40
2,2,2,8,16,58,7
4,3,31,240,1,25,2
30,1,6,30,5,75,0
13,2,2,32,22,4,31
1,86,2,489,6,89,34
2,9,1,17,0,87,4
17,0,17,200,9,8,1
28,106,17,25,4,2,2
4,48,1,288,2,14,41
1,8,1,12,18,29,25
0,21,15,1,12,41,2
33,40,26,17,3,14,2
31,30,4,229,40,1,15
2,3,1,26,4,34,40
0,134,0,54,7,31,7
5,16,34,52,25,22,1
25,16,34,45,2,38,1
14,0,3,13,1,18,28
1,74,0,125,29,20,38
1,16,1,79,5,13,3
7,123,36,140,16,69,0
29,5,31,4,1,61,1
10,1,2,78,70,5,41
0,1,1,40,16,32,27
1,158,6,246,1,23,2
19,4,33,95,2,16,0
31,4,4,190,15,8,12
2,0,0,51,54,11,44
2,87,0,3,7,34,7
5,42,10,175,1,28,0
27,30,12,31,0,2,1
12,7,5,4,56,5,30
1,31,1,49,17,10,36
1,169,1,53,3,42,5
4,21,16,161,1,6,2
33,56,28,70,0,5,4
8,19,3,27,89,1,32
0,38,1,1,15,25,28
0,14,1,356,1,24,3
11,9,39,19,2,3,1
35,103,6,144,51,86,14
3,6,1,19,21,18,40
1,8,1,2,1,9,8
0,1,1,484,0,3,1
30,0,20,26,0,8,1
30,89,13,94,8,78,23
4,30,2,21,67,5,37
1,263,1,5,18,55,5
3,24,5,0,1,3,0
45,2,32,238,0,127,0
5,135,14,9,2,15,36
2,91,2,1,109,2,24
1,5,0,274,5,29,1
2,57,14,132,1,49,1
19,32,14,33,21,25,13
10,11,1,4,13,7,41
6,28,1,15,8,16,8
1,10,1,31,2,35,0
1,119,16,163,1,3,0
16,65,4,63,57,10,26
2,18,3,32,41,23,37
0,22,5,12,2,79,5
1,32,5,48,3,32,1
10,67,9,6,1,10,1
81,102,7,190,20,25,36
16,4,1,48,17,29,26
81,9,0,8,2,21,3
5,232,2,191,0,56,1
7,17,11,10,7,24,11
1,48,16,37,35,17,46
1,4,7,85,15,32,7
0,61,2,92,1,36,0
53,60,1,94,2,58,1
55,46,29,23,31,90,27
70,7,7,125,26,76,36
55,60,1,82,3,224,3
10,66,1,46,1,58,1
0,56,1,5,1,54,0
181,2,21,57,127,16,38
87,26,14,36,21,47,29
5,95,1,1,3,98,2
2,12,0,15,0,114,0
20,149,7,236,13,3,12
1,7,26,47,37,0,41
0,1,19,9,21,27,8
0,120,2,17,3,56,3
174,85,0,72,1,50,2
82,21,25,13,36,122,24
4,274,12,72,7,59,35
2,29,1,20,0,192,5
4,89,1,10,0,8,1
1,22,0,9,25,1,1
278,4,13,61,29,2,40
34,1,22,196,3,142,33
2,81,2,5,0,9,2
0,106,2,68,1,3,0
1,125,11,192,16,1,8
0,6,23,17,2,39,41
9,14,4,3,4,246,22
54,133,1,172,45,10,2
84,81,1,42,3,15,1
90,6,21,14,1,109,21
6,138,8,8,23,4,40
2,96,2,39,12,163,4
13,30,0,30,1,73,2
2,3,1,12,2,12,0
17,154,11,3,0,124,35
3,20,23,139,12,102,31
2,141,1,187,20,120,2
62,90,0,18,12,33,0
169,33,14,11,9,26,9
12,15,21,121,51,17,43
0,61,5,7,5,34,19
163,7,2,18,1,52,1
79,2,0,89,3,84,1
12,8,3,5,21,35,22
9,73,28,0,24,64,38
16,91,7,146,3,91,5
67,6,2,6,8,13,1
5,30,1,5,17,6,1
0,38,9,246,13,76,37
0,43,22,11,6,56,33
188,20,10,0,0,7,4
60,35,1,87,0,4,1
4,27,1,52,8,16,6
2,8,13,48,46,22,46
0,2,19,8,3,76,21
26,149,5,40,42,4,2
159,41,8,10,4,2,0
16,66,5,88,16,34,18
4,8,3,5,5,70,38
1,4,34,158,1,9,5
1,1,7,17,2,56,1
0,262,15,2,1,9,0
179,11,32,55,26,18,33
10,1,29,60,8,75,32
59,40,26,10,6,4,1
5,6,40,24,2,2,0
1,198,4,84,4,141,5
2,15,10,12,38,43,42
89,17,13,31,32,3,20
21,64,28,19,3,0,3
1,9,31,26,0,45,0
1,15,10,76,6,13,21
93,56,112,12,11,25,38
6,28,6,6,14,2,5
22,31,53,32,10,7,1
3,19,93,5,5,69,1
24,19,5,57,18,49,31
54,42,33,20,5,9,32
3,47,27,76,1,65,3
4,2,102,11,1,16,0
27,77,8,1,0,5,9
41,22,1,20,28,67,45
6,81,63,31,20,32,23
2,11,28,44,1,63,3
1,77,136,3,2,19,1
7,15,5,3,1,9,14
65,26,121,88,30,76,39
73,26,12,45,13,8,4
12,67,94,4,9,14,2
9,17,19,3,9,60,1
10,11,87,102,3,23,33
2,3,80,15,47,1,35
34,29,45,17,4,139,2
3,15,22,30,1,17,1
0,3,0,12,3,7,4
123,35,85,59,2,22,39
74,2,117,10,22,1,20
9,41,76,10,22,121,0
1,7,18,31,2,18,1
15,54,3,40,0,62,15
11,42,134,67,7,27,41
33,19,7,45,63,21,5
1,1,6,68,8,14,1
46,85,4,7,5,21,0
39,38,79,13,1,36,32
8,2,5,22,5,3,37
8,0,12,7,15,44,2
1,58,91,6,2,5,1
1,15,14,38,2,40,4
1,22,33,29,18,25,40
72,86,45,3,25,54,28
17,27,103,18,21,10,3
2,23,17,89,4,12,0
18,2,6,19,0,44,15
21,1,0,10,18,2,38
2,83,134,5,39,113,4
42,18,174,13,9,37,1
9,2,8,69,4,17,1
2,1,9,7,1,47,29
51,67,2,2,34,72,34
3,6,34,4,19,13,4
9,2,85,95,1,2,1
4,55,98,14,4,195,1
2,22,6,48,1,41,44
22,29,33,7,8,11,22
13,13,18,43,14,141,2
56,23,28,5,4,20,2
4,0,22,62,1,79,15
10,184,9,59,22,195,45
4,40,24,20,52,54,8
2,4,12,6,7,17,1
2,12,51,4,2,1,1
27,4,2,10,1,24,26
56,141,10,54,22,34,42
7,28,30,8,13,66,3
2,169,11,119,9,17,1
0,11,3,26,2,45,3
24,2,91,10,0,17,42
47,1,25,41,34,119,28
9,4,10,2,26,114,1
2,0,1,28,5,11,1
10,15,5,60,2,26,15
29,4,102,26,0,63,48
3,70,10,1,45,12,6
84,7,35,1,33,1,1
10,1,27,39,2,159,1
79,35,6,44,22,20,27
6,45,72,56,26,1,40
1,14,3,4,9,167,5
33,9,9,53,13,70,1
22,1,14,5,0,49,3
104,115,60,79,35,4,44
4,30,27,77,34,25,29
1,3,7,21,13,213,2
39,29,28,10,1,19,0
45,6,24,23,2,1,15
2,57,43,2,16,20,49
0,29,3,3,34,70,7
2,55,1,89,10,22,0
21,53,32,14,1,2,1
32,4,17,2,10,10,23
3,20,16,43,12,13,43
0,57,15,54,5,12,4
1,8,18,17,0,103,0
85,16,45,2,1,22,1
9,1,6,61,18,13,44
8,91,8,4,22,36,32
21,95,14,23,3,58,1
50,11,56,73,0,4,1
12,0,9,27,8,39,12
2,0,2,28,36,37,50
1,6,5,24,4,8,10
0,181,3,38,10,3,0
55,7,37,70,13,28,1
13,1,30,6,20,85,42
18,3,11,2,3,85,32
0,56,5,135,2,6,2
76,65,69,9,0,116,0
19,14,12,2,32,46,13
31,0,12,26,59,34,50
2,1,1,25,16,17,7
2,161,1,26,0,20,1
56,10,52,5,0,62,2
4,20,35,73,5,19,27
2,45,4,42,27,2,41
0,42,4,6,2,12,4
24,3,21,34,1,171,1
19,102,30,7,34,7,0
30,15,5,24,15,125,37
2,10,2,1,9,3,34
2,8,2,90,2,100,3
42,2,56,11,5,74,1
20,25,46,2,0,13,13
7,26,42,101,9,15,50
1,16,4,32,7,58,9
6,29,49,1,40,5,3
48,9,21,0,2,4,1
3,3,16,8,2,23,30
10,6,25,85,25,10,43
15,38,5,17,9,19,5
5,2,14,3,7,28,1
27,46,18,36,4,68,0
3,72,3,8,0,4,37
1,10,1,103,29,4,40
1,1,14,11,22,50,4
54,24,31,16,1,3,0
9,3,13,30,0,25,12
1,31,18,25,4,77,48
29,9,6,6,32,55,9
39,59,29,89,14,9,2
29,3,65,11,5,38,0
12,24,3,34,1,34,22
4,30,20,7,3,45,45
3,2,54,25,31,68,5
8,30,18,35,4,15,1
1,15,3,23,4,4,1
49,29,2,8,21,1,41
4,2,60,3,9,10,33
31,0,25,2,16,50,2
18,1,1,18,1,14,0
11,67,1,102,0,89,10
1,89,6,4,3,6,53
7,5,75,2,9,141,11
53,1,41,50,23,5,0
13,41,3,85,6,43,1
4,21,8,6,1,7,37
0,13,25,2,1,3,34
43,44,54,0,18,23,2
81,14,3,88,6,9,0
7,23,0,151,23,38,13
1,62,25,10,4,48,50
1,22,52,0,5,7,8
68,24,2,164,34,5,2
14,2,18,26,16,46,2
3,124,2,6,2,7,23
1,4,41,1,0,43,48
14,45,25,81,18,28,4
21,26,6,81,30,22,2
43,3,8,4,4,53,1
10,17,4,15,2,12,35
2,1,6,2,38,2,39
41,19,74,141,12,27,2
24,15,5,16,10,27,2
2,2,4,2,2,12,6
3,0,27,51,0,3,46
1,1,55,37,1,3,23
42,175,29,61,41,2,2
24,16,7,9,2,108,0
1,2,3,1,1,6,20
0,15,13,4,2,22,46
76,2,7,118,17,6,3
56,64,14,8,11,37,2
4,26,20,1,3,7,2
0,2,6,8,6,58,33
13,0,19,56,2,106,38
37,49,30,34,6,40,3
22,52,4,1,28,11,2
2,18,38,9,5,17,5
1,7,59,6,0,4,46
8,24,7,0,0,57,23
57,31,16,135,36,2,1
24,48,1,6,60,6,1
3,10,57,4,6,32,18
34,28,79,3,0,31,45
36,65,4,16,8,6,4
6,4,2,30,17,104,2
1,11,33,41,10,27,1
13,10,21,34,1,4,31
5,2,11,56,27,60,39
22,59,1,19,20,7,3
7,3,26,2,3,1,0
12,19,21,31,45,1,5
4,44,6,60,2,11,44
2,3,2,27,1,12,23
30,14,1,21,28,3,1
22,19,13,3,3,82,0
1,6,56,70,30,17,19
18,4,11,60,6,2,48
45,2,12,4,1,84,5
5,110,1,37,11,12,1
26,4,27,9,16,8,1
1,2,31,5,3,11,35
15,93,4,78,1,22,37
101,39,2,41,28,3,2
3,5,2,3,21,0,1
1,2,62,1,3,4,5
19,76,23,67,1,126,45
85,28,2,27,2,16,27
9,3,39,22,40,2,2
1,20,39,10,15,1,2
2,39,7,28,3,17,20
32,12,9,122,0,2,45
23,1,14,9,4,2,6
7,1,9,20,65,31,1
0,16,37,0,23,51,1
40,54,14,125,2,8,29
5,6,51,4,0,27,39
5,1,4,10,0,11,2
4,1,8,40,32,16,1
17,95,25,115,40,31,3
12,23,31,7,4,6,42
27,3,12,1,1,1,36
3,10,22,10,25,0,1
0,10,43,93,6,5,1
35,4,5,17,1,42,15
18,102,5,4,0,4,50
8,2,15,24,0,8,4
8,35,18,98,11,2,1
3,7,7,7,1,20,1
4,23,51,2,60,32,30
130,31,5,60,4,3,37
7,39,37,50,1,2,3
1,4,4,11,27,1,1
23,10,25,9,4,3,0
60,1,24,2,2,9,41
9,52,34,2,1,42,27
1,62,39,38,17,18,1
2,20,18,42,26,19,1
2,4,13,4,5,5,12
3,6,12,2,0,36,41
25,1,99,31,0,3,8
21,21,26,99,12,0,1
2,21,15,17,26,0,1
3,2,4,1,4,16,27
44,1,17,26,1,1,32
14,1,53,50,3,18,3
1,5,17,106,22,15,0
3,29,1,6,13,23,1
42,5,57,15,2,8,39
27,2,10,22,3,3,28
3,28,0,5,20,0,1
6,28,2,0,15,1,2
3,9,52,19,1,31,7
50,2,17,41,29,4,43
12,60,10,6,16,7,15
30,16,2,20,4,2,2
23,16,46,3,24,30,1
7,1,9,34,5,25,25
42,1,6,6,1,7,30
3,16,36,6,5,3,4
0,32,8,36,18,0,0
21,16,25,28,11,4,1
30,1,20,6,4,24,37
9,35,10,19,1,11,25
33,27,11,2,14,1,2
9,6,3,75,18,0,1
12,0,71,32,3,18,8
14,1,5,47,1,9,41
0,39,34,8,0,2,13
12,35,2,3,11,2,1
2,5,1,1,39,0,1
33,4,51,115,4,12,23
14,1,36,19,2,3,35
1,12,16,9,31,3,4
1,53,3,1,40,32,1
31,21,53,10,5,11,1
20,2,37,16,1,3,34
4,17,28,128,0,21,28
0,66,0,5,14,3,3
1,6,79,7,13,2,1
4,58,5,51,2,1,7
28,8,1,6,0,13,42
15,5,15,91,4,15,17
1,49,9,17,7,2,1
28,11,2,2,63,2,1
40,1,6,2,16,41,21
14,24,18,85,0,21,40
3,65,1,10,0,2,5
0,24,32,1,17,0,1
7,2,37,5,53,0,1
50,7,10,3,5,9,35
10,15,8,47,1,22,27
1,19,2,16,11,3,2
7,1,80,64,16,0,0
101,2,19,12,2,2,8
13,13,2,2,1,4,44
1,80,15,6,0,12,16
0,4,59,25,14,0,2
27,2,73,55,16,0,0
52,1,5,39,1,31,17
9,8,1,3,1,21,38
0,33,17,1,5,14,4
27,4,54,44,28,7,1
74,2,8,72,12,0,1
18,71,35,12,2,9,33
6,49,5,1,2,11,27
1,15,9,45,4,6,2
1,3,8,47,15,0,1
49,0,44,8,21,0,5
22,48,18,37,1,27,41
5,36,8,36,35,40,17
2,6,9,29,38,3,1
6,2,44,45,10,2,0
41,7,24,5,2,0,17
4,120,20,20,1,14,40
1,25,20,1,21,5,2
1,21,50,82,31,1,0
0,1,4,18,3,0,0
73,41,1,37,2,1,33
16,31,1,40,0,6,27
1,16,19,5,19,12,2
22,2,29,123,10,11,1
15,2,9,5,11,1,5
27,17,16,41,1,3,39
1,42,14,21,18,22,20
1,6,14,1,10,14,2
7,1,14,32,2,2,0
64,4,1,98,0,5,19
4,2,3,49,7,42,36
1,133,3,24,22,14,4
0,7,34,5,13,1,0
2,2,8,1,9,1,1
71,56,11,7,3,0,35
9,22,12,62,0,15,30
5,3,17,30,30,10,3
5,1,14,4,25,3,0
6,3,3,7,2,2,3
25,141,25,13,1,3,44
2,5,19,19,0,22,16
0,0,13,4,62,4,0
6,7,5,41,39,1,0
35,21,2,8,2,0,14
20,57,24,15,16,3,38
7,9,20,21,1,17,5
1,3,19,8,1,10,0
2,3,2,52,1,2,0
35,18,14,26,31,1,37
75,7,39,12,7,17,31
12,7,24,1,27,3,3
1,9,1,47,2,1,0
2,54,54,7,1,2,4
58,3,10,13,0,2,40
14,29,55,8,10,3,21
0,15,14,3,35,23,1
13,2,20,66,6,4,1
91,34,13,23,4,1,16
8,11,6,43,0,0,36
1,39,1,3,1,10,5
1,10,0,2,9,15,0
53,7,19,98,27,1,1
41,1,42,7,4,0,30
3,33,13,4,0,0,32
0,45,1,1,12,22,2
87,15,13,1,3,46,1
42,16,30,0,27,4,4
21,4,25,41,0,1,43
2,16,3,131,0,2,20
0,6,0,5,33,15,1
7,14,10,2,42,4,1
21,36,41,96,3,1,13
2,5,24,10,10,0,40
35,5,2,0,2,2,4
2,0,47,6,26,26,1
95,0,12,8,29,9,1
20,84,36,38,3,2,25
4,24,13,4,0,0,31
9,12,3,2,23,2,3
4,31,43,2,11,22,1
17,15,21,2,19,4,3
20,4,7,18,1,1,40
5,2,4,8,3,0,23
1,1,9,2,35,0,2
25,15,68,117,43,20,0
2,8,5,19,2,15,13
114,54,5,1,1,2,40
5,4,3,35,30,0,5
2,1,42,4,36,6,1
21,33,46,3,2,23,0
27,7,2,51,0,4,32
4,0,1,34,2,0,33
1,0,7,4,22,1,3
32,171,43,5,14,11,1
49,35,15,18,2,16,2
26,2,1,26,1,1,43
9,96,11,1,5,1,25
1,10,7,49,24,4,2
38,17,46,5,14,31,0
27,9,21,16,2,7,14
1,2,3,8,0,2,41
1,1,5,26,27,1,3
1,110,14,5,21,1,0
74,30,8,31,3,22,0
5,3,10,7,1,11,27
15,0,2,1,4,0,32
1,21,15,0,38,1,4
44,15,25,64,21,2,1
5,16,2,77,3,16,2
12,1,2,64,1,1,40
9,3,17,4,13,1,25
9,86,26,0,28,0,2
1,17,39,35,6,17,0
13,4,2,26,0,17,11
8,2,2,17,0,4,39
0,0,6,2,22,0,5
0,34,24,13,21,0,1
34,15,10,22,1,12,1
30,61,2,52,1,16,28
8,15,11,8,2,2,34
1,24,16,46,41,1,2
99,3,9,41,6,1,2
51,7,5,35,2,16,2
2,34,1,2,1,13,41
1,2,4,3,3,3,25
0,44,74,3,32,2,2
0,10,8,1,19,2,1
53,13,20,32,0,22,7
34,2,1,6,0,21,45
1,21,34,24,5,2,10
4,4,12,2,31,1,1
74,1,4,22,6,8,0
6,31,0,27,3,19,24
1,63,4,25,0,4,35
2,7,35,1,5,0,4
10,57,9,10,32,1,1
16,4,1,13,12,5,1
37,33,6,10,1,15,41
1,3,17,1,1,4,28
0,32,16,19,6,0,2
1,4,39,45,30,1,1
6,0,7,44,6,20,12
82,1,3,2,2,13,39
12,25,39,16,2,1,9
15,46,5,6,25,2,2
3,8,29,4,16,1,0
39,1,15,0,3,21,23
7,3,1,32,1,12,36
2,72,27,7,0,2,4
17,3,13,53,19,1,0
10,1,26,6,22,2,1
35,66,1,2,1,23,35
3,29,25,4,1,7,26
8,3,26,21,6,3,1
30,3,10,9,35,1,2
49,1,16,2,18,2,9
3,1,2,0,1,25,38
1,63,34,0,0,9,13
7,32,11,35,19,1,2
8,3,0,12,21,0,2
13,2,7,2,2,2,25
7,4,32,9,1,18,39
1,40,3,12,2,8,5
9,10,3,6,16,1,0
71,13,1,38,23,1,0
5,2,9,6,2,3,35
6,5,22,1,1,36,28
5,32,32,1,5,6,2
46,7,1,1,39,1,2
73,1,1,4,8,1,10
4,1,37,15,1,1,41
1,30,8,12,1,25,9
71,16,13,17,12,9,0
28,4,6,1,31,1,1
34,2,3,1,5,1,21
4,0,26,2,0,3,36
9,85,46,5,0,2,4
61,77,8,23,24,3,0
6,4,22,3,34,3,1
45,10,8,0,4,0,38
3,107,10,1,0,1,27
35,8,25,17,1,14,3
65,2,3,14,33,12,1
12,2,1,8,14,1,10
0,17,32,2,1,0,37
1,19,37,1,0,4,7
16,9,7,19,7,25,0
62,3,5,13,35,11,1
9,1,1,4,9,1,27
0,34,2,2,2,1,35
0,28,63,11,2,4,2
30,15,17,15,8,3,0
20,0,1,2,47,1,1
4,1,7,1,5,1,34
1,1,2,0,1,5,23
16,47,48,8,1,13,1
47,8,4,15,9,18,1
6,0,0,5,30,3,10
1,57,23,1,11,0,38
18,30,35,0,1,1,9
2,4,45,2,1,8,1
2,0,8,9,14,18,1
48,23,17,8,23,4,19
8,32,15,2,2,1,37
0,56,9,1,1,0,3
8,3,3,1,2,6,0
27,3,0,12,27,23,1
3,2,61,16,23,4,34
64,61,7,2,3,0,26
5,5,58,0,1,0,2
22,6,8,1,5,13,1
38,1,0,17,28,15,5
4,1,2,13,9,3,43
1,30,74,1,2,1,23
102,22,15,1,0,1,0
29,3,3,9,5,14,2
1,0,13,33,29,10,17
2,42,51,5,13,1,36
1,48,10,2,2,1,4
60,8,4,1,2,1,2
14,2,4,2,16,14,0
0,0,40,9,23,13,31
57,3,6,11,2,2,28
14,60,32,1,0,1,2
13,17,10,1,0,7,1
3,0,1,5,35,41,6
0,5,53,33,29,5,43
2,32,52,3,2,2,20
13,37,4,3,0,2,0
5,2,0,2,7,6,1
50,2,12,11,31,19,16
2,1,68,29,13,6,39
35,36,10,1,1,2,5
70,24,3,1,1,1,1
5,1,8,1,14,8,0
2,1,36,16,36,21,32
0,7,9,8,4,6,33
25,29,2,3,1,1,2
25,12,23,1,0,0,0
14,2,2,1,24,6,4
1,0,16,17,18,21,40
1,29,6,9,2,2,21
66,24,2,3,0,0,2
28,3,16,1,7,0,1
1,0,5,3,35,16,11
22,0,123,30,12,15,39
20,20,6,9,1,5,4
11,8,2,2,0,0,0
8,3,1,0,10,1,0
0,0,8,1,29,13,30
38,3,89,25,8,7,35
28,35,5,16,2,1,3
23,23,2,2,1,1,0
2,2,2,0,24,0,3
33,0,38,4,21,10,42
28,28,30,22,2,9,19
61,28,7,5,2,6,2
4,10,5,1,6,1,2
1,0,34,1,28,1,15
15,5,49,0,13,11,39
76,39,6,22,1,13,5
8,16,2,7,1,2,1
27,1,0,0,13,1,2
2,1,86,0,35,1,35
28,5,13,3,4,10,28
15,18,3,13,1,13,3
19,12,1,10,1,2,1
2,1,11,0,25,2,3
48,0,30,0,21,5,42
3,26,24,5,3,31,25
5,16,2,22,0,5,1
2,2,0,4,5,1,1
7,2,51,3,29,1,15
24,4,81,1,19,7,37
4,45,4,10,3,21,6
1,13,3,25,0,2,1
11,2,2,3,12,2,0
62,1,30,1,28,0,28
13,16,47,0,3,11,30
15,16,2,11,1,15,2
1,5,4,20,0,2,1
7,0,24,3,15,0,2
85,0,33,2,22,1,39
13,18,4,3,2,13,24
5,27,2,22,2,11,2
0,3,3,10,10,0,0
39,0,22,1,32,1,14
18,1,14,2,6,2,41
0,40,2,1,2,16,6
24,19,1,21,1,10,2
0,1,2,5,13,1,0
51,1,18,0,28,2,27
45,5,9,0,4,20,35
4,30,1,15,2,16,3
1,11,0,15,3,1,0
0,1,2,2,25,2,2
53,0,0,1,24,1,40
31,17,26,2,2,16,27
2,25,20,11,2,15,1
1,2,2,22,2,2,1
42,1,1,2,29,0,13
43,1,3,1,13,1,40
5,30,24,11,1,22,6
0,25,62,19,1,7,2
15,2,1,3,14,2,1
60,0,3,0,32,0,28
17,9,61,1,2,1,30
1,37,10,11,0,22,3
10,6,4,23,0,6,1
73,2,0,7,26,2,2
9,1,33,1,29,0,38
5,12,61,0,3,1,24
1,33,13,22,1,14,2
1,5,2,11,4,18,2
10,1,19,3,28,1,11
54,0,14,3,11,1,38
5,24,0,2,0,8,6
2,20,1,18,2,20,1
8,2,1,10,13,4,1
29,0,23,2,32,2,28
3,1,3,0,4,0,36
1,34,15,11,1,6,4
0,15,38,15,0,16,1
2,2,10,3,20,3,2
38,0,2,2,23,2,36
9,12,0,1,3,1,25
2,25,2,21,0,13,2
0,6,41,12,0,18,1
7,1,16,1,36,3,11
27,0,21,1,9,1,40
7,20,1,5,2,1,6
1,21,1,33,1,19,1
1,3,8,6,2,27,1
9,1,75,2,31,4,25
29,2,25,1,18,3,36
11,35,1,0,2,2,5
1,20,0,24,0,17,2
1,1,18,4,19,9,1
9,1,31,0,28,2,38
30,12,6,1,3,2,31
10,23,2,5,0,1,2
1,6,1,21,0,21,1
2,2,18,5,21,13,10
22,1,43,3,25,2,41
23,18,9,1,3,0,7
2,24,1,11,1,9,1
1,3,35,12,3,24,0
1,1,26,7,33,5,27
32,1,36,2,11,0,37
10,24,5,1,1,2,3
2,21,0,5,0,6,2
0,2,17,15,11,26,0
11,2,12,4,24,6,37
18,11,1,1,4,1,28
8,30,0,0,0,1,2
1,2,21,13,2,10,2
1,1,19,13,17,16,9
24,1,2,5,21,9,44
15,24,1,3,3,3,15
1,16,3,2,1,2,0
0,4,4,8,3,9,0
17,1,20,12,29,21,21
41,1,10,2,11,2,39
6,24,0,1,0,1,4
1,21,0,1,1,0,0
2,1,44,17,5,11,2
44,2,10,12,28,17,37
33,12,0,2,9,2,28
4,26,1,2,2,0,2
1,4,7,4,0,0,0
7,2,13,17,6,22,9
22,1,4,7,31,8,44
19,14,11,2,6,1,15
1,17,0,1,1,1,3
1,4,15,13,1,3,0
9,0,4,8,6,19,21
33,1,2,12,28,10,40
13,32,1,3,9,2,5
1,20,15,1,2,1,1
1,2,19,11,1,5,1
22,1,21,16,11,23,31
17,6,11,3,24,21,33
3,25,3,0,2,3,2
1,12,32,1,1,1,1
1,0,7,11,2,7,8
21,2,2,11,17,24,41
18,17,2,2,21,8,15
3,20,47,2,3,1,1
1,5,57,1,1,2,1
5,0,18,22,0,15,21
28,2,3,7,27,16,37
9,31,2,4,14,0,4
2,11,1,1,1,1,1
0,2,34,1,1,0,0
13,0,48,14,7,25,32
32,3,9,9,32,11,31
6,25,3,3,9,1,2
1,14,1,1,1,1,1
1,2,39,2,1,7,3
14,1,27,16,7,28,43
25,17,2,7,24,4,23
4,26,0,6,8,0,2
0,4,44,2,0,1,2
1,1,25,2,1,12,25
30,1,7,26,7,22,41
23,30,2,7,29,3,5
0,16,0,2,7,2,2
0,1,30,1,1,1,1
3,1,12,2,1,15,30
30,9,1,17,5,26,32
20,33,57,5,28,3,4
1,11,40,0,7,0,1
1,1,4,0,1,2,5
12,1,0,2,1,20,41
29,12,1,24,7,16,21
3,26,1,9,29,1,2
1,4,20,2,9,0,0
0,1,3,2,2,7,17
22,2,0,2,2,26,39
16,27,34,12,5,6,5
4,18,18,18,32,0,2
1,1,9,2,8,1,2
5,2,1,0,1,3,35
30,10,2,4,1,26,26
20,29,3,23,9,7,3
2,7,1,9,27,2,0
1,1,28,1,7,0,4
12,0,35,1,1,3,45
29,17,7,2,1,23,19
3,26,2,17,6,9,1
0,4,16,2,28,1,1
0,1,15,0,6,0,16
23,3,1,1,0,1,38
23,22,1,6,1,22,4
3,14,1,21,4,17,1
1,1,29,3,32,2,0
2,1,27,1,10,1,32
27,3,6,1,1,16,31
11,37,2,5,0,13,3
2,9,0,18,22,2,0
0,1,8,5,24,0,4
6,0,34,2,1,0,41
32,6,2,0,2,17,21
6,31,0,9,1,11,2
1,19,32,15,24,1,1
1,1,57,4,12,1,17
12,1,5,1,0,6,39
33,18,1,0,1,20,6
3,26,1,8,7,5,1
2,3,2,26,27,2,0
0,1,10,14,6,1,28
34,1,23,2,1,8,32
11,23,1,0,1,27,2
2,21,0,15,6,8,1
0,2,15,10,27,1,4
5,0,10,2,10,1,40
29,7,0,1,2,9,22
14,29,1,1,1,19,1
2,13,1,23,18,10,1
1,0,30,7,22,1,17
13,0,61,5,4,1,41
33,12,5,2,0,7,5
4,30,0,3,1,16,1
1,3,7,19,22,5,1
1,2,14,12,16,0,27
22,0,1,2,2,1,35
30,31,1,1,1,14,2
2,23,0,5,4,16,1
1,3,6,22,30,2,4
1,0,28,7,9,1,41
30,5,11,1,1,2,21
16,31,1,0,0,16,1
1,14,0,5,5,13,0
1,1,13,18,26,1,8
10,1,8,5,10,0,50
32,15,4,1,1,2,11
3,27,1,1,0,22,2
0,4,0,1,11,15,1
2,1,18,25,20,0,26
26,1,4,6,4,1,35
14,20,1,1,1,9,2
1,22,0,1,1,19,0
0,3,1,5,24,3,2
2,2,11,20,12,1,43
29,5,10,6,1,1,22
14,39,1,1,0,10,2
1,13,1,0,3,16,1
1,2,3,2,29,1,14
8,1,28,18,10,2,40
26,1,13,14,1,1,6
19,28,0,2,0,22,1
1,8,0,0,12,12,1
1,1,6,18,22,1,26
11,0,8,19,2,2,38
22,13,14,2,1,4,4
2,30,1,1,2,23,1
1,5,2,1,21,6,2
1,1,26,17,15,2,39
31,1,4,12,2,0,27
16,20,1,1,1,4,2
0,21,67,1,4,26,1
1,2,13,9,31,5,11
12,0,5,18,9,3,41
33,12,11,1,2,1,7
5,25,1,2,2,2,1
1,13,0,2,3,23,1
0,0,1,0,29,7,25
13,1,20,13,11,1,34
24,20,7,9,2,1,2
3,26,2,2,1,1,1
0,2,2,1,16,23,1
4,1,0,7,25,8,39
33,3,27,18,4,2,28
10,31,5,3,1,1,0
2,19,0,2,1,5,0
1,1,0,1,21,26,11
15,2,30,7,14,8,39
28,11,65,24,1,1,7
4,28,4,5,1,1,2
1,4,2,2,2,5,1
1,1,2,1,29,28,26
24,2,14,13,8,9,37
29,25,25,14,3,2,3
4,29,4,2,0,1,0
1,2,1,1,1,4,1
1,0,1,1,26,21,36
30,3,2,6,12,12,26
22,35,44,16,0,2,1
1,16,12,2,0,1,0
1,0,0,0,12,6,9
6,1,0,0,25,24,42
26,15,18,18,3,15,16
11,26,6,22,1,1,0
0,3,1,4,1,0,1
0,1,1,3,20,20,21
18,1,0,1,17,17,35
24,22,25,15,2,0,5
2,25,13,10,1,0,1
0,4,0,0,2,3,1
1,1,1,1,26,24,37
20,5,8,8,6,11,29
15,36,38,22,2,2,3
2,14,3,9,1,0,3
0,3,3,2,0,12,9
10,2,49,1,29,18,39
33,13,13,2,9,3,15
3,24,3,27,2,0,1
0,3,3,6,1,1,1
0,2,1,1,2,16,20
16,1,0,0,25,19,39
36,30,15,8,8,1,4
3,23,37,14,2,0,0
2,2,2,12,1,12,2
2,1,1,1,2,21,36
27,3,8,1,30,3,33
18,27,40,20,4,1,2
2,14,5,16,1,0,0
1,1,18,2,1,14,9
9,0,2,0,4,19,40
29,13,2,0,26,1,14
8,28,9,13,9,1,2
1,4,8,9,1,0,0
1,1,2,2,1,16,29
7,0,1,0,2,11,38
32,22,14,2,26,2,3
10,28,21,26,6,1,1
1,4,15,4,2,2,0
1,1,1,3,0,24,39
19,1,2,1,5,6,30
28,29,13,1,30,2,4
2,19,21,12,13,2,0
1,0,2,13,0,2,9
0,0,1,1,1,26,42
34,14,1,1,11,9,16
18,26,23,6,24,0,1
0,5,5,14,2,1,1
0,2,10,5,0,2,19
6,0,5,0,1,27,40
32,24,9,1,21,14,4
6,27,12,4,16,0,0
1,3,2,26,2,1,1
