HandOpen,HandClose,Wrist Flexion,Wrist Extension,Supination,Pronation,Rest
9,2,0,10,5,4,1
13,1,1,12,7,1,2
12,1,1,6,6,2,1
11,5,0,2,2,1,3
5,1,1,1,1,0,9
2,0,0,2,0,2,17
1,2,3,0,1,6,18
1,0,10,0,0,9,14
2,4,15,2,1,8,5
2,9,16,7,1,5,3
0,12,11,9,2,3,1
1,10,21,9,0,1,3
2,10,12,10,1,2,0
3,6,5,5,3,1,1
8,3,2,4,6,0,1
13,2,2,1,8,1,1
14,0,2,1,8,5,0
11,0,1,1,6,3,2
4,2,2,2,4,2,10
2,1,1,1,2,0,17
2,0,5,1,2,8,19
2,1,10,2,1,14,16
0,7,11,5,1,13,6
0,15,8,11,2,9,3
0,12,7,11,1,12,2
1,7,3,8,1,27,2
0,5,2,7,2,33,2
2,3,2,4,4,16,0
8,3,0,1,4,6,2
13,2,2,1,5,5,0
14,3,2,1,5,1,1
4,1,26,1,4,1,9
2,1,18,1,2,5,20
1,3,4,2,1,4,0
3,12,2,7,0,8,1
10,4,1,6,0,16,0
3,1,8,2,1,12,7
1,2,18,2,5,2,20
0,1,2,0,6,9,2
2,14,0,3,2,1,1
12,1,7,13,1,0,0
4,1,10,1,0,4,9
1,20,6,0,1,5,20
2,15,2,1,7,5,4
1,25,2,4,2,4,0
13,3,0,8,1,5,2
5,2,1,2,2,2,8
1,2,10,0,0,2,19
0,14,5,1,5,2,2
0,8,1,0,6,2,0
12,0,2,14,1,2,1
5,0,1,3,1,1,9
1,4,22,0,1,11,18
1,18,2,2,2,7,4
0,7,1,0,7,3,1
11,0,1,11,2,1,0
5,2,26,2,1,1,6
1,11,13,1,1,0,19
3,15,6,8,1,12,2
1,3,2,6,6,6,0
12,1,3,5,3,1,2
2,1,9,2,0,1,8
2,2,2,2,1,18,22
0,16,13,2,0,11,2
1,2,12,1,6,12,0
13,2,1,11,4,1,0
4,1,3,3,0,1,7
1,7,7,1,0,1,19
0,15,1,2,0,1,4
1,2,1,0,2,7,0
11,21,1,2,5,4,0
4,2,4,6,2,2,8
0,11,16,1,2,0,19
1,11,1,1,1,28,2
3,1,1,0,1,4,0
14,1,2,2,4,2,1
3,0,6,9,2,0,9
1,13,10,5,0,1,17
2,7,2,0,0,35,2
1,0,0,2,2,11,3
15,1,1,1,3,1,1
5,6,18,6,2,3,7
0,17,44,4,1,0,20
2,5,4,1,1,0,3
2,2,2,2,2,1,0
11,2,0,1,2,29,2
3,2,13,11,8,10,6
2,11,28,5,2,2,20
1,3,3,2,1,6,3
0,1,0,1,1,1,1
11,2,0,1,0,1,1
3,2,19,7,7,1,6
1,13,4,9,3,23,20
2,11,0,2,2,17,3
1,1,3,3,1,2,1
11,1,9,1,2,22,1
4,21,26,4,3,3,5
1,11,7,7,6,5,20
2,1,2,1,1,28,4
2,1,0,1,0,1,2
12,1,4,2,0,2,1
5,7,2,1,2,2,8
1,17,6,9,4,13,22
1,10,3,4,1,3,3
0,1,2,1,0,2,1
11,1,3,0,2,1,1
4,9,24,1,1,1,7
2,7,6,10,5,1,21
1,1,0,6,2,16,2
2,1,0,1,1,8,1
12,0,9,1,1,1,1
5,12,13,2,1,0,8
1,23,5,5,6,7,19
2,4,1,10,5,5,3
1,1,0,2,1,1,0
9,0,1,1,3,2,1
4,15,10,1,2,16,6
2,6,6,6,3,26,20
1,2,8,5,7,2,2
0,2,2,3,2,2,1
7,0,1,1,2,2,0
14,6,11,1,1,21,6
1,15,4,1,1,4,21
1,7,1,4,6,0,4
0,2,0,0,3,2,1
7,2,3,0,1,1,2
12,6,4,1,1,29,8
2,15,6,2,0,14,21
1,3,1,5,3,1,1
2,2,0,2,6,1,1
9,1,4,0,2,1,1
13,5,36,0,1,2,7
1,36,24,1,0,14,24
1,18,2,3,2,12,1
0,2,1,12,5,2,1
9,2,2,3,2,1,2
12,8,4,0,2,10,4
1,9,23,1,1,7,20
1,2,4,3,1,1,3
2,1,1,4,5,1,1
7,1,4,1,2,0,1
14,15,14,2,2,17,5
1,7,5,0,2,7,18
2,1,1,4,1,1,3
0,0,0,6,2,1,1
8,1,18,3,4,1,0
12,11,32,3,1,0,8
1,4,5,0,2,27,19
1,2,1,0,1,3,2
1,0,1,6,1,1,2
7,1,9,4,3,1,1
13,6,15,2,1,4,7
2,11,2,2,0,34,19
0,5,2,2,0,6,1
0,1,1,7,0,6,1
6,1,1,4,5,3,1
14,12,28,1,2,2,5
2,17,6,1,1,10,21
2,3,1,1,1,1,3
2,0,0,6,1,2,0
7,1,0,9,3,8,0
15,11,21,3,6,15,6
2,12,8,2,2,3,19
1,10,14,0,2,1,2
1,1,2,0,1,2,1
8,2,1,8,2,1,2
13,3,14,7,6,26,6
1,12,12,2,1,13,20
1,1,2,1,1,1,3
1,1,2,1,1,8,2
7,10,7,8,2,2,0
14,5,12,8,6,2,6
2,1,2,2,5,3,20
1,2,1,2,1,2,2
0,5,0,1,2,1,2
7,11,12,1,1,1,1
10,10,7,10,3,4,6
1,4,1,2,3,27,22
2,1,1,2,1,17,3
2,1,1,2,2,1,1
6,13,11,5,2,2,0
16,2,7,7,1,5,4
0,2,1,1,6,7,18
1,1,1,1,2,1,2
2,3,1,0,1,1,2
6,15,9,1,2,0,0
13,5,9,7,2,16,4
3,2,2,3,7,21,18
2,1,2,1,4,3,3
2,1,1,0,2,11,2
7,15,23,1,1,2,2
14,4,12,2,1,3,6
2,1,0,8,4,8,20
0,2,2,3,7,1,2
1,3,1,1,2,1,2
7,9,12,1,1,1,1
13,3,7,2,1,23,5
2,1,1,10,1,5,18
1,2,2,2,5,0,4
1,16,1,0,2,2,3
5,1,16,2,1,3,1
14,1,12,4,2,5,4
2,2,0,7,1,1,23
1,1,0,3,4,0,5
0,2,1,0,2,2,1
8,11,10,1,1,4,0
10,4,3,3,2,6,6
2,0,2,6,0,4,22
2,1,1,4,4,2,5
0,1,0,2,4,1,0
6,10,13,1,1,1,1
16,6,3,2,2,1,5
1,1,1,4,0,10,17
1,2,0,9,1,10,3
1,0,0,3,5,2,2
6,13,13,0,3,1,1
12,5,6,0,1,1,4
2,1,1,3,2,23,19
2,0,2,6,2,16,2
1,1,5,5,6,3,0
3,10,13,1,5,1,1
16,2,2,1,1,6,4
1,1,1,1,0,1,18
0,4,1,9,0,2,2
1,2,6,5,4,1,0
4,7,14,2,8,1,0
14,18,3,1,3,2,6
1,3,1,0,2,17,20
1,2,11,2,0,22,3
1,1,3,10,2,1,0
7,34,23,2,6,1,1
13,8,3,1,3,15,5
3,1,0,0,1,2,20
1,1,1,4,2,2,3
0,2,6,7,1,0,2
5,11,13,4,5,2,1
10,6,1,0,3,16,5
3,1,1,2,0,21,22
1,1,0,2,1,2,3
1,0,9,9,1,0,2
2,10,16,3,2,20,1
11,6,3,1,3,7,3
1,1,1,0,0,2,19
1,0,0,2,0,3,4
1,10,7,10,2,1,1
5,26,26,2,0,0,1
14,4,6,2,6,4,4
1,1,1,0,1,21,22
1,1,2,1,2,2,4
2,1,4,10,0,0,2
4,13,14,4,1,2,0
15,3,2,1,2,1,3
3,1,1,2,0,38,18
1,2,1,0,4,19,3
1,1,14,7,18,1,1
6,35,6,7,2,2,2
11,15,1,1,2,2,3
0,3,1,1,0,1,18
1,1,1,0,0,2,4
0,3,14,8,2,9,1
6,19,18,10,2,5,1
15,1,1,1,25,10,1
3,1,0,2,6,1,18
2,2,1,2,1,2,3
1,1,14,5,0,1,1
3,18,7,6,1,7,1
12,4,2,2,3,10,5
3,1,0,2,6,36,18
1,2,3,1,2,5,2
2,11,22,6,1,1,2
3,24,24,4,1,2,3
9,2,3,5,2,15,3
2,0,0,2,6,2,20
2,2,1,2,4,1,4
1,6,15,0,1,0,1
0,16,4,9,0,13,0
12,2,2,4,1,24,3
5,1,2,1,2,8,18
1,2,1,1,3,1,4
1,16,12,0,1,2,1
0,20,4,7,1,40,2
12,1,3,6,0,10,3
4,0,2,1,4,1,22
1,12,4,3,8,1,6
1,36,25,1,0,6,1
2,7,7,3,1,16,0
12,2,2,8,1,5,2
4,2,1,3,0,0,20
1,11,6,1,3,1,6
0,11,18,1,2,0,1
2,2,5,1,2,26,0
14,2,2,9,0,43,2
4,0,1,10,2,5,21
2,6,2,2,3,2,3
0,21,8,1,3,2,3
1,3,6,2,1,8,1
13,1,2,4,0,4,2
4,1,2,5,1,0,18
0,4,1,1,1,1,4
2,18,5,0,8,3,1
1,10,20,1,1,13,2
12,2,5,3,0,20,3
4,1,3,8,0,3,17
0,13,2,1,3,3,3
2,5,0,2,13,1,3
2,1,9,1,1,0,2
12,2,2,2,2,12,3
4,3,2,9,0,7,19
2,2,0,2,2,2,4
2,7,2,1,12,1,3
1,29,15,0,1,4,0
12,3,3,1,1,1,2
4,1,1,10,1,2,21
0,13,2,3,0,2,4
2,4,3,3,12,1,2
0,0,14,1,2,36,0
12,1,7,0,2,12,2
3,1,2,10,0,0,19
2,9,1,2,1,0,5
1,2,1,1,8,0,2
2,1,20,0,3,2,1
11,2,4,1,2,4,1
4,0,1,5,1,1,17
1,14,2,4,1,2,4
0,16,1,1,6,9,1
2,10,6,0,4,7,1
11,2,8,1,3,8,2
4,2,2,6,0,4,18
2,18,1,7,1,0,5
2,6,2,2,2,1,1
0,1,14,1,9,2,2
14,2,7,0,3,26,3
4,1,2,3,2,4,17
0,28,2,7,2,2,4
1,9,2,3,2,0,3
1,2,12,0,5,3,0
13,0,5,2,2,21,1
5,11,1,1,3,21,16
1,17,2,7,1,1,4
0,2,1,11,0,2,1
1,1,19,1,6,1,1
10,1,6,1,4,0,1
6,2,1,1,1,19,19
1,3,1,3,1,4,3
1,9,1,6,0,0,3
1,1,12,2,2,18,1
14,0,4,0,4,13,2
4,7,0,1,1,1,18
2,18,0,8,0,1,4
0,1,17,3,2,1,1
2,1,16,1,1,27,0
11,2,3,2,6,14,1
4,6,2,1,2,1,19
1,16,1,0,1,3,4
1,13,7,6,1,1,1
0,3,19,5,0,21,1
11,1,4,1,4,8,1
4,9,1,1,3,2,21
1,4,1,2,1,17,5
2,2,5,6,0,5,1
0,2,12,6,3,1,1
12,2,1,2,4,1,2
4,18,1,1,5,1,18
2,16,1,1,1,1,5
1,3,2,3,2,1,0
0,1,10,6,0,20,1
13,2,15,2,2,10,3
5,3,1,0,5,2,16
1,24,1,1,2,2,3
2,6,9,1,1,29,1
1,1,18,8,2,2,0
10,1,2,3,2,2,2
4,8,1,1,4,0,16
0,4,0,2,4,1,5
1,1,10,0,2,25,1
1,2,9,5,1,3,1
9,1,1,8,2,1,1
7,11,1,2,3,5,20
1,21,1,3,5,0,5
0,1,15,0,2,0,1
0,1,7,2,2,7,1
9,0,2,4,1,9,1
12,5,1,1,1,4,20
2,14,3,2,5,9,4
0,1,7,2,3,2,1
0,1,13,2,2,15,1
7,1,3,4,0,2,3
13,3,0,4,2,2,20
2,1,2,1,7,6,3
2,1,10,1,4,30,1
0,5,17,1,2,12,2
6,3,4,7,1,0,1
14,2,2,4,0,1,19
2,10,2,2,1,2,6
0,10,11,1,5,1,0
2,2,4,0,3,37,1
8,0,3,5,1,14,2
13,2,2,6,1,2,18
2,1,2,1,1,2,6
2,24,16,0,8,3,1
1,13,6,1,5,2,1
9,2,1,0,1,8,1
11,8,2,3,0,1,16
1,12,3,4,2,2,4
1,1,15,2,2,14,2
2,0,6,1,8,8,1
8,2,1,2,1,2,1
14,10,1,1,0,0,18
1,8,1,5,1,1,6
0,3,11,1,0,31,1
1,2,6,0,4,1,1
9,3,2,2,1,0,1
15,7,2,5,2,4,18
1,27,1,4,1,1,6
2,8,10,1,1,17,0
1,1,5,1,4,34,0
11,0,1,1,2,3,2
7,10,0,0,1,1,19
1,2,0,6,1,2,5
2,1,15,7,1,42,0
1,1,10,2,2,14,1
7,2,2,1,6,1,0
13,4,0,0,1,2,19
3,10,4,6,1,2,5
2,3,12,8,1,3,2
0,2,6,3,0,8,2
6,1,2,1,5,4,1
13,2,1,1,2,2,18
4,17,9,6,2,23,5
0,8,20,10,1,31,0
2,1,3,3,1,2,1
7,2,1,0,5,1,2
15,15,6,1,3,7,17
1,10,8,1,0,31,4
0,2,25,6,2,6,1
1,0,4,1,1,2,1
6,13,1,0,2,2,2
13,6,1,1,6,0,18
3,2,0,1,1,17,5
1,4,12,5,0,24,2
1,8,2,8,0,7,1
8,1,0,2,1,0,1
14,7,1,2,6,2,17
0,4,7,0,3,1,6
2,2,23,4,1,0,1
1,0,9,5,0,1,1
6,1,2,3,1,2,0
15,9,2,2,2,1,16
3,15,2,0,1,50,5
2,3,15,3,0,5,3
1,2,5,5,0,10,1
5,1,1,1,0,7,1
15,23,0,1,3,1,17
2,10,2,1,5,1,5
1,3,19,2,1,2,2
2,2,7,7,1,1,1
5,1,2,6,0,0,1
13,7,1,2,1,0,20
1,4,0,1,4,41,5
2,2,10,1,3,21,2
1,0,11,3,1,6,1
6,0,2,3,2,1,2
12,7,0,3,0,2,16
2,2,8,1,4,13,6
0,1,15,1,2,4,0
0,1,2,5,1,1,0
6,7,1,4,1,3,2
12,4,1,1,1,1,17
1,15,7,1,2,0,6
1,4,18,2,5,14,3
1,1,4,1,1,3,1
5,2,1,6,0,9,1
11,4,0,7,3,1,18
1,18,3,1,1,2,7
0,1,23,2,4,3,1
1,2,9,0,2,3,0
4,0,2,5,1,2,3
14,3,1,8,2,8,17
1,9,5,2,3,9,5
1,6,16,3,4,6,3
1,3,2,1,4,2,2
4,0,1,1,2,1,2
13,6,4,4,1,0,17
1,24,11,3,0,2,6
2,3,13,1,2,4,1
0,1,2,12,4,12,1
6,1,0,8,1,3,0
13,15,0,3,0,1,16
2,32,5,2,1,1,5
1,3,8,1,1,43,2
2,2,8,0,4,29,1
6,1,1,2,3,3,0
14,2,1,13,2,1,16
2,20,5,1,0,0,5
0,9,24,1,0,4,1
2,2,4,23,4,3,0
4,1,1,20,3,11,1
14,2,1,2,0,2,19
3,12,8,1,2,1,5
0,2,14,5,0,2,1
1,1,1,1,3,2,0
6,2,3,2,4,6,2
15,24,0,6,1,19,16
3,6,6,2,0,1,7
1,0,25,1,0,3,1
1,0,2,1,3,25,2
5,6,0,0,6,5,2
14,27,0,5,4,1,18
2,12,9,2,1,6,6
1,1,34,1,0,5,1
2,1,7,0,1,1,0
6,2,1,2,4,22,1
11,12,0,2,7,4,16
1,9,15,6,1,2,8
1,3,14,2,3,6,1
2,0,1,1,1,3,1
7,0,1,1,1,0,1
12,5,0,1,6,0,17
2,8,9,0,1,1,8
0,6,15,18,1,17,1
0,2,2,48,1,5,1
4,3,0,5,0,1,2
9,1,2,20,4,24,17
3,3,11,27,2,48,7
1,1,13,32,1,5,1
2,7,1,44,0,1,2
2,10,0,10,0,0,0
15,2,1,0,1,7,17
2,13,16,63,3,6,8
2,2,13,17,1,6,1
0,1,2,9,1,11,1
1,1,0,9,2,3,2
11,3,4,2,1,1,16
2,21,18,1,4,2,7
1,4,3,1,1,8,3
2,1,1,2,1,3,2
2,4,0,2,1,3,1
11,16,1,3,1,66,13
3,4,16,7,4,25,6
1,0,1,3,2,2,1
2,5,2,1,1,0,0
0,2,1,1,0,1,1
14,0,9,2,1,4,19
4,18,12,0,4,2,5
2,7,1,1,3,8,1
1,1,1,81,2,6,2
1,4,2,195,1,2,1
14,5,2,19,0,2,15
5,10,16,5,1,2,5
2,1,4,1,6,31,2
1,2,2,160,3,4,0
1,3,0,34,1,23,1
12,16,10,2,0,3,15
3,6,15,67,2,0,7
2,2,1,19,5,2,2
1,3,1,5,3,1,1
1,7,0,37,1,7,2
13,3,7,72,1,2,16
5,26,16,10,2,1,6
2,4,6,2,3,22,1
0,1,1,1,3,54,0
0,2,2,110,2,22,2
14,9,4,138,2,3,16
4,36,13,10,2,15,8
1,4,2,45,0,58,1
0,2,0,10,1,4,2
2,2,2,1,0,0,0
14,11,10,1,2,9,16
6,7,8,0,0,23,7
2,13,3,4,0,26,2
1,3,2,239,5,4,1
0,2,2,14,1,1,0
13,1,8,2,3,10,15
3,1,18,105,1,5,9
1,1,1,232,2,21,2
0,2,1,21,3,15,2
1,2,1,5,5,27,2
14,14,7,256,1,33,17
3,24,14,13,0,4,9
1,6,2,2,1,60,1
1,1,2,15,2,32,1
2,2,2,176,5,37,2
12,8,14,6,2,2,15
5,10,18,0,1,49,8
3,2,2,354,2,57,2
1,2,1,25,2,5,2
2,0,1,2,5,19,1
10,7,10,9,2,27,15
3,29,5,194,0,4,8
2,3,1,64,1,5,1
1,2,1,4,0,33,1
2,2,0,39,3,13,2
13,7,9,145,5,41,16
4,7,5,6,1,59,9
2,2,1,86,0,9,2
0,3,0,64,1,0,1
3,40,1,194,1,61,1
13,5,7,8,6,27,14
5,4,15,118,4,12,8
2,3,4,4,3,124,2
0,0,2,34,1,49,0
1,1,1,98,0,17,1
12,31,11,182,6,61,15
5,13,5,39,5,6,7
1,1,2,3,0,10,2
1,0,0,184,0,22,1
1,0,1,150,1,31,0
13,6,2,6,3,10,13
5,12,13,1,5,43,10
2,4,1,29,2,56,1
0,0,1,99,0,5,2
0,1,0,22,1,28,1
11,3,3,185,1,43,16
4,19,15,30,4,39,3
2,2,2,51,1,160,2
1,0,0,3,1,6,0
2,7,0,100,2,15,2
14,6,11,9,0,27,18
5,11,6,208,3,131,4
1,1,2,64,4,34,1
1,6,0,50,2,37,2
1,1,2,63,2,105,3
9,22,11,17,2,62,20
7,16,6,39,5,97,4
1,4,3,4,5,31,2
0,1,2,125,1,62,0
1,0,1,63,1,6,4
6,5,6,10,0,17,18
13,9,18,135,2,2,5
2,4,3,48,6,0,2
2,1,1,78,4,124,1
1,6,2,5,2,33,1
7,17,5,74,2,68,18
12,7,14,51,1,6,4
2,1,3,49,4,11,1
1,1,0,19,2,317,0
2,5,2,9,0,44,1
10,12,5,64,0,3,19
10,19,10,37,1,29,6
1,5,0,14,1,95,1
1,1,2,50,3,64,0
2,1,0,27,3,52,2
13,7,6,14,2,126,19
5,10,14,12,0,123,5
1,9,3,43,1,10,1
0,4,2,17,1,73,2
1,1,1,64,0,8,1
13,11,1,60,1,18,17
4,3,14,5,1,114,6
0,1,2,4,0,120,2
2,2,1,5,7,88,0
2,1,1,3,7,113,2
10,12,8,93,2,110,19
5,9,11,45,0,11,3
2,3,3,6,1,372,1
1,2,1,53,2,17,1
1,11,2,4,3,81,3
12,10,6,187,3,32,13
5,5,26,20,1,151,3
0,1,4,5,3,64,1
2,2,0,32,0,6,0
1,0,0,3,4,121,3
12,2,1,1,5,50,17
8,1,12,66,1,93,5
2,1,7,30,2,6,1
1,2,1,30,2,106,1
1,30,0,18,3,29,1
12,22,10,161,5,97,19
5,3,10,8,2,13,4
0,1,1,106,2,112,2
2,2,1,31,1,220,1
0,2,1,66,5,46,0
12,14,8,10,10,44,19
5,8,7,35,1,59,4
1,1,2,35,1,5,2
1,1,1,5,1,59,0
2,2,2,18,2,296,1
9,12,9,37,9,73,17
11,55,14,5,6,153,7
2,5,1,26,1,37,1
1,2,1,14,2,202,2
2,2,1,22,0,22,2
10,20,5,37,4,223,17
4,37,13,7,4,15,5
1,7,1,62,2,27,0
1,2,1,51,1,177,1
0,16,1,3,3,145,2
9,39,3,30,19,56,20
11,3,13,55,8,61,4
3,2,8,158,1,22,2
0,0,1,96,2,2,1
1,19,2,25,1,128,2
12,6,7,2,4,147,18
4,0,16,41,4,29,6
1,1,1,22,2,63,3
0,2,1,40,1,41,1
1,9,4,2,1,14,0
12,14,8,6,3,59,18
5,2,15,87,4,5,5
1,0,2,34,2,2,2
1,13,1,4,1,28,1
0,13,0,21,0,133,2
11,2,10,103,1,19,15
5,2,12,10,8,160,8
1,7,2,2,3,14,2
0,6,1,30,1,1,1
0,0,2,19,1,3,3
10,5,12,27,1,126,17
8,56,8,2,5,53,6
2,8,1,115,3,9,0
0,2,1,4,1,56,0
0,0,2,186,2,18,2
10,2,7,44,0,73,20
6,22,12,124,4,73,7
2,25,2,13,5,21,1
2,123,0,80,3,3,1
1,8,2,41,1,107,3
10,1,11,1,2,55,18
6,90,7,151,0,21,7
1,203,3,18,7,10,3
1,11,1,29,3,2,1
1,91,3,14,2,59,1
10,160,14,17,2,117,16
6,8,5,7,1,24,6
1,4,2,24,6,71,1
0,58,0,44,2,152,2
1,10,1,5,0,66,2
11,2,10,2,1,9,17
5,1,10,67,1,2,6
2,41,1,18,3,106,1
1,17,1,13,10,76,1
0,10,2,8,2,20,2
10,6,13,16,0,7,18
5,2,3,39,2,34,7
2,1,1,19,3,13,2
1,0,2,40,7,41,0
2,2,2,9,2,34,2
12,0,8,7,1,44,18
5,2,6,54,2,240,4
1,2,1,6,1,12,1
2,77,2,2,7,2,2
0,223,1,141,2,189,1
0,11,11,34,1,22,17
0,12,5,11,2,4,5
8,1,1,52,2,29,1
0,35,1,9,3,45,1
1,54,1,38,6,6,2
17,12,4,34,1,30,14
67,2,4,77,1,1,6
12,6,1,10,0,2,2
1,0,1,45,0,19,1
1,2,2,15,5,120,2
9,1,3,9,2,18,18
3,92,7,78,1,18,6
0,40,30,36,0,114,2
1,14,18,24,5,22,2
1,80,2,95,3,27,1
5,16,2,17,3,60,19
13,28,1,21,1,18,6
0,64,7,2,3,53,0
1,44,40,1,2,3,1
1,10,5,18,2,78,1
9,1,0,13,4,35,17
12,0,38,3,3,6,7
2,37,26,14,0,53,2
0,8,2,93,1,18,1
1,83,2,22,1,26,1
7,8,22,6,5,23,18
9,3,2,9,0,7,6
3,121,2,17,0,43,3
2,34,49,15,1,50,2
0,2,76,5,2,18,1
1,158,92,19,7,41,17
14,43,5,69,2,28,6
13,4,1,6,2,7,0
13,2,3,4,1,52,0
21,2,42,7,0,46,1
13,10,65,63,5,3,17
1,23,31,33,4,5,7
2,4,2,46,3,6,2
2,2,2,12,0,50,1
2,0,0,5,4,31,1
2,159,0,1,2,24,19
1,18,1,96,2,3,8
1,6,110,7,2,24,2
7,1,10,57,1,7,1
2,7,1,17,0,51,1
11,31,88,7,2,58,18
150,56,42,2,5,10,6
33,38,3,6,4,18,1
3,4,32,31,2,1,2
0,1,28,33,3,94,2
8,25,2,2,0,21,18
2,9,1,50,4,27,8
1,1,128,21,6,2,1
169,34,39,10,1,94,0
15,36,4,6,1,10,0
1,4,1,2,1,0,17
7,2,51,54,1,19,8
90,0,79,26,4,16,1
88,1,6,7,1,1,1
6,112,2,2,1,128,2
1,13,88,44,2,64,18
26,1,15,62,1,5,7
32,17,12,8,5,12,3
31,122,15,2,2,2,2
14,14,2,35,1,6,1
9,1,2,6,0,35,16
6,231,5,2,0,34,7
8,68,0,109,6,3,3
33,10,28,5,7,95,1
54,2,100,32,1,30,1
4,2,7,6,2,4,16
1,131,3,9,1,175,8
10,104,52,70,4,9,2
3,18,26,6,7,1,0
43,24,2,31,1,7,1
17,16,1,26,1,77,15
34,2,89,4,0,7,8
2,1,90,1,1,31,3
22,0,5,22,7,4,1
225,127,87,38,7,44,2
10,89,10,59,2,2,16
59,10,8,3,1,132,8
23,2,115,12,1,99,1
5,1,25,44,2,8,0
78,25,2,9,8,26,2
25,189,61,26,1,61,18
4,36,47,8,1,5,9
2,20,4,39,0,63,1
2,7,11,19,3,10,2
77,272,56,28,8,1,1
22,22,6,27,1,56,16
30,2,139,26,1,26,6
1,228,12,3,0,72,2
2,33,8,19,1,5,1
216,119,2,11,4,1,1
33,12,19,2,5,22,15
3,170,35,50,1,148,10
2,24,35,9,1,16,1
38,3,41,4,0,3,2
8,25,76,1,4,19,4
12,1,8,8,4,20,21
3,103,12,12,1,45,4
3,53,139,52,1,11,1
13,4,14,9,2,33,0
30,37,15,68,1,45,2
1,7,1,59,6,3,19
110,203,16,7,1,105,4
3,61,90,22,2,9,1
29,5,109,13,1,1,1
29,1,6,18,1,21,2
2,37,1,36,6,28,21
1,3,8,5,6,120,6
27,8,130,3,1,17,1
4,400,37,21,2,7,2
8,17,2,91,2,5,4
4,15,2,46,5,117,21
1,34,103,5,6,15,7
18,82,39,1,1,1,2
24,5,2,42,1,2,1
4,16,4,45,0,22,3
1,2,57,49,2,99,19
0,51,163,13,6,8,5
84,3,25,21,5,13,2
80,155,23,8,1,2,0
6,285,16,3,1,11,1
2,26,1,17,1,45,17
72,4,9,2,5,78,6
26,247,101,17,4,24,2
1,9,12,21,1,15,1
1,61,21,17,2,26,2
13,237,108,9,1,1,21
78,32,154,45,2,28,5
11,4,4,4,8,113,1
24,87,0,7,2,5,2
9,45,33,95,0,73,3
3,3,221,10,1,40,19
13,14,172,2,1,4,7
2,82,15,17,6,3,1
36,26,2,29,4,0,1
10,58,66,3,1,39,3
1,36,154,50,0,24,19
10,24,6,14,1,124,6
93,2,4,15,5,24,2
14,29,2,14,4,3,1
4,19,45,5,2,14,3
2,52,54,1,1,17,20
5,131,68,72,2,35,5
1,19,7,23,3,2,2
1,126,0,3,7,3,0
28,84,73,3,3,14,1
29,8,18,9,0,12,20
76,41,78,79,1,32,4
9,12,6,7,2,9,0
3,9,132,4,8,28,1
2,2,33,9,3,74,2
0,12,72,7,1,37,20
51,109,13,31,2,3,5
46,55,33,12,0,59,2
21,107,20,13,9,106,2
59,16,55,15,11,13,2
42,249,18,21,2,3,18
7,32,3,57,1,48,5
2,77,0,26,1,3,1
1,9,116,6,5,35,2
28,25,212,35,6,156,3
14,20,8,13,2,7,21
43,121,4,3,2,3,5
4,8,25,65,1,6,2
1,6,10,51,2,38,0
1,1,27,3,7,24,0
56,0,20,3,1,19,17
5,67,40,0,1,5,5
13,41,3,32,1,62,0
2,3,12,12,1,37,2
4,184,26,17,7,49,0
57,14,51,3,2,5,20
59,18,72,47,1,1,7
10,225,6,12,1,3,1
50,46,76,11,1,1,0
9,4,101,0,7,94,3
7,2,6,56,5,98,20
3,34,2,19,1,42,7
4,98,42,29,2,6,3
6,8,23,5,1,1,0
2,3,11,20,1,2,1
63,1,62,5,4,50,20
5,0,70,36,6,60,7
94,115,46,61,2,7,1
28,43,65,7,1,57,1
4,2,6,5,2,112,1
50,74,1,32,2,5,21
7,9,6,22,2,88,5
17,2,86,2,2,17,1
56,0,24,14,1,4,1
7,96,2,2,1,99,2
17,9,41,84,2,15,21
24,15,40,10,0,10,5
26,75,32,6,1,72,1
4,6,31,1,2,7,1
33,34,6,21,0,14,3
51,4,14,22,0,5,19
3,6,43,1,110,39,6
17,65,15,18,95,28,2
42,6,7,19,25,3,2
52,153,1,10,8,44,3
5,10,3,29,11,139,20
67,17,122,55,361,13,5
21,217,20,17,22,89,2
21,22,6,3,70,14,2
31,8,34,8,110,18,2
42,152,54,12,6,53,19
37,20,8,3,2,34,7
10,3,2,106,1,65,1
1,76,14,3,0,40,0
57,8,2,58,6,20,2
8,2,44,16,0,20,17
14,2,57,12,1,8,5
8,2,4,6,48,1,1
26,97,1,3,235,95,1
1,10,6,29,21,47,0
50,8,49,26,5,7,18
36,2,5,5,5,41,6
21,131,10,27,0,16,2
1,83,3,12,127,2,1
51,15,18,0,182,2,1
40,13,38,31,7,67,19
24,104,10,50,10,31,7
3,3,18,19,25,2,3
109,2,5,18,4,10,2
4,43,2,26,145,50,1
4,89,2,13,32,5,18
30,67,11,1,117,0,5
5,16,33,1,6,25,1
46,1,19,21,2,21,0
14,2,6,50,1,3,1
138,3,6,3,0,138,19
11,23,38,97,95,7,5
1,1,19,22,48,3,1
85,30,2,6,49,1,1
18,58,2,31,86,107,2
1,83,65,19,6,77,18
0,5,5,8,142,5,7
77,31,13,13,15,2,2
30,60,2,25,210,2,1
23,10,6,32,30,166,1
4,133,6,27,2,15,17
2,27,22,4,129,13,7
3,65,9,10,15,45,1
87,18,6,12,17,9,0
8,7,2,10,120,14,0
63,2,3,48,23,81,17
24,35,69,13,4,4,6
28,10,31,38,3,1,2
2,123,3,4,32,120,0
15,10,0,34,8,21,1
25,9,10,12,2,17,17
10,16,44,48,5,32,6
2,127,3,6,0,4,0
84,7,2,12,41,14,2
10,0,3,33,111,50,2
2,15,27,7,8,72,16
72,143,36,10,5,6,7
15,14,6,44,1,2,2
13,2,2,23,1,8,1
1,153,32,13,8,5,1
99,20,34,1,2,113,17
18,43,10,3,28,12,9
2,3,26,7,23,2,2
1,138,3,30,2,16,0
94,15,2,3,46,22,1
46,109,1,1,34,8,17
2,36,29,110,4,3,7
1,122,13,48,33,59,1
30,6,81,16,7,5,1
55,0,7,1,25,5,1
7,226,1,22,6,34,15
2,15,1,14,1,7,5
5,22,1,26,3,4,1
20,1,1,111,1,14,1
65,4,63,3,0,4,1
9,2,24,11,44,40,17
8,182,4,11,10,2,6
2,6,1,6,9,18,1
1,2,9,24,2,73,0
71,1,32,30,101,42,0
7,20,5,9,5,55,15
64,38,2,2,1,23,8
15,39,7,2,1,8,3
22,6,1,56,50,2,1
32,54,42,8,21,132,0
5,4,2,34,3,9,16
2,78,25,42,39,92,7
41,6,11,10,36,56,1
10,4,25,3,13,7,0
30,74,8,34,15,1,2
10,80,1,8,17,30,16
2,11,37,2,6,6,7
23,2,15,50,2,17,2
9,106,30,37,119,32,0
1,20,3,6,11,37,0
51,3,3,9,14,1,15
10,41,1,58,4,88,7
3,26,4,6,27,212,2
9,9,2,3,1,8,1
10,1,42,6,3,9,1
53,16,26,35,70,10,17
15,71,1,3,7,22,7
2,6,10,1,4,69,0
0,4,6,0,1,5,0
73,4,2,23,5,1,0
17,87,13,2,18,1,18
2,7,6,53,9,37,8
4,102,2,5,7,55,3
24,9,9,41,5,6,2
11,2,8,9,50,3,0
23,48,2,15,18,20,18
1,18,0,2,3,10,8
9,2,14,34,1,3,2
62,8,35,45,0,0,1
15,62,8,7,56,12,2
1,32,2,42,52,36,18
2,4,18,4,5,10,8
1,84,26,6,13,4,1
74,10,3,42,1,66,2
20,267,1,7,13,7,0
3,12,6,2,16,4,17
66,22,14,1,7,14,6
13,35,28,5,1,15,2
4,28,2,32,7,52,0
31,14,5,2,30,10,0
1,6,36,21,6,1,16
5,1,19,8,15,13,8
48,27,4,20,3,48,1
34,8,1,10,26,7,0
3,2,2,24,35,39,1
5,2,5,1,6,2,17
11,19,33,109,17,2,9
28,29,31,4,3,22,1
20,66,2,15,0,39,0
2,16,1,13,50,16,0
17,9,15,1,9,1,14
14,17,36,85,2,63,10
46,19,6,15,59,6,1
6,4,2,6,5,0,2
13,2,17,9,63,65,2
14,98,12,8,31,11,18
10,16,5,15,41,26,4
1,9,2,11,3,6,2
1,6,3,18,7,2,0
58,62,8,6,5,85,1
15,16,28,23,19,52,19
10,52,3,25,1,9,5
51,4,10,22,6,1,0
7,21,1,3,49,112,2
42,16,8,14,3,22,2
6,23,42,19,26,33,19
1,2,4,7,9,22,4
30,142,1,14,4,3,1
42,24,7,8,4,23,0
9,5,15,16,49,17,4
2,1,10,1,4,37,20
11,0,2,29,1,4,6
46,85,14,5,17,2,0
9,58,13,29,14,47,1
2,5,9,5,6,6,3
82,6,2,10,31,51,22
17,1,1,16,12,88,3
16,20,10,13,2,10,2
5,5,17,60,11,49,2
1,99,5,7,4,8,2
46,80,5,1,26,28,19
22,5,1,76,25,6,5
2,13,4,53,6,78,1
3,5,25,13,3,6,0
34,62,6,3,2,3,2
9,7,1,27,46,29,20
12,6,16,19,10,3,5
39,33,2,7,11,55,2
3,3,18,3,8,4,0
11,8,9,1,2,65,1
24,5,2,49,43,66,20
6,2,0,9,25,40,5
1,31,29,3,2,3,2
7,64,13,21,13,8,2
1,74,12,6,37,17,2
2,28,6,88,5,13,20
2,14,1,42,3,19,4
22,1,11,5,9,4,1
9,0,31,0,11,18,1
63,221,3,30,16,19,1
5,22,4,8,14,15,20
36,20,4,26,7,17,6
4,6,5,3,12,6,1
15,2,27,2,3,29,1
4,6,2,30,80,3,2
29,4,1,17,7,31,20
4,4,1,6,2,3,6
28,67,11,1,1,59,3
1,5,47,44,36,52,1
17,7,14,28,29,6,2
23,21,2,14,3,22,22
2,30,27,1,25,5,4
0,6,30,1,10,0,1
8,1,8,28,47,14,1
7,5,1,14,5,18,0
11,64,2,1,7,13,19
1,4,2,7,0,4,5
1,25,21,15,14,6,1
35,34,11,57,18,33,1
5,4,2,8,26,14,1
6,13,10,2,3,1,19
101,91,1,8,4,20,4
6,6,1,2,23,37,1
2,14,7,86,10,12,1
5,79,8,8,3,21,0
3,27,7,3,48,45,16
9,2,11,10,9,105,6
2,5,4,36,14,3,2
9,93,3,26,2,13,1
6,24,9,2,3,32,1
10,1,2,1,32,1,19
21,93,3,68,20,2,4
17,58,8,29,1,36,2
35,7,14,4,15,21,1
10,2,11,9,16,21,2
10,0,1,1,80,1,20
24,53,14,1,10,42,6
18,32,9,13,7,23,2
6,2,2,62,47,30,1
1,7,3,20,9,9,2
9,24,17,17,13,38,19
46,3,6,1,15,9,6
51,215,1,15,4,16,1
6,14,0,4,55,26,1
25,223,3,5,4,34,0
2,11,17,31,47,17,18
6,21,14,12,17,5,5
26,1,2,60,8,8,1
5,51,1,14,0,3,1
5,24,4,26,50,10,2
16,1,13,7,7,18,19
26,222,6,9,1,64,7
2,28,7,5,20,21,2
4,3,1,34,2,6,1
4,7,8,36,34,34,1
2,33,6,14,9,38,17
13,12,25,13,38,15,5
56,5,5,4,4,1,2
5,41,2,21,3,1,2
1,64,3,13,28,2,2
14,5,13,17,13,54,17
16,108,8,1,4,6,6
23,13,2,2,0,2,0
5,15,2,19,43,79,0
1,17,12,14,6,10,0
0,83,16,11,7,2,17
20,32,8,15,9,0,5
26,11,1,21,69,7,1
10,1,1,3,21,42,1
4,0,5,8,3,7,3
26,6,19,114,8,83,19
47,12,31,9,3,23,6
18,1,5,6,20,6,1
15,64,6,1,54,25,0
42,23,1,1,4,2,1
12,17,43,31,1,57,17
13,30,4,17,0,14,7
34,7,5,2,2,13,1
22,2,0,10,84,1,1
10,23,35,14,13,1,1
5,23,31,14,5,40,19
2,43,3,1,11,6,4
15,3,1,14,4,23,0
24,2,18,31,29,56,2
2,55,10,3,15,4,1
9,6,0,12,11,10,15
3,1,16,2,4,16,3
2,148,0,3,2,0,0
12,6,11,32,65,23,2
31,119,16,2,9,27,2
3,6,2,33,4,3,18
2,2,3,2,1,0,7
63,27,14,5,1,85,0
6,49,28,9,1,11,0
1,4,13,46,33,80,1
3,3,1,4,6,49,19
17,43,2,18,25,4,7
30,20,7,14,46,31,1
3,46,46,23,6,46,0
6,13,10,46,3,28,1
1,31,2,14,7,4,16
28,1,5,15,5,7,5
30,36,58,2,6,32,1
10,39,22,20,6,6,1
3,22,9,14,7,51,2
1,8,3,20,3,43,18
16,168,4,8,2,19,6
30,11,31,5,0,5,2
4,0,9,2,1,2,1
0,6,27,0,25,33,1
7,18,4,56,24,53,13
7,48,28,8,2,29,6
49,4,24,40,8,5,1
4,62,3,12,2,3,0
1,37,1,3,1,1,1
1,11,1,0,5,72,17
2,1,3,22,0,65,6
14,44,13,19,1,5,2
9,27,39,10,68,1,0
8,21,4,4,9,0,1
13,9,14,1,2,53,19
12,2,29,53,2,15,7
7,1,9,9,55,21,1
1,17,5,16,17,15,0
6,20,2,7,6,22,0
46,28,24,14,1,66,18
30,10,8,2,6,6,7
4,35,3,24,13,7,0
2,10,1,2,1,3,0
1,2,6,6,8,0,0
73,63,8,4,19,68,16
8,40,23,84,14,8,8
8,14,42,6,3,4,1
24,7,5,12,0,1,0
15,11,3,9,18,62,2
2,0,15,28,50,4,17
17,122,51,9,16,4,6
1,76,6,24,2,5,1
1,9,2,9,1,14,1
8,2,1,9,22,22,0
25,1,20,34,3,1,17
4,6,10,9,1,25,7
11,27,1,29,1,25,1
28,1,2,2,3,68,0
40,67,14,2,4,10,2
14,79,22,42,2,2,17
3,7,2,26,10,1,9
12,1,2,7,1,18,0
3,1,1,7,1,10,1
15,129,7,39,5,11,1
2,9,9,15,21,1,15
4,4,2,4,21,16,9
1,1,13,2,9,3,1
25,1,6,6,1,0,1
56,0,10,6,9,47,2
7,14,5,37,4,59,15
1,6,1,12,12,5,6
5,0,2,2,4,8,2
52,50,25,31,3,2,0
6,38,2,37,2,1,0
7,8,16,7,18,2,18
17,11,2,1,14,38,7
3,178,1,3,2,7,2
11,6,12,1,1,1,0
28,35,2,49,14,15,2
3,7,6,5,11,2,17
41,2,2,9,3,10,8
22,1,15,74,1,0,3
6,20,6,20,10,2,1
2,20,4,3,2,88,0
2,5,1,26,10,29,17
47,31,13,18,16,4,6
18,40,3,3,24,110,2
2,22,2,19,11,6,3
5,2,17,0,8,0,0
58,90,17,41,1,2,15
7,10,2,27,15,1,8
6,3,1,49,30,12,2
9,2,10,4,9,1,1
1,2,20,17,3,1,1
1,70,3,14,2,18,14
39,4,1,50,8,38,9
41,47,4,56,2,4,2
6,5,7,15,29,2,2
4,16,16,11,12,1,0
6,50,8,1,10,16,14
1,5,1,43,2,16,9
17,1,1,35,9,1,4
9,45,28,3,16,1,1
4,59,43,1,1,18,1
1,5,6,17,1,127,15
15,23,2,8,26,13,9
28,25,4,13,2,3,1
5,5,26,78,18,0,0
1,14,3,11,23,1,1
16,8,1,2,2,1,16
9,13,5,2,2,16,9
15,3,3,15,19,2,3
8,1,26,11,7,1,1
44,39,9,11,9,13,1
5,6,1,9,4,13,14
1,113,4,2,11,2,10
0,6,6,1,4,1,2
4,35,2,17,2,6,0
5,3,6,18,26,97,2
5,17,5,2,35,9,18
14,6,2,3,5,2,3
3,36,2,18,3,3,2
2,4,17,16,1,47,0
1,87,7,13,2,4,2
74,18,13,5,7,2,19
11,8,2,4,4,13,2
4,2,2,3,1,57,2
1,2,3,1,8,13,1
0,33,2,5,0,1,2
26,112,6,100,1,2,20
10,14,1,5,51,1,6
22,1,9,20,6,2,1
1,6,11,40,5,1,0
2,23,25,23,1,2,2
61,2,5,14,3,32,19
10,2,1,6,21,15,5
15,7,13,2,27,12,1
6,42,4,2,7,2,2
1,3,16,3,7,17,1
1,111,3,5,10,63,20
13,7,4,4,20,25,4
4,127,20,68,1,3,2
2,81,11,13,7,1,2
13,16,1,2,1,1,2
43,3,1,2,49,0,19
5,0,21,1,9,5,5
1,32,24,14,2,1,1
2,16,5,16,38,1,1
13,30,9,5,27,1,3
5,3,2,2,8,1,18
3,125,10,10,2,1,5
16,9,45,10,0,4,0
6,51,6,1,1,0,1
5,6,25,1,76,0,1
5,9,6,43,26,0,18
6,3,9,10,1,0,6
27,48,14,16,1,24,1
2,30,5,3,15,6,1
33,3,1,8,24,1,2
2,5,19,5,10,2,20
1,21,9,2,3,0,5
55,6,9,9,4,2,2
20,8,3,1,2,3,0
13,21,6,1,40,0,3
0,64,0,28,9,1,20
0,4,6,9,13,2,6
32,1,9,1,23,10,1
71,3,1,2,4,2,1
5,72,34,8,20,0,2
3,5,10,46,3,0,16
30,94,7,4,1,10,6
24,17,9,1,1,19,3
5,3,6,0,21,3,1
11,14,10,1,6,1,1
3,1,0,13,57,1,20
56,103,4,4,4,2,4
27,28,11,3,23,2,2
10,32,6,3,4,1,1
1,2,7,1,6,0,1
12,1,12,10,2,22,17
8,15,1,3,3,19,5
2,57,1,1,2,63,2
11,3,1,1,9,5,1
28,2,5,0,41,2,1
7,97,15,11,15,0,19
2,9,13,1,1,1,6
1,3,4,3,14,59,1
1,2,1,1,14,65,2
48,58,21,2,6,4,1
26,5,22,4,13,1,18
7,41,8,6,17,3,5
1,12,3,1,2,8,1
0,25,12,0,1,2,1
5,20,33,0,61,0,1
11,8,10,3,9,0,17
42,3,2,10,18,4,6
8,0,1,3,2,8,2
1,42,2,2,18,6,2
0,18,11,1,43,1,2
32,3,31,5,4,1,18
11,2,3,17,1,1,4
2,29,1,11,20,21,1
7,30,13,1,3,12,1
42,16,11,0,10,1,1
31,1,1,10,9,1,17
3,5,2,4,36,5,6
1,160,4,4,3,6,0
1,9,16,1,1,2,0
2,3,28,0,14,34,0
22,2,3,5,15,22,17
3,18,2,5,44,4,4
1,6,1,12,7,6,3
20,83,18,1,2,1,1
11,6,15,1,8,0,0
2,74,3,4,102,2,15
2,139,1,8,7,23,4
36,5,2,2,2,14,2
17,77,11,1,6,2,1
18,6,6,4,2,1,1
1,3,2,2,30,1,18
1,2,2,10,4,25,5
1,1,3,4,1,13,2
3,27,20,0,27,2,1
0,4,3,5,49,6,2
82,5,1,12,4,1,18
23,60,1,9,2,0,7
2,4,36,1,39,1,2
15,171,12,16,21,18,0
3,75,2,3,2,9,1
6,6,1,6,3,3,16
67,2,0,17,0,18,5
14,7,84,6,5,2,2
2,23,11,2,5,0,1
1,4,3,2,22,1,1
0,2,0,2,7,16,18
1,15,2,7,1,9,8
1,3,77,3,0,1,2
4,31,27,1,6,2,0
2,3,1,1,57,2,1
2,1,0,5,14,10,15
3,1,11,18,4,11,6
1,107,42,4,3,2,1
18,40,4,1,36,0,0
3,5,1,2,7,1,1
2,1,131,6,3,12,18
0,1,14,9,1,17,5
2,18,2,5,4,2,0
7,9,2,2,0,0,0
5,4,35,0,6,20,0
0,1,12,6,4,13,17
16,49,5,8,2,2,7
10,3,4,10,0,0,2
12,25,35,1,40,11,2
1,24,3,2,29,31,1
8,18,1,1,6,29,16
24,13,0,18,6,3,6
10,2,21,5,3,3,1
5,15,37,1,0,44,1
1,37,53,3,0,4,2
1,3,4,1,62,1,14
2,6,38,4,9,0,6
15,12,10,5,2,0,2
19,2,2,1,43,2,2
1,12,25,1,8,16,3
2,89,9,1,69,8,19
0,20,11,6,18,2,7
16,22,2,13,11,1,2
4,8,1,2,20,1,1
0,75,46,1,11,3,3
2,6,50,0,1,3,20
1,147,5,8,1,2,6
14,17,0,6,30,2,0
5,1,1,7,7,0,1
0,1,91,3,59,3,1
2,5,21,3,6,4,15
0,2,3,1,13,0,6
20,34,6,10,1,1,2
5,11,14,3,0,39,1
2,4,3,2,39,4,2
1,1,2,1,11,1,17
2,1,59,4,12,0,7
12,1,6,8,2,4,2
6,79,3,2,5,46,2
2,24,11,2,6,6,2
1,1,6,1,5,1,15
2,0,2,2,4,2,8
16,90,26,18,12,1,2
4,42,52,4,3,0,1
4,5,4,1,2,1,2
1,54,24,0,3,22,14
8,4,3,1,9,6,8
63,4,2,8,27,10,1
10,2,2,4,3,1,0
0,34,2,0,1,2,1
23,6,19,1,0,10,16
18,60,14,0,25,2,9
5,5,15,14,4,1,3
5,3,0,4,4,7,0
2,10,10,1,1,4,1
1,9,1,2,7,28,16
7,11,0,1,31,3,7
17,13,27,10,17,1,1
1,16,23,4,2,2,2
1,1,2,1,1,3,0
2,1,0,4,17,10,15
9,21,2,0,2,3,8
16,25,34,6,5,1,1
2,6,22,8,43,1,1
1,1,2,10,6,1,0
1,3,1,1,6,9,16
2,14,3,0,2,18,7
16,9,18,3,13,1,2
3,1,1,9,1,10,0
0,2,1,2,3,1,1
0,0,1,1,1,3,18
7,20,23,1,14,1,8
13,7,90,10,2,1,2
1,4,7,4,1,3,0
1,1,1,3,30,3,1
0,6,1,1,14,11,14
3,11,16,0,3,1,8
12,10,10,5,4,2,2
1,3,2,11,24,1,1
0,0,6,3,6,4,1
1,3,1,2,12,7,15
11,18,2,0,2,5,8
12,5,1,6,14,1,3
1,2,17,19,3,1,1
0,2,3,3,2,0,1
2,2,2,0,20,1,16
11,13,6,1,20,38,10
7,7,4,5,2,82,1
1,1,2,7,2,15,2
2,1,1,4,11,20,4
8,1,6,2,19,10,20
6,21,2,0,12,0,6
8,4,1,0,23,0,1
1,0,1,7,41,9,0
2,1,40,13,3,32,2
1,1,7,2,4,2,18
7,15,9,0,9,5,4
11,6,10,1,2,40,0
1,2,2,9,33,33,1
1,0,0,9,3,7,4
1,1,1,2,5,9,22
3,20,13,1,6,2,6
14,5,6,1,3,0,2
1,0,2,6,20,1,1
1,1,0,10,16,4,3
0,2,4,1,12,2,17
11,13,17,1,2,1,5
12,5,12,1,4,1,3
1,1,2,3,4,3,2
2,1,0,10,0,5,0
0,1,46,2,3,4,19
12,33,20,1,10,1,5
13,4,3,2,1,2,1
2,3,2,5,27,1,0
1,1,2,12,6,4,2
1,3,19,3,1,6,19
16,16,9,2,30,2,3
11,8,1,1,4,2,3
1,2,0,4,1,1,1
2,0,1,11,9,8,2
7,1,8,1,2,13,18
10,16,14,1,4,2,5
1,5,2,0,59,1,0
0,2,2,4,8,1,1
10,1,1,14,2,1,0
9,1,6,3,1,6,20
2,20,9,1,2,4,6
2,5,2,0,19,0,2
0,2,3,4,14,1,0
2,0,4,10,19,0,3
9,3,3,1,20,2,17
9,16,9,3,11,9,4
3,6,5,0,2,19,3
1,2,2,4,4,3,2
0,0,2,10,6,9,2
2,3,12,2,18,4,19
12,14,21,1,15,15,4
1,3,1,2,4,12,0
2,0,2,9,1,2,2
0,1,1,24,28,7,0
4,6,10,2,5,22,19
13,17,11,2,2,5,5
3,2,1,0,16,0,0
0,0,3,9,3,2,1
1,1,0,14,13,19,2
5,0,10,1,29,18,18
10,10,21,0,5,1,5
10,4,4,2,2,1,1
1,2,1,8,2,11,2
1,1,1,6,1,2,0
9,4,15,5,0,0,19
22,6,5,1,45,21,6
1,16,1,2,4,1,1
0,2,1,3,32,1,0
2,0,2,11,11,5,1
14,2,19,3,3,4,19
11,17,6,2,15,2,5
5,7,1,2,2,1,2
1,2,1,6,1,5,0
0,1,2,9,2,4,0
2,2,18,3,22,10,16
10,12,9,1,7,3,4
3,6,3,1,1,1,2
2,2,0,1,21,2,2
0,0,1,10,1,15,2
7,1,16,5,4,11,18
26,16,8,1,5,4,5
2,6,1,2,5,1,0
2,2,1,2,6,3,2
1,2,2,19,1,1,3
17,2,14,3,1,0,19
14,15,4,3,9,11,6
1,6,2,1,12,5,0
1,2,1,0,4,2,1
2,0,1,7,2,13,1
6,4,14,14,26,37,19
4,12,5,2,12,4,6
2,19,1,2,6,2,1
2,2,0,0,2,3,0
0,0,2,9,9,25,1
9,10,18,6,11,5,16
18,17,7,4,1,1,5
3,3,1,1,0,0,0
1,2,1,1,1,1,0
0,1,1,10,0,0,1
9,5,14,6,21,1,19
6,13,7,2,3,9,6
2,2,1,1,1,4,1
2,0,1,1,1,1,1
1,1,1,9,2,25,2
7,11,15,7,18,4,20
15,10,8,2,4,1,5
3,2,2,2,2,1,1
2,0,2,0,1,1,0
2,2,1,2,13,8,0
4,13,14,11,10,7,18
8,6,6,1,4,1,6
2,1,2,2,2,0,0
2,0,1,0,3,0,2
1,2,2,5,1,1,1
9,13,17,10,6,35,18
18,6,11,2,7,70,6
2,2,2,2,3,7,2
1,2,0,1,2,1,3
1,1,2,1,2,2,1
3,12,16,11,7,3,18
15,4,3,5,10,1,6
3,0,0,3,15,1,0
1,1,1,1,2,1,1
1,3,6,5,3,5,1
2,18,16,18,7,9,18
13,4,3,2,4,1,7
6,0,1,0,1,0,2
2,1,2,0,0,2,0
1,5,3,4,10,0,1
1,16,17,9,17,19,18
12,3,3,4,4,4,5
5,0,1,2,2,4,0
2,2,1,1,20,2,2
1,6,6,0,22,3,1
3,11,17,14,4,7,17
17,10,6,4,9,3,7
2,2,1,1,17,0,1
1,1,1,1,3,1,0
1,4,6,1,3,1,2
5,18,7,5,6,3,17
14,3,8,9,2,0,6
1,0,2,2,6,1,3
2,1,0,2,22,5,1
2,2,1,1,22,1,2
2,20,13,5,9,7,16
8,3,8,11,39,22,7
5,2,3,2,4,18,2
1,2,1,1,2,1,0
1,3,1,3,7,0,0
2,18,14,6,31,5,19
13,3,7,8,9,3,9
10,2,2,3,6,1,2
1,2,1,2,28,0,2
2,8,0,2,1,2,2
2,14,11,0,11,37,18
14,2,8,15,20,29,7
3,2,2,4,6,3,2
1,2,1,2,11,1,1
1,6,2,1,6,1,1
3,18,15,10,6,7,17
14,2,5,7,8,6,9
4,1,1,1,6,2,2
2,1,0,1,7,0,0
1,4,1,0,14,1,2
1,15,14,9,19,6,16
15,1,8,1,8,63,7
4,0,1,10,4,8,2
1,1,2,1,8,2,1
2,5,0,1,39,2,0
0,16,14,1,3,6,15
8,3,7,8,2,10,8
12,0,2,3,21,5,1
0,2,2,1,5,2,2
0,1,1,1,6,0,2
1,12,17,1,1,1,15
17,4,3,9,9,7,7
4,2,0,2,74,2,2
0,0,2,2,10,0,0
2,6,1,1,2,0,2
1,12,12,2,13,0,15
15,3,11,10,26,2,7
5,0,2,6,7,4,2
2,0,0,2,11,3,0
0,1,2,1,4,1,0
1,14,12,2,10,0,15
15,4,5,8,5,29,7
4,2,2,10,3,27,0
1,0,0,3,32,4,1
1,2,5,3,3,1,2
2,18,17,1,1,3,18
20,3,4,7,13,19,9
4,0,2,6,56,3,1
2,0,0,3,5,2,1
2,6,1,3,2,1,2
2,7,17,2,1,11,18
9,7,6,2,2,3,9
9,1,2,12,6,0,3
2,0,1,8,7,8,1
1,3,3,1,5,1,1
0,12,16,4,3,1,17
7,6,3,5,28,1,7
14,0,2,6,12,3,3
1,1,1,1,20,7,0
1,5,2,1,1,2,2
1,10,18,0,3,2,15
12,8,3,1,4,3,8
8,1,1,8,2,5,3
1,0,1,12,17,2,0
1,1,4,2,2,0,0
1,14,17,2,11,0,15
12,5,2,1,4,1,9
6,3,2,12,3,0,3
2,0,1,2,2,7,1
1,3,2,3,4,26,2
0,12,17,1,1,3,14
7,5,3,0,3,1,8
12,1,1,7,18,3,2
0,1,0,6,3,1,2
1,2,4,1,1,0,0
1,16,18,0,2,1,17
6,5,2,0,5,1,11
15,1,0,4,1,6,1
0,1,1,12,0,4,0
2,0,2,4,2,2,2
1,13,18,2,3,0,17
9,10,5,1,6,1,5
16,0,0,12,3,7,1
1,2,0,8,12,8,2
0,3,0,2,6,1,2
2,17,18,1,1,1,20
8,2,6,2,5,2,3
15,2,3,5,8,2,2
1,0,0,10,7,45,2
2,3,8,1,13,9,2
0,16,22,1,2,4,17
11,5,5,1,8,1,6
8,3,2,9,4,6,2
1,2,2,11,14,9,0
1,3,2,2,2,1,0
1,7,19,0,2,0,18
14,4,3,0,5,2,3
5,2,1,6,13,1,0
1,3,1,12,4,19,1
2,1,0,3,3,2,4
0,15,15,2,3,0,20
13,6,6,2,1,21,5
9,2,1,5,1,11,1
2,0,1,15,7,1,0
2,4,2,2,1,1,3
1,2,18,1,3,2,16
14,10,5,2,1,0,5
10,2,2,4,4,9,1
1,1,2,13,30,90,1
1,2,1,5,4,13,2
1,13,9,2,2,1,15
10,7,9,1,1,2,5
6,1,1,4,14,2,1
3,1,2,10,48,5,2
1,2,1,3,16,2,2
1,15,12,2,3,1,17
12,6,13,1,6,1,4
5,2,2,5,8,10,1
2,2,0,10,2,2,0
2,1,1,1,1,5,1
2,24,13,2,0,1,17
16,6,3,0,4,2,4
8,1,1,6,19,23,0
2,1,2,14,2,13,1
1,2,1,1,1,3,1
1,15,16,1,1,0,18
17,8,5,1,6,1,5
5,1,1,7,5,3,1
1,1,2,9,9,0,1
0,0,2,5,3,1,1
2,9,18,2,0,8,19
9,7,5,0,22,1,6
9,2,2,2,11,9,0
2,0,1,19,4,16,1
0,2,2,6,1,5,3
1,8,17,2,2,2,19
2,15,5,2,9,0,5
18,3,0,8,9,18,1
3,1,1,8,6,3,0
2,1,2,8,16,1,0
1,7,18,2,4,2,18
4,21,5,1,0,0,6
15,2,1,1,10,4,1
2,1,2,14,2,6,0
0,2,1,3,1,3,1
0,1,20,1,4,2,16
7,14,6,1,1,1,6
12,5,1,1,5,1,3
3,2,2,7,11,11,1
0,0,2,7,2,2,1
0,8,16,3,2,2,20
9,15,10,1,17,2,4
15,1,1,1,4,0,2
3,2,2,8,1,1,1
1,15,10,9,2,7,2
1,1,15,2,2,2,18
5,1,2,1,3,0,5
13,10,2,0,19,11,2
2,1,1,5,10,6,0
0,11,14,5,2,2,2
1,24,13,5,1,0,18
8,2,1,2,8,0,6
14,2,1,2,8,1,2
2,1,2,4,1,1,1
2,2,16,7,1,2,2
0,9,6,9,7,7,16
2,3,2,3,41,2,7
19,12,1,1,9,1,2
3,5,0,1,3,1,0
2,1,13,8,2,7,1
0,12,6,6,1,2,15
7,3,2,1,2,2,5
16,2,0,2,10,3,2
2,1,1,2,1,1,1
1,2,12,2,18,6,2
1,4,5,11,16,5,18
8,22,1,4,7,9,6
15,10,0,3,3,5,1
2,1,2,1,2,1,2
2,7,17,2,1,2,2
0,12,8,10,0,22,16
5,3,2,8,2,37,6
19,0,0,5,1,4,1
2,2,0,1,35,1,0
2,22,18,1,8,15,1
2,61,7,6,3,6,17
5,15,2,14,4,2,7
14,1,2,4,9,1,0
2,1,3,1,2,1,0
1,7,21,2,0,2,2
1,16,5,10,0,1,18
7,2,0,3,6,2,6
15,2,0,1,38,1,1
4,3,0,2,13,0,1
1,15,11,2,2,27,2
0,3,5,9,7,10,17
7,2,0,3,2,2,6
21,1,0,1,20,1,1
3,1,2,1,3,8,1
1,16,16,2,3,14,1
1,18,8,8,10,3,17
3,3,1,14,4,1,7
13,1,1,2,5,6,2
4,8,1,2,1,2,0
1,8,16,1,0,1,1
1,2,6,11,1,4,14
1,9,1,6,6,1,6
15,1,1,0,31,2,0
2,1,1,8,5,1,1
2,6,9,0,2,1,2
0,5,9,19,7,3,16
4,3,3,5,4,29,7
14,1,1,0,3,4,2
3,1,1,1,1,2,2
1,38,11,1,7,2,1
2,8,10,14,9,7,14
2,3,1,2,2,1,7
15,0,1,1,7,0,1
2,1,1,1,5,1,2
1,4,17,1,2,2,1
0,20,5,5,2,5,18
5,3,2,9,1,0,7
17,1,0,1,3,0,2
4,7,2,1,21,3,2
2,10,14,0,4,17,1
0,5,6,7,1,34,18
6,3,2,10,1,6,7
13,0,1,1,13,2,3
2,1,1,0,11,2,1
1,12,15,2,2,1,2
2,10,10,8,2,1,13
3,1,2,18,2,1,8
14,1,0,8,4,8,1
4,15,1,2,3,2,1
2,19,15,3,1,8,1
2,19,3,10,1,20,16
3,1,1,15,2,4,8
14,1,0,3,7,1,2
3,4,2,2,10,0,1
0,13,18,2,4,10,1
1,2,5,8,1,6,15
6,2,2,13,11,2,6
14,30,2,1,41,1,1
3,6,0,1,5,0,1
1,4,18,0,23,1,1
1,7,3,4,2,5,16
4,1,2,12,2,5,7
13,0,2,2,10,0,3
1,15,3,1,3,1,1
2,11,16,1,0,0,0
2,4,3,5,5,6,14
6,1,1,7,6,9,8
14,3,2,1,4,2,2
2,45,4,1,5,2,2
1,5,17,0,2,1,2
0,1,3,3,1,0,16
6,1,0,12,7,2,8
13,1,2,3,2,3,0
2,13,3,2,5,5,0
1,4,20,0,2,2,1
1,3,4,2,0,2,13
9,1,2,10,10,10,7
11,4,1,3,4,25,1
5,46,3,2,2,3,0
1,6,18,0,0,2,2
1,0,5,10,2,0,14
4,1,2,4,7,5,8
12,2,1,3,23,1,2
2,14,5,0,12,2,0
2,3,21,0,3,0,2
1,0,4,11,1,8,16
4,0,1,10,15,25,6
16,2,2,0,1,7,1
3,2,3,1,1,2,0
0,15,19,2,11,0,2
1,4,5,8,1,2,15
2,0,1,12,5,8,9
17,2,2,1,9,6,2
2,10,0,1,0,1,1
0,3,18,1,0,1,2
2,1,5,5,9,0,13
4,1,1,10,6,3,7
17,28,1,1,3,7,3
4,23,2,2,1,3,2
0,2,17,3,3,0,2
1,11,3,3,2,0,14
5,3,2,13,2,1,9
16,10,0,1,1,4,1
4,3,4,0,3,9,0
2,1,16,2,7,19,0
1,0,4,7,4,3,12
6,3,1,12,1,2,10
6,19,1,3,3,25,1
4,9,2,1,11,3,2
0,1,18,1,2,1,1
2,0,4,6,1,15,17
3,0,1,7,21,19,5
8,9,1,1,12,5,1
6,11,2,1,4,3,0
3,5,16,2,1,3,2
1,0,3,4,1,8,19
1,1,2,16,0,2,6
8,1,0,4,0,3,1
14,9,5,1,6,0,0
3,2,15,2,10,1,4
1,0,4,4,1,0,19
3,26,0,11,14,1,6
10,11,0,2,3,7,2
9,11,2,2,4,2,1
2,1,17,1,4,1,2
3,2,4,7,1,0,15
2,16,2,10,0,2,5
6,8,1,1,9,25,1
12,1,5,1,3,8,0
1,1,16,0,1,1,2
1,2,6,3,1,0,16
1,1,3,11,3,2,5
7,11,2,4,1,3,1
13,4,1,2,1,2,2
3,1,19,1,5,1,2
0,1,5,7,1,21,17
1,10,0,10,1,14,3
8,10,1,5,26,2,0
16,3,2,1,13,1,1
0,1,16,1,3,0,2
0,1,6,3,1,2,17
1,3,1,17,1,2,8
5,32,0,3,15,1,3
15,6,2,1,3,14,0
2,0,14,1,1,6,1
1,0,3,3,1,4,18
2,14,2,14,1,2,5
7,29,0,1,21,2,0
15,6,2,1,6,16,3
1,1,16,8,2,5,1
0,0,4,4,2,1,17
0,6,2,3,0,1,5
5,5,1,14,23,6,0
17,12,1,1,4,9,1
1,1,13,1,3,1,2
0,0,6,4,2,0,13
1,8,1,7,5,2,4
10,8,2,8,1,23,1
19,1,1,2,5,11,2
3,2,15,1,12,2,1
0,3,6,0,1,0,17
3,3,1,11,2,2,5
9,5,0,8,2,8,1
12,1,3,3,2,7,1
1,6,25,2,2,3,1
1,1,6,8,2,1,19
1,0,2,8,13,1,7
9,63,2,18,3,2,2
10,24,2,5,6,14,2
1,2,19,0,2,3,1
0,1,4,2,1,2,17
0,1,2,9,0,1,4
14,0,1,5,4,4,1
6,5,1,3,58,18,1
1,6,19,2,12,9,2
2,0,5,0,6,5,18
0,1,2,14,3,1,5
10,16,2,5,5,0,2
5,26,4,4,10,22,1
1,3,15,2,2,8,2
0,0,6,3,1,1,18
2,2,2,8,6,19,4
7,19,0,10,3,4,2
9,2,1,2,0,1,0
3,2,21,2,11,2,3
1,2,6,2,25,0,17
1,5,2,24,2,1,7
4,26,0,4,1,12,2
16,5,2,2,0,5,1
1,2,16,2,15,2,1
2,1,6,1,7,36,18
2,2,1,10,5,4,5
5,8,1,2,2,35,1
18,8,2,5,20,40,2
4,10,21,3,3,11,2
1,1,5,1,0,10,15
2,5,2,3,6,18,6
4,20,1,15,20,1,2
15,4,1,2,4,0,2
1,0,17,1,6,50,0
1,0,5,1,3,22,17
3,10,3,7,9,12,8
5,8,2,17,31,2,1
17,9,4,5,12,19,1
4,1,16,1,2,2,2
2,9,5,1,26,59,18
3,11,0,19,6,13,8
8,9,1,14,3,23,2
14,3,2,1,2,2,1
4,2,20,0,1,0,0
0,2,2,7,1,31,17
1,4,2,17,1,8,5
6,13,2,3,1,1,1
18,6,1,1,5,32,1
3,1,17,2,0,1,1
2,1,7,1,2,35,16
1,17,0,10,1,158,6
11,37,0,5,0,44,1
9,4,1,1,1,7,0
3,1,19,1,10,12,0
0,1,8,5,11,15,17
1,13,2,6,8,13,8
3,13,0,11,1,9,2
13,0,1,1,4,70,1
3,2,17,2,2,8,1
1,0,6,39,0,100,16
0,13,2,13,25,5,6
3,4,0,18,10,41,1
14,1,1,26,2,2,2
3,1,18,13,1,1,1
0,7,4,3,1,2,16
1,8,0,4,3,19,8
9,3,0,9,1,37,1
13,1,1,2,2,7,2
2,1,20,4,2,119,1
2,4,6,5,9,51,16
1,6,2,5,1,80,6
7,11,0,9,1,28,3
17,2,2,4,1,144,1
3,1,20,1,0,6,1
2,3,5,1,1,6,15
2,24,1,3,1,9,6
7,9,2,10,1,85,1
15,2,0,24,24,54,0
3,1,18,5,18,8,0
1,0,5,3,3,71,16
2,12,2,2,2,4,7
4,6,1,1,10,5,2
11,2,3,32,2,53,2
3,2,12,80,2,158,2
1,13,4,7,6,19,17
0,34,1,1,0,1,7
7,6,0,1,1,48,3
15,2,1,0,18,110,1
4,0,19,21,2,91,1
2,2,7,49,3,9,16
0,10,2,88,3,3,8
7,3,1,16,21,65,2
19,0,3,4,2,22,0
3,0,14,1,2,68,1
1,0,4,2,9,94,12
0,17,2,1,3,21,7
4,7,2,0,2,78,2
12,2,3,75,11,53,2
3,3,18,27,5,7,1
2,1,7,215,3,26,15
1,8,2,14,8,41,8
7,15,1,0,3,358,2
17,2,2,56,18,23,1
4,2,18,450,7,2,0
1,2,4,26,9,138,14
0,7,1,5,3,42,6
2,5,1,68,7,102,1
16,1,0,20,3,1,2
3,1,13,140,2,77,1
1,0,6,7,1,8,15
1,5,2,29,3,129,7
5,67,0,3,1,316,1
13,7,2,115,15,44,1
1,2,15,95,4,3,0
1,3,7,5,1,36,17
0,11,2,1,0,248,9
3,9,1,576,1,16,1
12,2,2,115,9,50,2
2,1,17,83,7,257,2
1,31,10,256,1,38,16
1,7,1,10,0,38,7
2,8,1,0,1,102,2
17,2,4,260,3,3,0
4,3,17,244,2,1,0
2,1,3,11,2,5,16
0,10,2,2,2,174,6
1,1,1,1,2,30,2
15,0,3,0,2,1,1
3,5,24,0,6,79,1
0,2,3,284,9,91,13
1,0,0,111,1,91,7
5,4,0,4,0,75,3
15,16,4,3,0,103,0
3,4,19,13,6,45,0
2,2,2,71,3,3,18
0,1,2,16,2,4,7
4,1,1,52,0,37,1
16,24,4,8,1,98,1
1,23,22,3,11,19,1
1,5,5,39,2,31,15
1,2,1,2,2,4,8
6,2,1,201,10,31,2
16,0,1,135,6,5,0
1,1,16,29,4,0,1
1,1,5,51,19,78,15
2,6,1,47,2,193,8
7,21,2,10,2,8,1
18,1,4,0,25,87,1
3,1,16,182,12,7,0
0,0,4,56,5,3,14
0,3,2,114,1,1,9
6,18,1,4,0,3,2
15,8,8,2,1,131,1
2,2,15,196,31,135,1
0,1,3,34,9,14,13
2,8,1,76,3,39,9
0,24,2,26,4,23,2
15,3,5,132,0,8,1
4,2,20,33,19,2,1
2,1,3,41,5,1,13
0,0,0,20,11,2,8
4,5,1,48,18,122,2
16,26,2,3,14,28,0
3,3,3,167,13,10,0
0,2,7,10,1,1,15
1,8,4,97,1,0,10
1,11,0,32,9,108,1
11,1,8,85,4,8,0
3,2,34,7,0,42,3
2,0,11,2,2,17,19
2,1,1,116,1,24,6
3,26,0,5,2,46,0
16,14,0,120,1,6,1
2,1,15,79,3,5,2
1,2,33,12,2,158,21
1,2,3,168,0,49,5
8,12,1,9,2,14,1
11,6,3,31,9,2,0
3,1,31,6,2,134,2
0,2,17,2,3,35,18
1,4,2,109,1,68,6
2,0,1,56,1,16,0
19,0,15,39,10,208,2
3,4,7,4,9,8,2
2,3,1,2,1,45,15
2,3,2,15,1,3,5
2,6,1,9,2,31,1
14,30,9,134,16,34,0
1,4,5,140,3,7,1
1,15,2,10,1,8,18
0,4,2,5,1,2,4
5,5,13,7,1,151,0
13,3,27,15,0,25,1
2,0,4,6,9,16,2
0,11,12,72,7,29,17
1,7,2,53,1,5,5
3,3,2,6,1,3,1
14,1,22,192,8,81,1
2,0,2,51,2,10,1
2,2,0,4,0,3,17
2,7,8,49,9,81,6
2,45,1,63,2,35,0
12,13,21,4,3,3,1
4,13,9,41,4,118,1
2,3,1,85,3,12,16
1,22,0,101,2,2,6
3,15,0,6,0,0,2
13,1,13,75,11,45,2
2,1,31,13,17,23,2
0,43,4,8,5,37,17
1,146,1,16,2,65,5
9,4,14,5,1,5,2
9,2,1,90,1,63,1
6,129,7,33,8,26,2
0,98,24,15,4,3,16
2,6,23,32,1,131,5
1,2,10,24,0,5,3
11,0,3,41,4,91,1
7,121,1,9,9,22,2
3,114,0,28,3,1,19
1,5,26,34,1,15,6
2,1,40,41,1,54,2
13,2,4,19,0,45,2
8,47,2,14,2,12,2
1,41,13,59,5,20,15
0,18,24,79,9,20,5
0,58,6,22,3,17,1
10,5,2,21,1,12,1
6,2,1,186,1,3,1
1,225,9,203,16,87,17
1,20,18,20,6,9,6
0,17,35,43,2,5,3
10,2,14,8,1,24,0
8,1,1,2,2,3,2
1,1,38,64,11,18,18
2,249,7,11,2,74,6
2,33,6,118,2,5,3
10,13,4,8,0,23,1
6,2,13,44,2,40,0
1,1,3,6,1,199,15
1,57,9,2,7,13,6
2,8,28,51,11,2,2
7,1,2,11,1,11,0
7,53,11,85,0,104,1
2,133,30,21,3,39,16
1,5,47,2,4,2,7
2,2,11,156,2,8,2
9,16,47,9,0,3,1
15,97,6,49,2,36,0
2,24,10,29,14,60,15
1,23,9,7,12,18,6
1,14,30,71,3,36,2
7,70,24,5,2,3,1
19,26,16,121,0,4,2
4,2,36,23,1,1,15
0,2,6,46,7,16,6
1,48,79,24,5,134,3
7,6,33,9,2,7,1
16,124,11,21,2,9,2
1,30,16,6,2,46,18
0,4,77,22,4,14,6
2,8,63,84,2,21,1
8,2,101,7,0,6,1
13,52,2,19,1,0,2
1,14,52,19,0,25,17
1,15,54,35,9,7,9
2,62,56,22,4,21,1
5,4,5,3,0,106,1
17,6,9,42,3,15,0
2,110,2,63,0,17,20
0,32,62,3,5,1,7
0,6,12,2,8,1,2
6,1,4,37,8,98,1
15,2,10,23,1,35,0
3,17,81,38,2,4,15
1,53,8,9,2,1,6
2,16,2,7,24,7,1
4,53,8,45,12,32,1
15,80,31,3,18,63,1
2,4,88,46,11,5,15
1,163,40,46,10,1,5
1,29,100,34,4,55,1
6,2,4,24,1,66,1
21,1,27,12,5,6,1
3,45,154,24,7,10,16
0,66,7,48,25,37,6
2,93,18,7,8,28,3
4,8,25,40,5,38,1
14,134,37,59,2,25,1
1,77,10,6,2,7,17
2,5,106,68,23,32,7
0,30,29,14,11,14,1
5,73,43,13,3,1,0
13,5,40,28,8,57,0
2,36,4,67,14,7,14
2,59,1,4,11,35,7
1,15,4,2,8,55,3
8,105,37,28,2,107,1
14,3,61,77,16,23,0
3,221,21,39,3,31,15
0,152,50,3,4,4,6
0,97,27,2,5,9,0
6,6,50,34,2,53,0
21,1,9,29,0,5,1
3,260,52,5,12,25,17
1,43,16,2,6,33,9
1,4,45,161,5,12,2
9,26,69,10,8,25,1
14,98,30,53,11,6,1
3,27,42,31,2,4,17
2,2,15,7,13,0,7
0,74,19,71,7,28,2
2,173,3,25,10,4,2
16,17,101,33,4,7,1
4,14,4,9,7,81,17
0,24,45,22,4,61,8
2,4,15,59,3,5,2
5,3,117,38,10,29,0
14,153,12,8,3,61,2
2,39,3,10,19,15,17
2,11,26,11,20,14,8
0,21,3,22,16,2,2
7,238,22,26,2,28,1
9,101,59,23,18,23,2
10,38,5,2,16,23,15
2,3,99,17,2,2,7
0,9,9,14,0,9,1
5,93,1,50,13,36,2
18,10,9,17,16,5,1
2,27,136,43,11,2,14
2,392,9,57,2,17,9
1,16,3,26,6,18,2
7,6,53,9,18,34,2
10,91,61,2,5,85,0
3,6,19,16,8,6,14
1,92,1,20,1,1,8
1,58,51,59,14,46,0
1,4,29,31,2,39,1
0,31,24,5,10,5,1
2,117,9,81,5,2,13
30,15,1,9,15,60,8
77,9,14,9,7,69,3
6,9,9,58,7,13,0
2,82,5,64,8,3,0
0,86,12,5,8,46,17
106,145,13,7,10,6,9
105,6,42,2,3,44,1
5,4,35,41,21,4,1
80,1,3,61,8,37,0
25,394,5,6,12,37,17
2,26,39,22,9,53,10
2,22,84,63,11,5,2
111,81,10,15,8,25,0
13,176,3,28,3,34,3
2,65,2,64,19,18,17
30,4,92,4,1,9,4
68,125,25,1,25,4,1
20,52,2,72,8,10,0
3,92,3,31,8,4,2
1,91,52,10,3,2,15
1,184,22,1,15,29,4
47,20,13,2,17,65,3
2,29,58,90,7,35,1
2,3,11,55,1,3,2
136,231,29,36,2,18,19
11,43,27,32,1,71,3
64,8,11,5,24,18,2
9,1,2,33,6,2,0
1,68,26,31,2,3,0
100,63,12,4,18,48,16
15,18,20,28,21,3,6
3,2,10,4,16,14,1
1,90,13,66,2,9,1
1,10,42,110,15,111,0
3,82,10,9,15,10,19
60,5,10,61,2,16,6
10,157,43,12,1,17,1
5,10,17,18,2,0,2
7,299,18,15,21,0,2
16,24,22,12,11,9,18
2,3,11,7,10,12,4
4,81,35,0,1,12,1
5,6,12,70,2,21,0
2,261,7,25,24,45,1
1,18,5,4,9,27,18
5,168,14,9,8,10,5
6,40,2,5,4,51,1
17,3,13,6,4,6,0
14,50,27,27,23,30,1
26,10,20,40,9,14,19
3,29,25,36,15,29,5
217,4,37,11,5,8,2
23,1,8,161,9,5,0
10,91,28,14,6,43,2
21,24,5,16,15,39,16
21,2,3,3,3,6,7
2,143,1,2,1,1,2
1,50,22,77,5,15,0
1,35,19,34,6,81,2
111,79,15,4,2,26,18
5,10,4,29,6,2,5
54,75,4,45,1,10,2
3,12,59,5,18,22,0
31,1,7,2,21,36,1
20,16,15,84,4,4,17
1,120,1,10,2,14,5
53,5,10,55,6,9,2
48,50,44,18,2,30,2
19,65,12,36,25,3,1
45,5,1,17,11,7,17
3,1,7,45,5,5,5
7,43,25,23,9,0,2
10,65,17,3,2,26,1
70,114,5,0,15,31,2
5,4,2,15,6,41,18
1,5,3,118,2,5,5
66,3,9,9,1,0,1
67,5,38,3,36,3,1
6,38,14,59,4,3,2
123,67,2,3,0,19,18
22,26,9,0,0,48,5
2,2,48,73,0,4,0
3,2,4,21,4,1,1
18,95,4,47,19,28,1
2,35,0,2,336,33,18
33,89,130,38,25,16,5
97,6,6,41,19,1,2
18,70,2,3,24,7,1
3,46,2,51,2,36,3
47,6,2,29,1,17,19
7,5,45,29,7,8,6
27,1,39,7,2,3,0
4,93,41,11,8,3,0
55,30,2,2,2,11,1
8,169,5,18,1,3,15
16,7,8,4,23,12,6
118,22,8,2,2,7,1
9,0,33,5,1,2,2
53,83,18,6,100,8,2
4,105,3,67,134,50,17
14,52,22,9,61,27,6
4,24,2,5,125,6,3
48,12,17,27,4,34,1
3,19,33,1,29,8,1
49,1,52,25,152,2,16
66,351,4,10,6,1,7
76,20,17,9,20,1,1
36,119,5,100,21,53,2
29,252,29,10,53,17,0
10,36,9,8,71,1,17
0,16,17,1,11,5,7
126,5,4,4,40,32,3
37,213,1,28,1,69,1
90,21,33,4,0,28,1
41,2,22,20,100,2,18
17,260,4,32,164,1,6
2,27,15,60,18,0,1
175,9,16,5,21,78,0
67,20,6,2,34,5,1
6,2,4,24,8,29,15
1,70,0,47,74,18,6
149,7,19,3,9,8,2
22,2,30,53,3,7,1
5,95,19,18,1,2,1
45,88,1,60,5,51,16
10,6,1,40,1,8,7
51,25,5,9,12,2,0
36,70,15,19,115,9,0
7,88,8,6,29,36,2
6,5,3,52,2,50,19
203,40,2,4,150,48,7
11,34,2,1,62,8,3
99,4,27,33,253,2,0
36,15,25,6,30,9,0
23,79,4,3,144,3,17
16,83,1,2,12,4,6
23,23,36,162,1,2,1
104,8,6,12,18,3,1
57,177,2,47,199,56,2
6,44,0,3,9,15,18
1,10,33,35,1,16,5
35,12,9,36,49,20,2
60,24,21,6,115,10,0
9,67,7,27,11,2,1
2,6,2,4,4,3,18
2,1,8,78,2,20,10
80,0,16,10,76,35,1
19,158,12,6,75,3,1
9,12,7,18,6,1,4
39,5,1,5,29,42,19
14,35,11,20,11,17,2
48,1,27,6,7,2,1
15,68,5,5,62,6,0
99,100,1,51,9,55,5
7,4,4,8,10,8,19
20,42,33,3,8,3,3
5,5,7,62,7,31,0
1,37,0,22,7,45,1
41,44,9,3,4,25,5
28,3,1,17,2,85,20
18,2,16,9,2,25,4
11,30,45,35,25,16,1
2,106,15,75,11,5,3
30,5,1,16,2,1,3
18,34,2,20,0,73,19
23,60,17,4,36,13,3
3,43,21,2,55,1,0
9,3,3,37,40,17,0
7,2,15,17,13,2,4
93,43,20,4,8,73,20
7,40,10,1,12,9,5
25,10,4,3,1,4,0
9,36,1,19,11,7,2
2,15,2,23,6,2,4
20,8,14,7,154,165,19
5,0,32,37,33,10,4
1,91,4,12,16,3,1
53,5,2,4,25,5,1
6,11,3,6,13,13,3
1,26,65,24,32,12,17
68,67,9,8,36,1,3
21,4,1,14,8,0,2
6,19,16,19,3,71,1
2,17,6,27,1,43,4
124,9,18,18,95,9,18
7,11,18,5,22,3,4
8,23,2,0,2,46,1
39,13,12,47,9,7,2
6,1,25,12,28,2,4
13,41,20,22,11,1,21
3,39,4,22,1,74,4
15,8,1,14,22,95,2
17,61,21,10,57,7,0
4,25,33,17,15,2,2
28,2,5,13,4,5,20
18,61,3,4,26,2,4
29,7,5,12,72,9,1
1,2,17,24,6,37,1
1,31,18,32,4,43,5
183,6,2,18,61,70,20
41,36,2,1,101,9,5
13,18,6,1,6,2,3
30,61,36,24,1,112,1
3,5,18,22,89,11,3
1,2,2,8,12,48,16
131,1,0,3,3,8,3
21,1,20,30,3,3,1
59,4,13,4,24,1,1
7,9,50,65,37,17,1
73,13,4,7,5,9,17
10,55,1,2,23,1,3
42,15,10,43,1,0,1
4,3,26,46,76,129,0
1,104,9,2,26,18,2
11,40,3,46,9,6,16
16,15,23,12,6,1,5
1,5,29,30,33,1,1
179,17,20,10,4,36,1
11,2,1,24,181,47,1
5,72,12,53,11,4,19
96,34,16,10,5,2,4
34,3,7,9,1,49,3
5,41,2,7,41,20,1
21,15,1,36,19,2,3
63,63,10,13,26,95,19
20,33,14,19,14,11,5
44,6,2,26,125,1,1
8,5,21,5,13,38,0
37,12,5,4,1,6,1
3,25,13,2,59,1,18
26,12,4,55,41,65,3
18,7,9,8,20,5,1
66,0,1,8,3,75,1
4,197,3,6,94,8,1
115,24,16,17,5,1,19
4,82,6,12,39,80,4
4,5,1,21,26,74,2
0,1,1,36,26,6,1
54,1,1,4,12,53,3
21,90,48,62,6,4,18
1,57,23,3,112,35,6
92,6,3,9,29,35,0
18,2,2,14,6,9,1
91,26,31,16,90,0,0
8,118,9,3,33,3,20
91,25,5,45,56,63,4
7,1,3,4,6,5,2
133,77,28,1,70,44,1
16,42,16,6,34,8,1
3,4,10,59,9,2,17
2,25,2,11,1,22,5
3,91,8,5,78,33,2
64,10,0,3,72,16,1
22,62,22,29,13,6,2
17,9,3,29,1,12,19
1,1,1,3,36,0,6
116,50,1,2,22,20,1
9,37,5,0,3,17,2
13,13,44,40,97,17,2
5,3,8,52,37,22,17
55,17,2,4,4,4,5
6,57,14,20,37,51,2
4,12,32,8,5,60,0
16,4,8,4,38,4,1
3,2,1,13,103,2,16
118,4,0,3,27,0,3
11,94,5,73,8,0,1
42,16,25,70,2,1,0
3,78,7,7,24,49,1
18,26,10,4,110,7,16
8,16,2,35,5,3,7
10,2,11,5,10,3,1
5,93,10,20,49,1,2
21,7,7,30,25,17,0
3,19,1,5,2,41,17
54,6,1,2,56,3,7
81,3,10,9,9,2,1
10,7,31,12,3,2,2
1,56,3,6,3,6,1
203,8,10,21,10,30,16
21,2,1,20,36,17,5
6,54,10,29,63,14,2
1,14,21,42,40,2,1
18,40,2,11,12,87,1
54,5,13,1,4,58,15
7,4,4,4,4,5,6
2,34,23,2,146,12,1
9,4,6,15,7,46,1
18,95,1,16,42,14,0
6,14,4,50,15,1,15
22,26,8,24,12,5,4
17,13,33,3,22,5,1
89,29,3,9,1,49,2
7,6,1,24,86,18,1
40,108,1,21,41,13,16
3,6,12,14,20,19,6
14,37,11,2,3,2,1
79,2,3,1,7,7,1
27,220,1,5,31,8,2
2,11,12,8,8,6,17
2,25,11,31,25,2,5
48,19,1,8,31,34,2
13,53,0,2,11,48,0
45,61,0,40,11,31,1
5,9,17,11,10,2,18
95,16,41,31,8,40,6
14,24,6,7,8,13,2
3,26,2,17,3,1,0
6,33,0,8,19,1,1
6,3,25,64,22,62,14
0,3,22,9,3,10,7
13,3,1,9,76,38,1
32,2,1,2,54,7,2
4,37,4,28,6,2,2
3,74,21,27,27,2,19
69,8,13,9,1,1,6
24,2,1,3,14,90,1
19,11,3,12,5,21,1
3,18,6,10,12,19,1
5,7,21,49,2,3,18
9,2,3,4,95,10,7
48,40,1,32,15,44,1
6,3,2,14,2,4,1
1,18,2,3,60,32,2
49,104,21,0,4,43,16
10,18,9,16,10,14,6
1,2,2,10,2,1,3
15,129,7,16,47,37,0
36,7,2,20,14,7,1
26,3,31,3,4,29,15
3,18,4,53,29,16,7
4,15,16,5,50,1,2
37,4,5,5,7,50,1
24,1,3,40,3,46,0
2,15,18,3,2,2,17
4,1,6,45,38,53,7
42,271,10,16,13,43,2
74,13,4,44,3,11,0
11,2,14,3,25,1,0
6,4,3,0,25,1,17
8,41,10,100,30,41,7
1,49,1,10,2,8,2
95,22,12,2,79,31,0
11,8,11,29,30,17,0
2,2,19,8,2,5,15
13,73,4,7,5,54,7
20,24,1,42,20,43,2
2,5,50,12,3,6,0
8,82,13,1,26,1,2
30,6,20,56,6,6,18
12,52,4,15,43,1,9
18,8,5,2,4,32,2
3,15,20,21,3,10,1
18,12,4,3,10,10,1
11,8,2,33,24,2,18
33,65,1,4,11,37,7
4,9,20,36,2,20,1
2,4,9,4,13,10,1
34,34,0,89,9,2,0
4,16,2,8,24,7,15
4,1,2,3,18,12,6
20,3,15,54,1,22,2
12,1,12,4,20,22,1
11,7,5,3,77,15,2
9,18,2,2,6,12,18
35,42,3,41,1,3,8
19,9,20,13,30,6,3
2,2,8,45,5,31,1
20,22,5,11,2,9,0
12,20,2,1,55,2,17
2,211,1,16,13,1,8
12,12,15,19,41,1,2
63,2,20,6,9,41,0
6,2,3,12,2,13,0
2,5,1,2,31,0,16
110,68,1,13,6,0,6
21,11,14,33,10,36,2
1,19,20,16,10,72,1
13,6,4,2,2,6,0
13,4,2,26,3,1,16
24,39,16,19,9,0,6
13,7,12,3,30,22,2
11,6,0,3,20,28,1
3,10,7,1,11,9,1
2,31,3,63,18,3,16
49,27,3,27,7,39,9
16,3,22,8,24,15,1
13,7,3,1,19,7,1
2,41,2,2,17,10,1
2,3,2,2,4,9,16
36,12,10,29,22,0,7
13,23,16,6,9,66,2
2,2,2,8,26,52,0
1,6,4,5,20,8,2
40,16,3,1,3,7,17
20,10,19,10,2,15,10
2,8,20,22,29,18,0
1,25,2,7,4,20,0
3,31,1,48,4,26,3
53,15,19,6,26,26,15
16,45,19,26,33,13,3
3,7,1,8,5,4,2
30,8,2,2,2,0,2
25,15,8,32,6,32,3
4,5,30,5,12,16,18
8,19,14,34,5,2,4
14,8,1,19,25,42,0
20,35,1,5,42,7,1
18,31,3,11,10,2,2
9,3,26,9,5,61,16
26,44,9,2,6,16,3
3,27,4,3,2,17,1
1,32,0,6,27,3,2
85,5,2,24,19,3,1
27,0,9,24,1,3,17
3,54,9,3,38,2,4
2,69,8,1,34,2,2
9,11,2,25,30,6,2
5,10,2,5,14,22,2
17,2,10,3,68,4,17
10,7,19,1,31,3,5
32,89,8,36,10,4,2
3,8,3,5,1,3,0
4,38,1,33,47,11,4
1,3,7,27,39,4,17
55,73,12,6,10,8,5
7,69,1,2,7,3,1
23,4,20,14,4,2,1
3,2,3,1,1,0,1
11,2,13,2,0,5,18
19,9,3,2,74,8,4
1,5,2,10,5,2,2
99,10,1,38,2,3,1
10,3,15,4,81,9,4
14,2,36,9,14,11,19
26,87,5,0,42,3,5
10,13,1,62,8,1,1
10,38,1,5,7,3,1
1,9,16,35,1,9,2
60,3,22,4,9,10,18
21,6,3,22,2,3,4
2,2,2,15,30,2,2
27,30,1,13,2,2,1
73,86,15,15,151,10,1
38,39,23,3,7,6,19
2,13,6,46,0,1,4
1,5,2,6,1,2,2
2,6,1,15,68,6,0
44,24,7,1,7,15,2
39,13,10,39,7,7,16
16,3,2,8,2,5,3
3,1,2,2,0,1,1
7,52,21,30,23,1,0
64,13,16,11,34,4,0
15,24,1,41,5,0,13
1,4,1,9,4,3,5
26,2,4,3,1,39,1
14,33,2,12,24,18,1
16,5,17,5,45,2,2
2,75,5,53,11,34,16
12,11,1,4,1,8,5
36,1,0,1,13,2,2
24,27,7,12,78,0,0
5,130,13,5,6,38,3
2,5,7,23,2,3,17
35,3,1,3,20,37,3
38,1,1,20,22,45,2
5,34,13,2,5,3,2
4,25,7,2,2,86,1
2,3,10,64,4,25,16
1,2,2,9,136,5,5
20,43,2,1,10,0,1
32,44,13,30,34,34,1
8,9,12,13,12,92,1
32,2,4,2,7,17,18
6,121,1,37,4,7,4
15,15,6,9,7,2,2
19,3,22,4,47,11,1
4,1,7,0,2,2,1
11,7,2,1,32,2,16
4,52,2,17,7,13,4
24,53,5,25,139,5,2
1,15,15,3,10,5,1
10,2,4,0,1,1,2
15,49,3,20,6,1,15
62,11,1,6,15,1,5
5,32,2,33,4,3,2
1,32,22,3,1,5,1
0,6,5,3,21,42,1
48,22,3,1,11,1,18
10,9,0,0,22,32,6
16,57,1,40,72,11,1
2,6,21,4,6,49,2
8,2,8,3,1,15,1
16,152,5,3,1,1,18
10,19,7,1,0,0,7
6,2,2,2,85,12,2
3,79,7,20,7,0,1
1,20,4,8,3,6,2
59,11,2,2,73,3,16
20,1,1,29,13,5,5
7,1,2,22,21,20,2
8,91,19,4,14,2,1
3,39,10,0,26,4,2
51,3,1,2,10,2,18
2,23,1,2,8,2,6
32,26,21,2,11,10,0
12,59,13,33,7,2,1
4,8,4,5,31,0,1
3,25,2,2,5,2,15
11,9,1,8,104,0,6
18,1,6,3,18,2,3
43,27,37,3,1,1,1
6,46,6,1,40,1,1
2,5,0,0,3,3,15
0,0,3,61,50,3,6
11,0,3,3,16,1,1
40,163,23,19,46,1,0
5,15,4,4,7,0,0
8,20,2,2,1,2,17
2,33,0,0,4,1,6
2,22,5,24,29,1,1
7,4,23,23,3,1,2
2,0,9,5,34,6,0
27,2,5,8,16,3,15
15,34,2,3,2,0,6
39,6,4,9,11,2,1
12,25,8,15,48,6,2
36,2,7,3,31,4,0
4,3,1,1,10,0,15
1,5,4,3,2,0,5
54,2,11,29,32,0,1
14,16,18,16,18,20,1
3,1,4,1,18,5,1
1,23,1,3,5,3,14
50,39,4,2,2,1,5
15,11,11,2,11,6,0
2,1,25,11,21,12,1
11,12,3,8,15,7,2
6,65,3,2,1,3,16
34,5,2,1,7,8,5
3,10,23,5,13,0,1
20,25,8,8,6,2,1
31,8,2,2,14,7,0
4,2,3,0,9,3,11
34,0,0,1,10,2,3
9,22,21,7,2,0,2
2,16,11,5,9,9,4
0,3,2,4,11,3,22
29,38,2,2,44,1,9
23,4,9,2,29,0,4
3,0,23,3,20,2,0
1,20,3,8,1,0,14
49,11,1,1,1,7,3
40,34,2,2,1,2,13
5,79,9,2,5,0,4
1,7,30,1,5,1,2
24,3,6,3,67,3,1
21,1,2,8,8,9,3
9,0,1,2,3,4,15
2,65,14,1,4,1,4
2,50,28,0,65,1,1
31,3,5,5,4,2,1
9,4,0,9,4,5,3
22,10,2,2,27,14,15
6,2,17,0,11,3,4
70,0,23,1,5,1,2
6,2,3,5,6,1,2
13,25,3,5,2,8,1
12,4,15,1,1,28,14
2,11,10,1,2,10,2
1,0,8,2,1,0,2
38,28,3,1,14,1,1
60,24,0,1,1,32,4
4,3,8,8,77,32,18
2,96,28,1,17,6,3
2,10,7,1,0,1,2
18,0,1,2,24,1,2
20,0,1,2,18,6,3
5,25,6,4,34,1,16
11,2,17,2,4,7,4
17,2,17,0,5,2,1
31,0,2,0,2,12,1
22,36,1,1,4,21,3
2,13,6,8,34,8,18
3,2,27,6,40,1,3
17,1,3,3,15,2,0
30,1,1,2,6,1,1
15,8,0,0,1,4,1
9,23,14,5,23,1,16
50,2,7,2,30,11,3
6,1,2,1,14,6,2
9,0,0,0,16,2,1
30,17,0,2,4,3,2
31,8,4,4,2,6,18
3,3,24,3,36,1,3
6,4,4,5,37,2,1
2,5,2,1,7,11,1
0,16,1,0,6,18,2
38,17,15,4,2,12,17
26,2,12,10,44,5,4
8,2,3,2,9,2,2
11,4,0,2,34,12,1
43,4,2,0,4,6,3
46,9,11,2,3,2,19
5,8,10,5,3,0,4
0,12,1,3,23,2,1
0,1,2,1,10,50,0
10,1,2,0,3,6,1
27,20,32,2,3,2,17
25,2,8,14,15,4,4
1,2,1,12,26,1,1
0,9,2,5,17,3,2
41,7,2,2,3,3,2
23,13,13,1,0,1,16
10,2,9,3,12,0,3
2,1,3,7,10,0,0
19,2,0,8,42,3,0
14,10,3,5,4,1,1
1,15,22,6,8,1,18
12,4,8,13,1,11,5
31,1,1,3,58,0,1
10,6,1,2,23,3,2
19,6,10,1,2,58,1
1,5,25,7,0,6,18
14,1,13,2,5,3,7
43,2,1,7,3,1,2
11,20,0,1,39,2,0
1,18,5,1,43,11,1
1,2,22,2,4,2,16
56,1,6,4,18,0,4
35,7,1,7,3,1,0
12,75,1,3,86,2,1
2,19,10,1,17,18,2
49,4,21,1,21,5,17
11,10,2,0,4,3,2
8,3,1,10,14,2,1
2,1,6,2,4,3,2
1,13,30,0,4,3,2
150,51,4,0,84,21,19
7,7,1,0,10,3,5
2,42,1,5,17,1,1
15,5,2,3,2,1,0
32,20,20,1,8,2,4
23,7,6,1,76,22,17
2,23,0,0,20,16,3
2,26,0,4,2,2,2
2,2,3,1,36,0,2
63,6,19,1,7,5,1
13,24,10,1,10,1,15
1,2,1,7,1,1,5
30,94,4,3,8,1,2
18,30,24,5,4,5,1
2,52,6,5,6,21,0
20,13,0,2,4,3,19
8,18,0,1,3,1,5
5,16,0,1,19,3,1
30,1,2,3,18,2,2
4,0,16,3,7,9,0
1,0,7,2,22,21,17
20,57,0,1,3,15,5
37,16,1,1,1,1,1
17,1,7,4,15,1,0
3,25,37,4,5,8,2
2,6,4,2,22,6,18
0,3,2,1,35,1,5
20,19,5,2,1,1,1
11,1,0,4,1,27,1
14,3,18,5,3,12,1
2,28,4,1,9,1,17
6,7,0,1,2,1,4
17,9,5,0,2,2,2
36,2,6,0,51,0,0
4,1,19,8,18,11,2
2,36,2,4,8,9,16
2,5,2,1,2,1,3
9,6,1,1,1,19,2
3,0,6,1,45,10,1
8,4,17,2,10,12,1
59,8,5,12,13,3,18
8,38,1,2,3,2,4
2,5,5,2,6,2,2
14,3,3,2,4,1,0
1,4,18,4,3,0,2
0,2,4,7,5,0,17
26,10,8,3,35,2,4
34,1,2,1,9,1,2
2,2,11,1,2,3,1
1,1,30,3,1,18,0
24,14,4,4,0,28,18
55,7,1,2,11,3,4
3,2,1,1,5,6,1
0,1,13,1,1,22,1
31,1,22,0,70,4,2
5,17,2,5,6,0,18
42,7,3,7,2,0,4
15,2,9,1,28,2,0
10,2,25,2,70,3,1
4,3,5,2,5,1,1
65,15,18,4,9,0,17
5,13,3,6,27,4,6
0,1,18,3,3,18,0
26,2,12,1,10,7,1
10,1,2,2,10,10,3
3,23,0,1,2,4,18
22,6,0,4,30,1,5
2,4,26,2,5,13,0
5,3,32,1,1,4,1
11,2,13,1,70,2,1
4,26,1,2,8,0,16
16,3,1,6,22,1,5
1,0,27,5,29,0,2
9,2,4,1,1,2,1
5,15,1,0,20,1,2
29,15,0,1,6,5,17
23,4,1,5,3,16,5
18,2,19,5,8,9,2
2,1,7,1,4,29,0
14,2,3,0,77,3,1
1,26,2,1,12,1,19
42,3,4,2,15,1,4
6,1,18,4,21,2,2
4,1,4,2,4,8,0
6,9,1,1,15,4,2
3,28,2,2,6,1,20
0,5,29,2,1,2,6
20,1,7,7,20,0,2
2,0,2,5,16,14,2
0,9,2,2,4,45,2
12,32,0,0,1,2,17
69,3,10,1,27,1,5
11,1,14,6,13,34,2
4,2,2,9,2,4,1
21,11,1,2,53,0,1
27,6,2,3,19,2,15
9,1,9,1,12,0,5
20,0,11,3,3,1,2
7,1,3,7,1,2,1
1,5,2,4,20,1,1
4,11,2,2,4,1,18
2,3,13,2,57,22,6
0,1,25,1,3,16,0
47,0,2,5,26,11,1
43,11,1,8,3,7,1
5,11,1,1,50,1,17
2,0,12,2,8,2,6
19,1,1,5,13,10,2
5,5,1,2,9,2,1
2,25,21,1,2,1,1
3,12,4,1,0,0,17
9,1,9,1,0,0,6
11,0,17,1,12,1,2
4,13,5,4,19,7,2
7,29,2,2,3,4,2
1,7,30,4,70,1,14
59,1,10,1,8,0,6
9,1,2,3,1,20,0
5,1,1,5,6,28,2
2,13,86,4,12,3,1
1,30,47,3,20,3,16
14,6,5,0,3,1,7
3,1,20,1,18,0,1
2,12,1,1,2,3,2
20,6,39,6,1,0,2
15,2,41,4,1,2,19
5,5,45,2,41,1,7
14,49,4,1,26,2,2
1,9,1,2,3,4,2
1,3,2,2,4,1,1
3,0,38,4,2,1,15
7,3,40,3,2,0,5
10,21,3,1,0,2,1
2,23,6,3,7,6,1
1,3,126,0,25,38,1
1,2,18,8,7,12,18
15,24,2,3,1,2,7
4,31,1,1,106,3,1
1,45,39,0,8,4,0
0,5,5,4,3,1,1
4,1,0,3,1,1,14
21,0,11,5,6,1,7
5,5,92,0,41,0,1
2,27,25,1,6,1,1
1,6,4,1,1,0,1
1,0,1,7,98,1,14
12,2,1,4,37,14,6
4,39,167,3,4,2,2
2,10,16,2,5,9,2
1,2,3,1,51,18,1
2,0,5,1,5,1,16
31,6,43,4,10,2,7
8,19,11,3,15,1,1
2,7,21,0,4,0,2
0,2,1,1,1,2,0
75,2,1,1,0,25,16
60,8,26,3,103,10,8
6,11,2,7,13,1,1
1,7,71,1,2,15,2
9,1,28,1,1,25,1
9,2,1,1,1,4,17
6,1,2,3,10,2,8
2,1,48,7,19,1,3
1,3,30,3,5,1,0
0,4,6,0,1,1,0
0,1,2,0,2,2,14
0,5,25,2,4,2,6
3,16,6,6,39,2,2
10,4,1,8,27,18,2
2,2,9,4,9,1,0
3,1,4,1,6,68,14
13,1,3,0,2,14,5
4,8,7,4,4,5,3
1,5,1,3,0,2,1
0,2,4,1,18,2,2
3,2,2,1,62,1,17
5,23,0,0,5,1,7
11,54,0,4,2,7,0
2,20,26,8,0,1,1
0,4,2,4,25,1,2
1,0,23,1,3,1,14
7,0,9,2,5,0,5
4,26,1,2,1,0,1
1,27,2,6,0,9,0
0,2,33,2,10,12,0
1,1,14,2,1,1,16
7,7,2,0,10,6,6
14,4,4,0,24,15,1
2,5,1,3,24,14,0
1,7,13,6,14,19,1
1,0,13,7,2,3,15
10,4,2,1,1,1,7
21,13,32,2,1,1,2
3,2,5,1,10,6,1
0,1,13,6,5,2,0
14,7,0,3,1,1,14
44,5,0,1,2,2,6
4,16,14,1,2,10,2
0,26,4,2,11,6,1
1,3,1,6,4,1,1
4,3,14,2,0,2,13
26,6,18,2,8,2,9
5,41,2,0,2,8,1
2,6,7,2,13,30,0
1,2,26,0,3,6,2
5,1,4,4,2,0,17
25,0,2,6,6,1,9
3,19,1,2,5,2,2
2,9,12,2,10,2,0
2,1,7,1,4,2,2
2,6,2,4,6,0,14
7,21,9,2,6,1,7
18,13,2,1,16,1,2
4,1,2,2,17,1,1
26,1,11,1,2,2,2
7,0,10,4,0,12,10
2,12,12,4,1,21,7
2,63,1,2,7,2,1
2,7,17,0,34,7,2
2,1,6,0,8,5,2
3,2,2,2,23,2,11
70,51,0,3,4,1,8
21,11,3,2,24,3,1
2,2,18,2,6,19,2
0,3,12,1,0,2,1
5,17,1,1,12,1,13
39,3,4,6,2,0,7
15,2,9,0,4,0,2
1,2,38,1,10,2,0
9,1,7,0,2,9,1
11,56,1,1,7,6,13
11,25,2,5,1,1,8
1,6,3,3,19,1,2
8,2,12,2,11,1,2
19,2,7,0,3,0,0
17,6,0,1,3,1,14
4,10,2,3,22,2,7
0,2,0,3,12,1,0
2,0,10,2,1,3,0
6,1,3,1,4,20,2
11,17,3,1,6,7,14
4,5,1,2,2,30,8
2,1,1,5,22,2,1
2,0,25,2,13,1,2
13,1,10,1,6,2,0
18,9,2,2,7,2,13
1,29,1,3,3,1,8
1,1,5,12,8,0,2
1,1,31,2,29,3,2
3,0,41,0,3,7,1
15,17,3,0,15,2,12
2,10,1,1,45,1,7
0,2,50,7,4,1,0
1,27,11,5,1,0,1
26,12,1,2,4,6,1
5,3,2,1,33,1,12
1,2,4,1,14,1,11
1,0,10,4,20,3,2
8,0,3,7,4,0,1
10,10,46,2,20,0,0
16,2,5,1,11,14,15
3,1,1,1,3,23,5
2,15,18,3,3,1,1
3,24,3,5,2,11,1
16,14,1,2,2,12,0
9,6,1,2,20,2,15
2,2,4,1,25,1,4
1,0,3,2,4,3,0
1,1,2,5,4,11,1
17,13,10,4,16,6,3
8,6,2,2,7,1,18
3,8,13,1,5,6,5
0,2,9,1,2,6,0
1,2,1,4,2,1,2
10,49,1,4,14,11,3
3,17,0,2,29,3,18
2,2,1,2,11,1,5
1,1,16,1,1,0,1
5,9,38,1,7,2,1
18,19,4,7,5,0,1
3,2,1,1,11,2,17
2,2,5,2,15,0,5
0,2,14,0,2,4,2
2,11,12,1,2,16,0
19,5,1,5,19,9,0
7,2,3,7,4,13,16
1,3,14,2,1,1,5
2,33,3,1,25,1,2
3,5,1,1,39,0,1
13,18,1,3,3,3,1
8,6,18,4,6,29,17
2,2,16,2,1,3,6
1,1,3,2,3,1,0
2,10,1,2,15,2,1
15,19,1,2,21,1,1
5,2,6,6,5,1,15
1,0,33,2,7,1,6
2,15,7,0,1,3,3
2,3,1,0,14,16,1
10,1,1,4,10,25,2
2,8,27,7,6,2,17
1,29,61,6,8,0,5
2,5,5,1,3,1,1
8,18,1,2,18,1,1
14,2,1,2,10,5,2
4,1,21,7,3,15,17
1,8,14,5,13,1,6
1,40,3,2,12,2,3
4,8,1,1,16,2,0
17,1,0,0,22,12,1
11,0,16,1,27,2,18
1,0,33,6,5,0,5
2,1,2,1,17,0,1
3,51,2,1,1,5,1
20,28,2,0,2,15,1
3,4,3,1,10,10,16
1,2,21,7,12,1,6
1,6,5,6,6,1,3
8,3,1,1,3,0,0
16,5,3,1,3,2,1
5,11,8,1,26,1,16
2,4,4,3,9,0,5
2,15,1,5,4,19,1
5,16,1,3,2,16,0
21,2,3,2,23,12,1
4,0,10,1,9,24,16
1,17,14,4,5,2,5
1,19,1,5,20,1,2
12,4,0,7,2,0,2
6,0,0,2,16,4,2
1,1,22,1,10,1,12
0,12,10,1,6,1,5
2,83,5,5,2,17,1
11,10,6,5,3,6,0
16,2,3,1,23,2,1
3,0,16,1,5,0,16
1,25,2,4,1,1,6
1,4,1,3,0,1,2
6,1,2,2,0,9,1
18,2,12,2,2,4,2
15,13,1,0,8,2,14
0,17,4,1,28,0,6
0,14,1,2,5,2,1
12,3,5,5,2,5,1
9,1,29,1,9,9,1
1,21,6,1,15,1,15
0,5,0,0,2,0,6
3,2,1,2,6,1,1
7,1,2,5,2,3,0
11,4,1,7,4,52,2
3,19,11,3,12,22,18
2,12,8,0,4,2,7
5,1,0,1,8,9,2
14,3,2,3,2,3,0
2,0,18,6,2,3,0
1,5,46,3,16,29,16
1,2,4,2,4,6,5
3,11,0,2,1,0,0
15,6,1,0,2,2,0
12,1,23,5,3,9,0
6,15,3,6,9,3,14
2,10,3,5,4,0,6
2,2,0,1,19,1,0
18,0,1,1,4,1,2
8,1,7,1,4,12,1
1,4,2,6,13,5,15
1,3,2,3,3,4,6
10,3,1,0,3,1,1
20,2,19,1,1,2,1
3,10,16,4,12,1,2
1,57,4,4,3,1,15
4,8,1,1,7,6,6
14,2,1,1,3,20,3
13,2,1,0,1,14,2
1,1,10,3,16,6,0
2,22,30,6,13,1,15
4,11,3,2,4,1,8
6,1,1,2,3,0,2
14,1,4,2,3,4,0
1,24,16,2,3,1,0
0,22,1,6,16,2,14
7,2,0,5,2,0,5
15,1,0,1,2,1,2
5,1,9,1,4,32,1
1,1,12,0,7,13,0
1,1,5,2,3,2,16
4,34,2,3,10,0,7
14,17,23,3,4,3,2
5,11,18,2,2,37,1
1,2,7,2,2,9,1
1,0,3,2,9,1,16
2,1,0,7,5,2,8
14,2,2,2,2,1,2
7,2,10,0,0,2,1
3,9,4,0,3,7,0
1,11,2,1,16,1,14
0,2,1,6,2,1,7
14,0,0,4,2,1,0
15,3,8,1,1,3,1
2,25,43,0,1,24,0
0,3,6,1,9,10,15
3,1,2,2,7,7,6
17,0,2,8,2,2,1
3,3,1,2,4,1,2
2,9,29,0,6,5,1
1,5,8,1,6,1,14
2,2,2,0,10,1,5
13,1,46,6,3,0,1
6,1,11,5,0,11,1
2,10,7,1,16,21,2
1,18,1,1,5,4,14
2,3,2,1,8,2,7
17,1,2,7,4,1,2
4,3,39,5,1,1,0
1,11,8,2,1,7,2
2,4,2,1,4,4,14
5,1,1,0,10,4,8
13,1,1,4,10,1,2
7,5,40,6,3,1,1
2,21,3,1,1,28,0
2,6,1,0,13,19,17
2,1,7,1,4,1,7
19,5,2,2,2,2,2
5,2,12,7,1,1,0
1,6,31,1,2,6,1
0,7,1,2,10,2,14
1,1,1,1,3,1,7
16,0,5,2,2,20,2
5,1,6,2,1,14,1
1,27,6,6,2,3,1
0,6,3,1,21,4,14
1,3,1,0,3,3,6
13,2,2,3,2,3,1
2,2,21,2,1,9,2
1,10,16,4,1,1,1
2,1,1,1,5,15,13
12,1,2,1,11,15,7
7,3,13,0,2,6,1
9,28,35,1,0,3,2
2,15,4,6,1,22,0
1,12,1,2,6,5,15
7,3,2,1,13,2,10
18,0,30,0,4,6,0
4,3,16,0,1,4,0
1,26,3,7,0,20,2
0,7,2,6,21,9,16
4,3,0,1,8,1,4
18,1,24,0,1,2,1
4,0,4,0,2,26,3
2,24,2,3,1,11,2
1,3,1,8,9,4,18
1,2,10,3,5,0,5
17,2,22,1,0,14,2
3,8,2,1,0,27,1
1,4,2,0,1,3,1
1,1,1,5,3,1,19
8,6,1,3,8,0,5
13,5,31,1,9,34,0
6,2,7,1,2,13,1
1,6,4,1,0,1,2
0,43,2,4,3,2,17
5,3,8,4,17,2,5
18,17,19,1,0,2,2
3,18,1,2,6,36,2
1,3,1,0,5,13,3
1,1,1,4,2,4,18
3,1,20,6,9,1,5
12,1,53,2,8,13,2
2,12,5,1,4,6,0
1,6,0,2,2,1,3
0,8,1,1,1,1,16
1,1,6,6,0,1,5
23,1,18,3,2,11,3
7,6,3,1,41,13,2
3,8,2,0,3,1,2
1,1,1,2,28,2,17
0,0,14,3,19,3,4
16,6,26,6,28,43,1
3,2,2,3,14,3,0
1,9,2,0,2,2,1
2,1,1,1,19,0,17
1,23,12,2,10,3,3
18,5,3,6,3,9,1
3,3,2,3,3,11,0
2,5,2,2,4,2,1
2,4,8,1,18,1,17
2,3,31,2,4,1,4
17,26,4,7,1,30,2
5,37,0,3,2,4,1
1,10,1,0,6,5,2
2,3,1,1,5,1,16
1,1,6,2,5,0,4
10,2,17,5,5,16,0
4,19,2,4,0,11,1
1,20,11,1,1,18,0
1,1,3,1,37,3,16
1,1,19,2,13,14,4
16,13,3,7,11,4,0
7,9,1,6,1,1,1
3,1,1,1,12,23,3
1,0,5,2,16,2,19
1,1,16,1,2,2,5
12,7,5,1,3,12,1
4,25,2,5,4,2,1
3,4,3,4,4,0,2
1,1,3,0,1,1,16
1,26,14,1,3,6,5
19,3,5,2,1,1,2
3,13,3,5,1,2,2
0,1,1,2,9,7,1
0,1,13,0,9,6,16
1,0,22,1,1,4,6
9,7,3,1,1,9,0
8,11,2,2,2,1,1
1,3,2,7,2,2,1
1,3,25,1,4,7,17
0,5,15,0,1,15,5
20,2,2,1,9,3,2
5,7,2,1,10,0,1
2,9,0,5,11,12,2
1,24,15,3,2,8,15
2,2,4,2,2,2,5
12,1,2,1,6,6,2
7,8,2,0,20,1,1
2,6,10,3,6,2,1
1,1,17,5,15,1,18
0,1,17,2,1,7,6
9,4,1,1,0,5,2
17,1,2,2,20,1,1
3,24,3,2,30,1,1
0,21,11,9,11,10,15
1,2,2,1,1,13,5
7,2,1,2,3,5,1
19,10,1,2,1,16,1
1,1,15,1,2,2,0
1,1,16,3,26,7,15
1,0,0,8,5,6,6
11,2,0,3,2,8,1
9,15,2,1,9,8,0
2,2,15,0,12,2,0
0,2,26,5,4,1,15
5,1,3,7,4,7,5
10,2,2,3,8,8,2
10,16,15,1,6,7,2
1,8,20,2,7,2,0
0,0,2,2,26,2,15
2,1,1,6,2,11,4
14,2,1,0,2,21,1
11,19,8,1,4,7,1
2,3,30,1,12,1,2
0,1,8,1,3,3,14
6,0,1,6,1,7,6
15,5,5,2,0,3,2
3,9,5,0,0,2,1
1,3,14,1,7,0,2
0,2,4,1,7,0,15
2,1,1,2,9,2,6
18,0,1,6,3,11,2
2,12,6,2,2,10,0
2,3,21,2,10,2,1
3,0,3,1,9,2,18
4,0,0,1,3,16,7
15,1,1,4,2,10,2
3,5,14,1,10,4,0
1,9,18,0,8,0,1
1,7,2,2,2,1,14
2,0,1,1,0,3,5
16,1,1,6,2,2,2
2,16,11,2,9,15,0
0,3,16,0,2,9,1
1,2,1,1,10,9,13
13,22,0,0,4,9,5
8,3,23,5,1,1,2
2,26,34,3,1,2,1
0,8,4,1,4,3,1
2,9,1,1,9,5,16
6,0,1,0,5,7,6
15,6,5,4,1,75,0
3,12,16,5,0,5,0
0,6,3,1,13,3,1
1,2,1,0,28,28,12
0,0,1,1,6,2,6
10,7,1,1,7,42,3
2,33,21,4,4,53,2
0,7,5,2,10,19,1
1,1,1,2,14,5,15
5,1,0,0,3,22,7
14,9,6,0,9,5,2
4,9,22,4,2,15,2
1,2,1,4,2,24,1
1,1,0,1,2,14,15
1,0,2,0,2,1,6
15,1,2,2,9,1,2
4,14,11,5,3,26,1
1,5,15,9,3,30,1
0,11,4,2,11,32,16
1,3,0,2,3,3,6
14,0,10,0,1,118,2
5,6,7,0,1,34,1
1,9,2,5,6,2,2
0,4,2,2,18,0,15
5,1,1,1,1,39,6
19,0,30,1,1,20,2
4,4,38,1,1,63,0
0,5,2,2,6,34,1
1,2,0,4,16,10,15
5,1,1,1,3,4,5
19,1,23,0,1,91,2
2,2,6,2,2,5,1
2,27,2,2,4,172,1
1,3,1,5,9,11,13
5,0,4,2,5,42,6
11,0,15,1,1,9,2
3,1,5,1,1,42,2
0,6,2,1,6,19,0
1,39,0,7,10,160,14
1,8,12,2,4,6,8
16,7,26,2,1,6,1
5,5,1,1,1,146,2
3,0,0,0,1,6,0
1,1,2,3,16,46,14
0,55,5,1,4,9,6
17,11,22,2,1,3,0
3,4,3,1,1,160,2
0,7,0,0,4,24,0
1,9,1,0,8,7,14
6,1,3,3,2,143,6
14,4,26,2,1,92,1
4,3,7,0,1,25,1
2,19,0,0,2,9,2
0,1,6,1,12,55,10
0,0,1,6,3,5,4
16,6,16,2,2,107,1
5,11,2,3,0,129,0
2,4,3,2,1,8,1
2,3,5,2,27,13,13
6,1,17,4,7,87,6
17,0,12,4,2,15,2
3,1,2,0,0,21,0
0,23,3,1,4,2,2
1,7,2,2,6,51,10
5,2,12,3,5,55,6
14,2,9,5,1,54,1
3,34,3,1,1,38,2
2,24,2,1,2,22,1
1,2,1,1,3,16,14
3,1,10,2,6,35,7
19,0,18,6,1,168,1
2,4,2,5,0,37,1
2,79,1,1,2,79,1
1,13,15,1,1,38,12
1,1,27,2,1,26,8
13,8,4,2,0,1,1
10,4,3,4,9,106,1
0,9,1,1,3,52,0
0,1,4,0,19,113,15
4,1,18,1,2,11,7
21,0,7,2,2,72,1
2,2,2,10,3,9,2
1,16,1,1,3,78,0
2,4,7,1,9,114,13
10,1,19,1,2,11,6
14,1,3,1,4,0,1
3,11,2,7,10,264,0
0,11,0,3,1,98,1
1,1,7,1,1,28,10
17,2,20,1,17,76,7
11,4,1,0,7,14,1
1,22,1,4,2,42,0
1,5,2,2,1,76,1
0,2,24,1,2,96,12
13,5,10,0,8,11,5
5,10,6,2,6,79,2
1,1,1,2,1,108,0
1,10,0,7,0,154,0
5,10,18,2,1,16,12
10,7,6,0,2,2,7
4,2,3,1,9,59,3
1,4,2,2,2,22,3
1,10,2,9,2,127,1
1,0,12,1,5,175,12
19,1,24,1,2,7,5
4,3,1,1,5,13,1
1,33,2,1,13,133,1
1,4,1,5,2,16,1
1,1,18,2,2,53,10
14,1,12,0,8,7,7
9,8,2,2,4,5,2
1,3,1,2,12,117,0
0,2,0,1,3,7,2
6,8,27,2,2,48,12
30,30,8,2,2,115,9
6,3,1,2,12,9,2
2,4,0,2,2,126,1
0,1,1,1,2,12,1
1,1,21,4,2,13,11
15,3,4,4,3,137,9
4,42,1,1,4,35,1
0,14,0,1,1,176,1
0,10,6,0,5,48,1
2,1,36,1,1,141,12
20,2,5,1,3,39,6
5,5,2,1,3,74,1
1,21,5,0,6,13,1
1,3,2,0,1,16,1
4,1,17,4,1,2,8
18,1,6,2,0,2,14
3,2,2,1,1,41,2
1,12,2,2,32,16,0
2,11,10,0,8,21,2
1,1,10,2,1,2,10
11,1,3,5,0,6,9
7,10,1,1,7,64,2
2,8,3,1,16,22,2
1,2,1,0,8,74,1
0,2,17,1,2,12,10
14,25,9,8,1,59,7
6,31,0,4,4,2,0
1,3,3,1,5,224,1
1,2,7,1,2,59,1
3,0,29,1,0,3,9
8,8,4,2,1,1,12
12,28,1,3,2,27,1
3,18,1,1,3,42,0
2,3,14,0,4,59,1
2,1,21,1,4,6,10
21,5,2,2,2,83,9
8,7,0,3,3,5,3
1,2,1,1,1,3,0
1,2,12,0,5,169,1
0,3,5,2,1,16,10
23,5,2,2,0,36,8
4,4,0,3,7,45,3
1,0,12,1,8,37,0
0,2,15,1,14,11,0
1,12,4,2,3,40,10
13,3,2,2,2,16,9
5,4,1,2,1,199,2
0,2,5,0,2,10,1
1,0,22,0,28,1,0
2,24,3,0,2,92,9
9,32,2,0,1,44,13
10,4,1,2,1,33,1
4,1,3,0,1,7,0
2,1,10,41,2,103,1
1,3,12,69,2,6,11
15,9,0,9,1,56,9
11,15,4,0,5,3,2
1,2,9,22,0,132,1
0,0,14,112,17,27,2
2,1,3,13,4,32,11
19,11,1,159,3,1,8
2,36,1,12,1,99,3
1,4,14,32,1,66,2
2,1,16,5,2,21,2
5,2,2,1,14,1,9
13,15,1,188,1,72,16
3,25,0,46,2,39,2
1,3,28,3,7,58,1
1,2,8,58,9,12,1
6,1,1,140,5,78,9
15,1,4,67,1,40,17
5,6,4,4,7,5,1
1,4,12,0,4,60,0
1,0,6,1,3,20,1
6,0,2,0,4,51,9
16,55,1,42,2,70,15
3,25,1,5,3,41,1
1,2,9,2,0,38,1
1,2,19,75,1,94,1
1,31,3,131,20,10,10
16,7,2,112,8,57,8
4,0,1,5,1,4,1
1,2,13,1,2,64,1
2,17,9,3,2,192,2
4,7,4,13,9,9,8
13,2,1,0,13,120,16
4,123,2,49,4,11,1
0,6,18,184,2,12,0
2,1,8,8,3,109,2
3,28,2,8,5,75,9
16,4,1,33,3,7,15
2,2,2,30,1,69,3
2,40,1,2,0,39,0
0,2,11,0,7,118,1
3,32,3,57,3,4,8
22,183,0,81,3,104,12
3,10,24,4,1,114,2
1,1,20,153,0,5,2
2,10,7,51,2,8,0
3,95,2,4,22,90,8
13,7,0,53,13,122,18
3,3,1,4,1,6,2
1,1,13,25,3,55,0
1,60,4,41,2,34,0
16,22,0,53,8,43,9
11,39,0,4,4,22,17
2,4,2,173,2,36,3
1,1,20,80,0,6,1
1,20,1,9,1,88,0
10,2,1,96,2,46,9
16,33,1,14,14,18,16
0,25,8,1,2,4,1
1,1,41,58,1,74,1
2,32,5,92,2,46,1
19,3,2,24,0,4,6
5,1,2,1,2,135,17
1,16,1,21,1,55,2
0,170,29,129,1,31,0
4,104,4,11,0,69,1
12,4,2,219,4,6,7
4,71,2,46,26,15,15
2,13,1,4,5,1,1
1,6,17,101,1,83,1
0,24,12,175,3,9,2
7,1,2,55,15,113,7
8,4,19,8,7,42,14
3,0,8,28,2,3,2
1,7,11,43,1,69,0
1,212,0,107,2,13,1
3,73,0,6,1,29,6
11,6,2,11,5,84,16
3,2,18,7,2,8,2
0,31,4,59,1,2,1
1,5,1,4,5,17,0
12,0,2,244,0,3,6
9,266,3,12,7,75,15
1,116,13,1,5,61,2
1,5,7,65,5,6,0
3,14,2,39,1,40,1
7,2,0,30,1,49,5
12,42,2,15,2,4,16
1,61,11,14,20,39,2
1,86,21,44,10,11,2
1,24,2,9,2,57,0
7,2,1,3,0,97,7
22,0,1,68,2,8,16
3,1,13,22,4,0,2
1,174,16,45,7,28,1
1,61,2,26,8,37,2
6,38,2,90,2,19,6
14,60,8,27,1,127,17
3,9,17,53,7,6,2
1,39,2,23,5,84,2
1,15,1,12,1,25,0
14,27,1,6,1,45,6
5,30,4,11,2,29,18
2,42,25,71,17,24,2
2,4,3,12,2,37,0
0,263,1,107,2,14,0
30,9,1,97,2,29,6
14,1,9,24,10,29,18
2,37,18,11,4,95,1
0,18,1,47,2,45,0
2,60,1,58,2,8,1
9,4,1,15,1,33,7
8,9,7,14,13,9,14
3,54,15,20,7,9,1
1,77,3,7,3,102,1
10,82,2,50,0,25,1
7,52,2,10,2,27,8
14,15,3,40,6,12,17
3,208,21,7,26,89,1
0,46,2,49,7,70,2
4,155,2,8,2,14,1
8,38,2,2,0,116,7
11,15,2,133,4,48,17
4,21,6,51,3,67,2
1,7,12,26,2,48,1
2,152,1,47,8,67,2
23,184,1,14,1,8,5
10,20,3,21,0,16,15
2,4,20,16,35,2,2
4,1,5,51,12,30,1
4,48,1,16,1,13,1
8,40,0,75,2,27,7
5,267,2,15,1,6,14
1,40,17,2,0,146,1
0,8,5,2,11,49,2
5,43,2,34,14,5,3
23,3,2,21,1,16,7
9,66,1,55,2,2,16
1,52,15,4,1,12,2
2,29,1,13,1,59,0
0,42,0,10,2,14,2
4,19,5,29,2,15,5
18,97,11,2,6,3,15
3,6,18,56,13,8,1
2,3,0,6,3,0,1
1,63,0,36,1,54,1
10,4,3,102,1,30,6
5,28,12,4,6,6,18
1,54,6,57,5,38,2
3,13,2,14,4,18,1
2,28,0,17,1,8,2
7,10,0,34,1,24,5
8,1,18,17,0,13,16
3,24,1,15,7,2,3
1,50,1,17,2,1,2
2,5,46,57,0,91,1
11,1,25,18,3,23,3
7,63,2,9,30,5,15
2,55,16,4,4,15,3
3,77,10,20,7,42,2
1,26,1,56,3,3,0
1,39,35,9,0,39,4
17,48,11,34,0,60,14
3,4,2,25,27,4,1
2,14,1,2,3,27,0
0,16,6,63,1,74,2
9,191,13,46,1,45,5
9,176,1,22,0,9,16
4,91,1,10,3,14,3
1,42,1,11,16,87,1
1,67,1,60,15,73,0
1,28,4,40,3,5,5
17,42,3,51,1,20,16
7,38,1,5,5,103,3
1,61,2,1,0,6,2
1,8,1,31,0,38,1
21,45,52,46,5,71,5
25,3,14,4,13,6,14
6,250,0,1,10,12,3
1,13,1,157,6,1,2
0,20,36,21,10,2,2
12,48,299,13,1,15,8
6,61,18,67,0,3,16
1,62,2,8,1,99,1
28,5,15,32,12,6,0
40,118,57,10,2,22,1
31,5,65,45,1,38,4
3,275,3,33,16,7,17
0,33,1,3,11,22,3
112,88,11,50,2,3,1
81,17,45,17,2,2,1
44,3,67,30,0,44,4
4,102,4,2,15,24,17
1,90,13,54,20,17,2
14,9,26,5,5,32,2
3,4,12,69,1,45,1
46,28,1,17,5,28,5
16,6,0,66,18,5,16
7,1,16,7,6,29,2
2,85,197,1,2,3,1
127,33,7,37,1,13,1
19,30,109,15,1,4,3
2,2,18,3,4,28,13
3,101,3,4,1,4,3
113,5,0,14,1,58,0
145,17,63,29,0,17,1
5,16,40,6,7,9,4
2,160,4,7,1,27,16
31,28,0,73,6,31,3
36,7,38,7,3,3,0
2,38,4,24,1,8,0
38,6,82,15,1,2,6
36,62,184,2,7,106,16
32,36,6,47,7,9,3
52,4,2,46,2,11,0
4,159,23,14,3,23,0
2,5,163,17,0,15,5
2,20,140,1,13,33,14
27,2,9,47,3,2,3
7,86,9,30,2,77,0
1,15,80,23,1,37,0
97,1,95,2,6,3,6
59,1,11,29,7,2,13
7,10,1,8,25,79,3
1,119,10,22,2,8,1
91,22,226,1,0,19,0
8,2,24,50,0,7,5
22,159,149,48,2,2,17
57,30,50,18,1,17,4
33,3,25,2,2,35,2
2,40,25,2,2,3,1
58,27,27,0,23,15,2
22,6,19,61,24,31,16
11,5,4,19,1,6,2
12,8,17,9,1,44,1
0,64,97,13,0,6,1
176,54,17,23,34,101,3
49,3,4,8,16,10,15
9,109,4,46,3,1,2
69,16,120,20,1,18,1
23,2,7,26,0,61,0
47,4,95,7,1,116,5
58,12,14,122,2,12,16
19,1,2,5,2,2,4
215,38,57,17,1,27,4
22,4,95,2,1,23,0
5,5,13,105,2,3,4
0,0,18,16,2,2,14
136,0,6,32,14,19,2
27,204,41,9,9,15,2
130,25,82,122,2,1,0
20,17,6,8,1,1,4
3,33,87,1,12,60,14
29,4,9,3,96,69,1
65,23,125,46,8,18,1
78,16,27,16,1,7,0
8,6,52,40,4,2,3
147,15,54,11,0,2,15
5,28,60,67,47,72,1
173,79,5,11,21,7,0
13,8,1,1,2,1,0
119,4,81,12,2,85,3
31,2,125,4,1,23,17
24,47,121,28,6,11,2
76,13,6,22,2,3,2
71,122,40,11,2,2,0
6,7,36,30,1,97,3
17,43,44,5,0,21,17
189,113,74,8,0,7,3
7,4,10,2,47,4,0
89,13,73,4,23,34,0
139,10,21,0,3,4,1
11,98,2,18,15,0,14
2,23,107,7,2,63,4
158,30,10,155,1,81,1
96,2,18,23,0,10,1
11,89,10,4,1,115,4
135,35,142,7,29,16,15
118,25,6,17,38,6,3
17,41,140,33,3,49,2
8,3,27,38,1,4,1
259,6,9,15,1,100,4
22,86,56,71,1,13,16
4,29,73,5,1,3,2
3,2,29,5,1,23,1
139,9,64,47,1,11,1
36,64,73,24,45,85,2
3,6,15,3,85,5,13
9,6,6,7,12,10,3
220,200,76,6,2,39,0
6,9,16,27,97,20,0
133,77,14,17,16,15,1
110,27,14,6,23,12,18
6,59,140,27,14,27,2
10,8,5,10,33,5,2
138,27,45,5,15,17,0
104,85,45,3,2,5,3
5,10,31,37,42,3,16
101,7,65,24,60,97,3
37,2,7,34,3,26,0
13,9,2,7,48,6,0
74,87,4,2,58,11,3
86,37,61,38,91,24,16
166,12,45,37,223,17,4
12,3,9,7,9,6,0
33,4,20,25,47,57,1
55,168,41,4,13,7,3
103,12,33,68,15,35,15
49,0,4,24,13,13,2
60,1,14,12,19,9,1
60,78,34,3,48,6,2
25,20,27,39,48,4,3
3,38,15,8,74,74,14
20,10,1,2,32,15,4
193,46,9,5,4,3,0
16,52,89,15,19,4,2
59,21,23,50,31,10,1
7,2,10,5,82,7,15
111,95,20,18,43,0,4
44,10,43,78,3,7,3
4,50,18,9,19,7,2
197,14,3,1,40,127,3
77,27,27,80,2,14,16
8,1,12,16,114,52,4
1,1,50,10,160,17,2
0,31,31,18,9,3,2
94,6,13,2,8,50,2
63,1,2,4,42,7,19
5,124,38,45,11,2,5
104,35,9,3,19,11,0
24,2,0,18,75,59,1
55,20,31,19,10,33,1
44,25,22,7,30,7,17
3,39,42,36,3,1,5
28,3,3,32,8,36,2
30,2,5,3,40,25,1
241,106,67,27,4,11,1
38,6,37,4,3,2,15
3,0,8,4,77,9,3
34,47,3,15,6,16,2
29,45,17,13,54,3,1
45,24,31,36,7,2,2
3,2,9,12,1,34,16
2,1,2,25,44,6,5
69,7,6,6,10,32,1
15,66,1,5,2,31,2
96,5,18,17,35,7,2
24,2,54,17,1,25,17
2,98,6,10,3,2,4
77,19,5,3,93,7,0
80,1,23,2,9,9,1
6,62,83,15,29,24,2
80,6,6,10,7,2,15
6,42,12,20,2,0,3
214,102,14,1,7,6,0
56,4,38,69,53,15,1
5,1,25,10,16,7,2
3,2,2,10,9,16,15
86,13,7,19,14,3,4
31,28,25,8,3,34,1
61,36,8,13,8,83,1
33,13,29,1,94,6,4
21,112,6,41,7,108,16
36,15,40,3,3,5,4
1,2,42,45,9,1,2
214,1,12,17,139,29,1
29,45,1,2,8,4,2
7,14,2,2,2,65,15
59,39,10,0,46,4,3
23,29,23,3,39,9,1
2,47,19,14,26,54,0
33,6,15,36,9,25,2
6,2,24,4,2,3,15
48,1,1,20,5,33,4
22,14,0,9,1,26,0
12,82,4,2,112,16,2
10,11,62,27,29,28,0
9,72,10,1,2,3,13
2,11,1,1,79,16,5
40,2,6,18,42,12,1
25,2,6,39,4,6,2
4,90,15,26,0,60,1
101,26,10,2,29,18,17
12,2,8,3,74,54,5
2,13,3,26,12,56,1
37,1,17,17,51,7,1
40,46,30,19,32,17,2
8,5,7,12,91,15,17
142,17,55,5,6,24,5
6,1,6,13,2,17,1
14,12,9,3,61,3,1
12,17,38,1,57,9,1
17,12,25,4,86,2,16
15,10,4,5,9,33,3
23,13,2,40,68,9,1
36,6,17,5,7,2,1
3,2,23,1,2,56,1
48,0,4,3,115,25,13
57,80,1,10,21,5,4
6,30,6,28,1,3,1
14,3,28,41,1,1,0
81,63,8,26,40,27,1
11,19,8,2,13,59,16
10,39,1,6,30,33,5
6,21,15,11,30,2,2
4,3,11,4,3,42,1
1,48,17,1,66,19,1
56,2,3,20,14,6,16
114,1,1,58,12,1,4
12,0,27,12,57,4,2
5,32,21,1,4,27,0
19,9,3,11,29,40,1
12,9,6,3,70,5,15
17,15,7,27,8,44,4
17,6,4,11,2,11,1
48,7,30,21,20,16,1
5,45,5,11,1,41,1
2,40,4,42,26,5,13
14,3,6,4,5,26,5
32,3,17,37,69,8,1
6,93,22,6,55,2,1
1,25,4,9,5,14,0
37,4,7,9,38,4,15
16,14,4,1,4,0,3
53,49,12,5,11,65,2
35,4,8,36,30,18,1
3,29,35,6,3,15,2
45,12,2,4,129,2,17
12,5,1,2,22,65,5
16,1,13,17,29,49,0
41,47,12,50,9,4,1
12,43,9,13,26,2,2
1,19,17,22,2,6,16
64,14,3,5,24,55,5
27,1,9,11,39,7,2
2,45,4,11,40,5,1
29,11,2,1,18,1,0
15,25,25,12,44,43,15
146,5,37,65,41,2,4
33,8,2,12,4,28,2
42,24,15,3,2,37,2
4,32,1,5,39,8,2
26,24,23,42,29,10,15
51,15,46,6,22,40,5
13,4,2,4,2,3,3
3,1,3,8,8,27,2
2,20,27,45,43,47,3
54,6,6,5,3,4,15
16,1,8,2,1,27,4
3,38,1,18,154,15,1
16,62,1,20,12,2,1
1,5,2,2,2,27,1
207,1,20,46,15,17,16
21,30,26,5,66,38,3
3,49,3,2,5,8,2
40,4,2,22,1,1,1
9,69,32,29,0,48,0
2,16,10,2,18,18,16
39,12,3,1,37,3,8
6,6,3,29,69,73,2
1,0,7,3,7,36,1
146,138,11,64,2,11,1
6,37,16,29,1,0,15
43,5,18,22,82,33,6
4,9,2,6,23,23,2
36,82,0,3,4,5,1
10,41,29,25,21,3,1
35,4,8,8,15,49,14
81,2,8,7,44,60,4
7,32,2,1,9,5,2
1,50,0,51,15,0,1
64,4,1,9,1,5,0
41,6,25,5,15,56,14
6,2,3,8,27,19,5
6,130,4,24,17,6,1
26,17,2,9,2,6,1
20,33,29,38,15,9,1
2,5,16,27,6,14,15
2,92,3,11,3,55,3
6,7,2,2,2,46,2
89,48,0,3,33,2,1
26,64,26,11,22,17,0
33,10,13,13,35,144,15
14,5,1,22,3,8,6
54,29,10,1,1,25,1
16,69,22,15,92,15,1
7,25,6,6,12,13,2
23,6,8,15,1,4,14
3,3,4,3,83,4,4
14,1,3,1,13,21,1
4,2,20,1,2,77,1
2,83,7,57,81,22,1
102,15,5,11,8,5,12
4,0,45,8,59,13,6
16,170,113,5,10,2,1
101,64,10,0,58,1,0
3,12,2,51,16,114,2
32,3,2,4,19,57,14
39,2,4,21,24,29,6
6,1,5,2,2,5,2
91,4,13,25,2,2,2
33,11,11,92,60,16,1
15,7,6,38,4,7,13
4,1,12,9,75,75,4
18,3,20,4,14,53,1
29,41,2,3,7,5,0
2,5,14,2,2,2,1
9,17,1,11,3,1,13
110,3,40,12,8,80,4
18,1,29,27,25,10,1
2,5,1,3,3,2,0
30,35,20,75,7,1,1
18,72,14,15,61,35,13
22,6,28,32,8,59,6
6,2,3,34,4,3,0
14,1,24,2,2,2,2
72,7,13,48,17,78,1
7,13,2,6,14,39,12
65,16,1,6,7,4,4
6,22,4,9,18,5,1
1,2,22,12,3,9,0
58,0,3,3,91,4,1
33,78,16,27,24,35,14
10,64,27,1,2,14,5
26,5,2,32,2,3,2
17,1,15,5,9,123,1
1,16,13,55,21,14,1
15,17,11,5,3,4,14
1,13,10,5,22,41,5
61,2,8,16,2,24,3
3,14,29,3,45,3,0
3,1,11,17,15,1,0
112,1,3,48,3,6,15
13,87,4,2,3,32,6
1,25,16,21,3,44,2
35,3,10,19,10,4,2
12,2,2,15,13,37,0
23,2,42,2,7,33,13
8,20,4,8,9,3,7
1,13,23,3,11,27,0
0,3,11,7,11,5,1
2,42,3,14,62,2,1
45,13,37,4,7,64,13
7,56,11,25,24,19,6
51,5,9,8,3,3,2
14,21,7,2,29,1,2
4,20,7,2,3,30,1
1,86,1,1,0,5,12
2,13,9,0,5,5,6
6,2,19,42,37,30,0
3,0,27,22,17,7,0
89,71,4,2,1,34,1
18,32,18,11,15,3,10
3,12,28,1,11,3,7
0,1,5,62,24,1,3
1,3,4,4,3,33,1
15,53,1,14,17,6,1
10,15,4,5,2,24,12
34,3,30,4,8,9,7
3,9,41,9,84,6,1
9,75,5,1,30,13,1
46,10,2,16,3,4,2
6,4,1,50,1,1,14
1,4,33,28,4,4,6
1,53,9,3,16,7,1
17,21,2,8,5,5,2
91,16,7,7,11,1,0
8,2,2,24,10,24,13
2,1,31,2,22,2,7
15,3,5,27,5,10,2
84,52,1,5,2,3,2
9,5,1,37,1,1,1
19,1,5,13,39,1,12
43,13,17,2,27,1,6
11,8,8,1,12,11,1
26,3,10,1,3,1,1
2,46,3,58,7,12,0
1,15,7,42,34,2,14
45,2,32,4,15,6,7
31,155,7,5,1,9,2
5,11,1,0,0,2,0
1,2,6,3,57,0,1
1,1,21,51,27,1,11
2,0,8,7,15,0,7
95,41,3,0,2,21,3
7,24,1,2,0,1,1
109,2,20,5,73,2,2
26,27,21,6,6,1,12
3,23,5,24,20,0,6
31,3,6,4,3,39,2
3,52,6,14,80,5,1
18,11,7,24,7,3,1
8,35,52,10,24,1,12
5,26,12,15,4,1,6
14,3,1,6,2,0,1
10,0,5,14,2,53,0
0,82,7,17,30,10,0
44,30,28,9,20,2,14
25,3,15,23,2,43,6
20,0,6,7,1,41,1
14,24,6,4,40,2,1
36,15,14,25,62,1,1
20,3,7,19,5,11,13
9,137,20,6,1,87,4
2,13,4,2,23,21,1
2,28,1,11,48,7,0
3,30,37,80,5,2,2
3,8,32,5,5,3,11
65,2,4,2,19,1,5
5,1,13,3,14,1,2
2,21,31,53,2,0,1
25,43,5,20,2,5,0
15,9,1,3,1,1,10
16,7,2,25,1,2,7
5,11,21,5,107,1,1
62,3,47,33,29,1,1
14,3,10,4,11,1,0
4,4,4,19,7,0,12
1,59,11,2,1,5,6
18,67,31,14,73,4,2
32,6,22,16,6,2,1
4,15,2,3,24,0,1
1,1,1,36,16,1,10
1,201,16,5,1,6,9
87,13,22,30,22,14,2
29,2,9,5,17,2,1
3,2,3,28,17,0,0
2,9,10,40,2,0,13
39,79,24,22,6,9,9
25,6,36,3,34,8,2
2,19,2,0,5,2,2
10,42,2,2,3,0,0
15,28,1,17,25,1,11
19,17,24,6,17,3,6
15,1,15,1,3,4,1
62,3,7,16,0,2,0
15,29,4,28,12,2,1
41,26,1,7,18,0,11
12,4,19,1,26,0,6
2,13,13,7,3,7,1
17,1,2,2,3,3,0
95,20,1,8,13,3,1
13,52,9,2,1,0,14
8,16,18,54,34,2,7
4,32,24,5,5,10,2
7,35,5,28,1,3,0
1,3,2,3,4,3,2
52,33,7,4,24,1,9
13,6,3,1,13,0,15
34,69,12,6,7,4,2
18,21,2,6,2,2,0
67,2,26,11,3,1,1
8,1,39,5,6,0,10
7,14,6,1,8,0,8
18,26,2,5,2,2,2
4,3,0,2,18,64,0
2,2,45,1,89,20,1
1,9,5,8,6,2,9
1,2,3,7,2,1,13
1,51,13,2,0,0,1
79,7,6,1,62,22,1
29,3,2,2,21,23,2
138,26,24,6,25,2,9
12,6,4,4,2,1,13
5,25,30,4,56,1,1
1,3,2,2,18,1,1
6,1,13,3,3,1,1
0,3,10,5,12,0,10
1,11,10,25,4,1,7
2,15,1,3,30,3,0
11,2,8,4,5,2,2
48,18,15,3,54,2,1
5,84,3,2,5,0,11
94,21,1,46,40,1,8
75,3,0,7,13,3,1
7,85,46,4,1,5,1
2,6,6,19,32,0,0
1,16,1,6,3,0,9
34,5,2,6,44,1,13
22,1,1,2,4,4,1
2,3,20,3,81,11,1
2,2,31,3,21,2,2
19,26,14,10,15,2,10
93,3,2,5,54,0,7
68,2,1,3,30,2,0
7,1,29,1,12,2,1
1,1,19,0,6,1,0
1,20,3,1,1,1,7
30,9,1,9,44,1,18
31,5,20,3,26,1,1
11,2,9,1,28,4,1
3,9,5,2,9,7,0
3,47,7,4,0,1,11
4,5,1,24,22,0,8
146,1,17,2,18,0,1
8,1,15,1,14,10,2
12,10,1,0,3,17,2
12,26,9,2,1,2,9
3,4,5,63,2,1,14
75,3,39,15,14,0,1
14,0,5,3,85,1,1
22,8,6,2,32,6,1
4,11,5,9,2,2,10
18,10,1,4,3,1,8
4,1,7,5,22,0,3
42,0,24,1,7,4,1
8,12,2,1,6,7,0
38,15,3,7,1,2,9
2,6,16,7,56,0,16
104,5,8,4,59,2,3
7,5,13,3,11,1,1
137,12,2,2,2,51,1
11,3,0,4,49,6,8
1,2,20,10,4,2,15
2,1,17,3,1,2,2
50,0,24,1,1,1,1
8,15,6,0,1,1,1
41,6,2,3,15,7,9
34,2,15,1,2,21,16
5,2,7,6,12,2,3
23,4,0,2,95,2,1
2,44,2,0,7,72,0
2,6,11,0,2,12,7
88,7,56,6,6,2,15
12,2,4,2,9,5,1
2,2,2,2,2,67,1
116,19,0,4,16,5,2
24,77,19,5,14,1,12
7,5,18,7,3,7,10
10,20,5,21,22,2,1
3,15,1,4,51,2,0
4,4,1,1,7,0,1
1,1,3,1,1,1,14
79,6,43,6,25,1,6
58,16,4,5,16,2,1
6,13,2,5,11,0,2
1,1,0,0,2,11,1
58,1,10,0,7,3,13
8,8,18,14,2,0,5
68,28,4,22,69,2,1
9,16,2,3,11,2,2
10,2,4,2,2,1,3
4,3,7,8,1,1,14
87,6,5,4,20,1,6
11,4,2,5,9,1,0
40,9,22,7,1,0,0
6,65,8,12,14,0,1
2,15,31,0,1,4,15
41,1,32,3,34,1,8
40,7,2,33,15,1,2
26,25,10,6,4,0,2
9,27,2,1,35,1,1
37,3,24,2,2,9,15
2,0,2,22,6,2,6
45,56,1,12,2,2,1
10,18,2,2,3,1,2
20,3,18,1,13,1,0
7,0,9,5,48,1,16
1,4,4,21,2,5,6
4,21,2,5,2,3,2
123,12,0,5,25,1,1
9,3,27,13,16,1,1
3,0,9,5,3,8,15
17,44,2,13,7,9,6
78,11,2,4,1,1,2
6,5,1,1,33,0,0
3,2,15,1,63,2,1
1,1,10,10,6,5,16
0,1,5,18,1,8,6
60,34,2,6,4,3,1
51,3,1,1,2,0,1
4,32,45,1,28,2,2
85,30,19,15,4,1,15
11,6,1,3,6,10,5
2,2,1,1,3,5,2
1,1,6,2,8,3,0
65,1,20,1,4,0,1
51,22,16,11,6,2,18
4,21,2,6,22,6,8
0,1,3,5,20,5,3
38,9,31,1,8,2,2
10,30,17,1,2,1,1
1,8,1,4,5,0,15
12,2,0,12,0,9,7
19,1,1,4,65,7,2
11,44,19,4,14,2,1
2,72,24,1,4,2,0
54,6,3,2,11,0,15
6,1,3,12,2,3,5
2,1,1,2,18,10,1
1,0,7,2,3,1,0
11,2,8,0,19,2,2
46,35,1,7,19,0,15
5,52,14,7,4,6,7
50,45,6,10,3,8,2
45,4,34,2,3,4,1
5,13,7,1,2,0,0
1,2,2,1,1,1,13
34,1,0,15,9,1,6
14,18,6,3,42,6,1
13,21,22,1,54,5,2
8,10,22,0,5,0,2
30,6,5,5,2,0,13
25,2,1,10,3,1,8
6,4,14,3,27,0,0
1,11,21,1,3,7,1
7,24,9,3,1,9,1
2,3,0,4,6,6,14
0,2,4,6,4,2,7
32,15,6,17,7,2,1
8,10,2,2,2,10,1
22,24,1,1,7,2,0
0,2,0,6,1,2,14
0,0,10,17,20,1,5
5,5,3,3,2,4,2
43,29,20,2,30,10,0
21,6,2,0,2,2,1
2,1,1,11,2,0,11
2,1,16,6,29,1,6
0,5,12,2,5,1,1
6,24,3,1,2,10,0
33,2,15,0,56,1,1
70,2,1,2,34,1,11
4,2,2,12,31,1,6
1,2,25,2,2,1,1
10,20,6,3,2,7,1
45,3,1,1,1,19,2
4,4,3,6,3,2,13
14,2,8,15,1,0,8
4,13,50,1,35,2,2
1,41,4,0,4,2,1
0,3,2,1,3,3,1
2,2,9,2,8,0,13
17,1,14,10,2,0,5
10,11,3,4,33,0,1
2,7,6,0,4,8,2
2,3,1,2,3,6,1
0,0,7,2,9,1,14
12,1,39,7,2,1,7
3,19,9,21,14,1,1
1,5,21,2,1,4,1
14,0,2,1,5,23,0
30,1,4,6,0,7,10
4,16,5,13,2,1,7
2,27,15,3,2,1,1
0,3,3,2,65,2,1
2,1,2,0,6,8,1
9,7,3,3,6,3,16
23,2,21,9,5,1,6
7,9,14,5,23,2,2
3,14,3,0,3,0,1
2,2,1,1,2,16,0
1,1,6,2,9,4,13
29,2,13,10,73,0,8
104,23,9,6,10,2,2
3,6,1,3,1,2,1
0,1,2,2,2,7,1
109,2,23,2,53,4,10
25,5,5,12,17,1,9
3,10,24,5,6,0,2
1,4,4,0,1,1,2
24,2,2,1,20,4,2
46,1,34,1,7,4,13
11,2,6,5,3,3,7
56,8,1,4,1,2,2
4,17,0,1,23,1,0
16,4,4,0,53,2,1
2,2,7,1,9,6,10
1,1,17,15,4,1,7
1,27,4,5,2,0,0
1,12,4,3,7,1,1
2,2,1,0,10,0,1
1,0,19,1,10,12,11
2,7,15,7,6,3,8
3,62,5,10,4,0,1
10,11,1,1,2,2,1
8,1,2,1,3,3,1
20,0,18,2,7,13,12
2,8,19,8,2,2,8
9,24,2,6,0,2,2
2,3,1,2,18,0,0
10,1,5,2,6,3,1
2,1,22,0,32,9,10
1,2,18,2,4,2,9
1,39,3,10,40,0,2
18,6,25,2,13,1,0
8,0,22,1,6,0,1
3,6,6,1,1,18,15
1,20,0,3,3,3,7
1,9,2,11,1,1,2
0,2,14,3,3,0,2
0,1,11,1,0,2,0
21,1,2,0,112,10,12
43,8,1,8,14,4,5
4,20,0,5,2,2,2
4,3,6,5,12,1,2
1,1,26,0,62,1,2
0,2,8,0,6,5,11
1,7,7,0,1,12,9
0,5,1,15,6,1,2
16,0,8,2,1,0,1
2,1,5,2,1,0,2
1,0,22,1,26,6,14
51,9,4,0,2,7,8
27,12,1,13,4,1,2
12,1,5,4,23,0,1
2,1,16,1,57,1,1
2,1,9,1,3,15,10
0,7,5,0,1,7,9
6,15,1,11,3,1,1
10,7,1,4,1,1,2
3,5,28,0,22,1,0
0,1,8,1,6,2,12
0,7,2,1,1,7,10
9,21,2,8,5,3,0
8,1,4,7,1,0,0
4,0,30,3,13,1,2
0,1,8,1,30,1,17
7,3,1,1,39,10,5
4,13,0,5,4,1,1
20,2,0,8,6,2,2
3,1,8,3,0,2,0
1,1,17,1,1,4,14
1,7,2,6,38,22,5
1,10,2,1,3,7,0
12,2,3,9,1,1,1
4,1,27,5,64,0,0
2,0,6,1,5,2,15
45,15,3,0,15,6,6
42,17,2,2,2,5,1
5,2,2,10,6,1,1
2,0,17,4,1,1,2
1,2,12,1,2,1,17
2,12,0,1,35,6,5
3,8,4,1,26,7,0
12,2,19,14,10,2,1
1,1,9,6,1,1,0
0,1,1,1,0,0,15
2,18,1,0,2,4,4
4,8,1,2,3,17,1
16,5,6,11,49,2,1
3,1,3,5,8,1,1
1,0,2,2,2,2,16
0,15,0,2,1,3,5
18,1,44,1,0,4,2
17,2,15,15,71,1,0
1,1,7,5,15,2,0
2,6,1,1,2,0,16
0,19,1,1,2,2,7
10,3,0,12,0,10,1
8,2,6,4,43,4,1
2,2,11,5,9,1,1
0,3,0,1,4,2,16
1,14,1,1,0,1,3
10,22,10,1,64,8,1
14,3,66,6,8,8,2
4,2,8,9,1,1,1
0,2,2,1,8,1,14
1,24,7,3,7,0,6
17,5,79,1,3,5,1
1,0,29,1,12,5,2
0,0,2,5,2,2,1
1,6,2,1,1,1,13
1,17,1,1,17,0,6
4,2,1,1,6,1,1
1,2,11,4,14,21,1
1,2,6,13,1,5,0
0,9,2,6,1,1,16
3,9,2,1,3,2,5
22,5,1,0,15,1,1
10,2,2,7,7,8,1
4,0,6,13,80,1,1
2,0,30,3,28,0,15
14,3,16,1,14,1,5
34,26,19,0,1,0,1
3,6,14,3,1,5,0
18,1,0,8,34,9,1
4,1,0,5,4,2,15
1,6,0,1,11,1,7
0,12,100,1,4,0,1
5,2,27,2,5,5,2
9,1,2,15,0,6,1
26,1,6,3,12,2,16
7,12,91,1,22,0,6
4,6,37,1,3,1,2
1,1,2,0,14,4,0
2,0,76,10,24,4,1
2,2,8,4,38,4,14
13,16,15,1,3,0,5
24,9,177,0,4,1,3
4,2,9,3,6,1,2
2,2,2,17,34,5,1
1,1,18,3,3,6,16
5,13,42,2,1,3,7
16,10,5,1,1,2,2
6,0,2,1,13,1,0
5,0,71,10,14,5,1
24,2,155,7,3,8,16
1,11,6,0,23,3,6
15,11,3,2,14,0,1
1,2,1,0,2,0,0
2,2,1,6,2,10,0
21,17,9,4,32,7,15
18,22,29,2,2,1,5
6,3,3,2,0,1,1
2,0,48,0,25,2,2
5,9,3,8,23,1,0
21,19,2,10,5,8,14
21,12,19,2,2,2,6
9,0,7,2,13,0,1
8,2,13,2,2,0,2
3,9,51,4,2,1,2
22,1,4,11,1,9,15
3,1,1,2,1,6,6
1,10,61,1,7,2,1
11,51,6,0,16,0,1
5,2,2,4,1,2,2
4,16,61,6,2,7,18
16,4,49,5,2,8,6
3,0,8,0,5,3,1
2,2,5,1,9,2,1
4,7,22,2,3,2,1
15,46,11,13,7,4,16
7,26,0,2,17,8,7
2,3,9,2,19,4,1
0,2,74,1,11,1,0
2,23,6,1,9,0,0
9,13,0,11,1,1,14
20,2,43,5,5,5,6
4,1,38,2,17,6,2
2,6,5,0,8,4,1
0,21,1,5,3,2,2
15,11,1,9,1,0,12
2,2,2,3,10,6,4
2,1,15,2,58,6,0
0,1,21,1,6,3,1
1,1,4,0,2,2,0
26,4,7,5,117,1,13
6,22,7,5,127,2,4
15,1,6,1,28,9,2
1,2,79,1,3,2,0
6,25,11,0,3,1,0
23,6,1,7,2,0,14
1,3,4,11,5,1,5
1,2,23,5,16,8,1
3,9,1,0,7,5,0
18,6,0,1,3,3,0
4,1,22,7,5,1,14
6,2,5,9,20,0,6
1,1,4,2,2,6,1
1,2,45,2,2,8,1
12,31,4,0,1,1,1
17,5,2,9,3,1,14
2,1,0,9,14,1,7
1,7,32,4,3,1,1
2,1,15,2,3,7,1
24,14,2,1,25,3,1
10,6,0,2,7,0,14
1,2,20,9,3,0,5
0,1,5,6,14,0,1
5,4,2,1,2,8,1
16,2,0,1,51,4,0
8,9,0,0,37,1,14
2,4,11,5,14,0,8
0,3,2,9,1,1,2
7,2,1,10,2,2,1
13,13,0,2,7,5,1
4,5,7,0,8,29,9
2,1,21,2,0,4,12
0,2,8,2,1,0,3
1,1,1,0,0,2,2
13,13,1,0,4,6,1
5,8,3,0,16,3,14
1,1,3,2,7,1,10
1,2,14,14,1,0,1
1,0,0,6,0,1,0
20,24,1,2,5,9,2
6,7,1,2,17,4,18
1,0,16,4,9,1,4
1,0,2,6,6,0,1
2,2,0,3,1,0,2
17,23,3,1,22,10,1
2,38,35,1,7,4,20
1,3,43,1,5,2,4
1,3,7,11,7,0,0
4,2,0,7,1,0,1
2,23,2,1,13,8,2
6,9,15,0,21,5,15
3,3,20,1,12,1,3
3,2,3,9,2,1,1
1,1,1,11,2,1,2
3,9,1,1,20,4,3
16,6,7,2,16,8,16
9,1,19,1,1,4,4
2,0,0,18,11,1,1
2,0,1,5,26,1,0
3,10,25,0,18,2,3
19,4,19,1,5,13,17
4,8,2,2,1,2,4
1,3,0,11,11,2,0
1,3,1,4,36,0,0
7,12,3,1,5,1,3
13,23,10,1,18,10,16
3,2,17,1,12,3,5
1,2,2,10,11,1,1
1,1,0,5,20,2,2
11,13,5,0,1,1,1
14,36,2,2,2,5,17
0,5,11,1,1,3,4
0,1,20,6,30,2,2
2,3,3,6,92,0,1
26,31,4,2,8,2,1
9,7,14,0,2,6,15
1,1,2,2,11,4,4
1,2,0,5,15,1,0
2,0,4,9,4,1,1
15,4,16,7,2,0,3
5,3,10,3,9,2,19
2,2,2,0,17,5,5
1,11,0,1,6,1,2
0,3,1,14,1,0,1
20,19,15,4,18,1,1
4,5,8,0,16,3,15
1,2,0,0,25,12,4
2,1,1,3,6,2,1
0,23,4,10,2,1,1
29,24,39,3,2,0,1
9,2,13,2,18,2,18
3,1,1,1,6,6,5
1,0,2,3,1,5,2
1,3,1,11,18,2,0
6,23,18,4,34,1,2
18,2,6,1,6,1,15
5,2,1,1,3,4,3
3,1,1,0,14,7,2
1,2,9,5,3,2,1
11,24,16,9,17,0,0
6,23,7,3,5,1,14
1,2,2,2,6,5,4
1,0,2,3,3,15,2
2,8,1,4,1,1,2
9,6,18,10,2,2,3
15,1,5,1,3,1,15
2,2,2,1,8,4,3
1,2,1,2,49,14,0
2,2,1,8,6,1,0
11,26,15,18,9,2,0
5,6,12,1,23,0,17
2,2,0,3,14,4,7
1,1,2,2,1,11,1
1,11,7,7,7,3,1
14,10,18,14,3,0,1
11,1,3,1,23,0,16
0,0,0,0,4,3,5
1,1,0,1,1,9,3
5,3,2,8,2,3,2
4,15,30,11,14,1,1
13,2,22,1,10,2,14
2,1,3,1,8,8,5
2,2,2,0,5,11,0
10,15,9,5,2,3,0
31,6,2,7,8,2,0
3,1,1,2,15,2,17
1,3,17,2,1,0,4
2,24,5,1,3,7,1
4,20,15,3,5,2,0
12,3,5,11,5,1,2
1,1,1,1,10,2,17
2,1,1,1,2,0,5
2,0,1,0,1,11,1
3,24,18,16,1,3,0
22,10,20,3,8,1,1
3,3,3,2,6,0,17
2,1,0,1,2,0,6
0,24,5,1,0,4,1
4,15,39,3,3,4,2
24,3,5,6,13,2,1
1,1,0,2,8,1,13
1,5,2,1,11,1,5
1,2,1,1,3,9,1
2,13,14,2,6,9,1
7,12,14,16,10,0,0
7,0,0,3,4,0,15
4,2,0,2,3,0,5
2,6,6,1,0,1,2
2,2,16,1,2,9,0
26,2,12,8,15,3,0
9,0,0,4,6,0,14
2,2,0,2,3,1,4
0,29,2,1,4,1,2
4,7,3,0,1,4,1
14,1,20,5,2,7,1
6,2,1,7,23,3,16
1,1,2,1,4,1,5
2,19,32,2,1,1,2
1,6,17,2,11,5,0
9,2,3,8,7,5,1
9,0,1,12,11,3,15
4,51,2,4,6,1,5
0,26,19,1,9,1,3
0,5,4,3,4,1,1
11,1,1,6,2,6,2
11,0,2,5,1,4,15
1,2,23,14,21,2,5
0,23,20,3,3,0,2
2,8,5,0,1,2,1
9,2,2,1,7,6,1
8,2,2,9,17,9,16
3,9,2,4,3,4,7
2,20,5,2,2,1,1
0,17,16,1,10,1,1
12,3,1,1,23,4,1
8,1,2,9,4,11,15
1,17,2,7,6,1,5
0,21,1,2,3,0,2
2,3,15,0,9,2,0
20,1,1,1,9,2,1
9,0,3,6,6,5,16
2,5,8,4,3,4,7
1,15,17,2,3,1,2
3,6,3,1,2,0,1
9,2,1,0,14,1,1
12,1,3,5,5,7,14
2,16,17,9,2,11,6
1,2,26,3,0,2,1
2,1,2,0,4,1,1
8,1,1,2,7,1,1
15,1,2,1,24,7,15
3,21,12,6,3,4,5
0,9,4,7,1,1,1
2,2,2,1,1,0,1
14,0,18,1,21,0,1
13,2,2,1,9,3,14
3,8,16,8,2,5,5
2,36,7,12,1,1,1
0,11,1,2,2,0,2
14,1,0,2,14,2,2
5,1,14,2,3,9,14
4,31,25,6,1,8,8
1,5,5,7,2,3,3
9,0,2,1,2,2,1
3,1,1,2,3,1,1
9,11,3,0,10,1,15
2,16,10,1,2,6,7
1,5,1,3,0,5,3
2,2,0,10,2,3,1
13,0,1,3,15,0,1
10,5,33,1,2,3,15
2,20,14,2,1,9,6
1,3,2,16,0,5,2
0,1,0,6,2,1,1
14,1,4,1,22,0,1
4,9,19,1,7,1,15
1,24,9,2,3,1,6
1,2,1,11,1,6,2
2,1,1,2,2,3,0
12,22,0,1,21,1,2
5,9,18,0,12,1,15
0,5,22,4,1,1,8
1,2,2,6,2,9,2
1,1,2,2,0,5,0
11,1,6,2,7,3,1
6,5,19,0,7,1,16
2,24,4,1,2,1,7
1,6,2,16,5,12,1
2,1,1,3,4,7,1
15,1,32,2,9,2,1
6,8,31,1,4,1,16
1,28,6,1,1,2,6
1,5,2,14,38,5,3
2,2,2,7,6,12,1
16,0,2,2,5,2,1
4,1,18,0,1,0,16
2,26,1,0,2,1,6
1,8,2,9,1,5,1
2,2,2,8,1,7,2
12,4,7,2,4,1,0
6,12,14,1,6,2,13
1,6,1,1,4,1,7
1,3,1,6,1,2,2
0,1,2,10,0,8,1
4,1,6,1,6,5,0
13,5,19,1,15,1,14
1,25,2,2,3,1,9
2,5,1,6,6,1,2
0,2,0,11,2,10,1
12,0,1,2,8,4,0
9,1,18,1,18,1,15
1,14,22,1,3,1,8
1,3,1,3,1,1,1
0,1,0,16,1,7,0
9,1,10,2,5,8,1
15,2,7,1,9,1,13
1,3,2,1,4,0,8
0,29,2,3,1,2,1
3,4,2,5,1,2,2
9,1,14,2,1,8,1
15,3,12,1,2,0,11
2,8,1,1,41,1,7
2,6,2,2,12,2,1
5,2,8,8,42,4,1
18,0,24,4,9,8,0
10,1,12,2,2,4,12
1,13,2,0,7,2,6
2,3,2,1,11,1,1
1,2,6,7,2,0,1
11,1,27,8,1,10,2
6,1,2,1,13,3,13
2,5,2,1,5,1,6
1,6,1,0,15,1,2
4,2,4,8,2,0,0
13,1,34,14,14,6,2
2,0,7,2,11,2,12
1,14,2,0,1,0,9
0,21,1,0,0,1,2
0,3,16,4,1,1,0
12,1,12,11,5,7,0
4,2,2,7,2,6,13
2,24,0,1,1,2,6
1,6,2,1,12,1,2
14,1,15,2,5,1,0
9,2,8,15,13,3,1
4,2,3,3,3,8,13
1,17,2,0,2,2,7
1,22,6,1,2,1,2
1,3,14,8,2,0,0
13,1,17,12,14,1,2
4,11,2,3,7,6,12
2,16,0,0,2,5,8
2,1,1,2,0,1,2
1,0,19,9,5,1,0
15,5,6,5,12,1,2
11,12,2,1,22,4,12
2,11,0,1,2,7,7
2,1,0,2,14,2,1
3,0,23,2,11,1,1
10,3,15,9,4,0,1
3,38,1,4,1,4,11
1,7,2,0,0,9,8
1,1,0,0,2,2,2
2,6,9,0,5,2,0
14,1,5,4,3,0,1
2,2,1,10,2,2,11
1,0,0,1,7,6,10
1,0,12,2,2,6,3
10,13,20,4,20,4,1
14,10,5,5,1,1,1
1,20,0,7,2,1,16
1,5,1,3,42,1,4
1,1,6,2,2,7,0
7,1,24,2,9,2,0
11,1,2,6,20,0,5
1,4,1,5,1,0,13
0,1,1,2,2,1,5
4,1,2,1,1,10,2
2,2,12,2,1,3,1
14,4,17,3,9,2,2
11,22,1,5,10,0,19
1,4,1,3,2,1,4
0,2,13,0,0,6,3
13,0,6,1,4,2,1
4,1,2,2,5,2,2
1,17,1,12,3,1,19
0,10,2,5,3,1,3
2,2,9,1,2,9,2
9,2,19,0,2,1,1
9,6,7,0,8,0,2
0,5,1,11,5,2,17
1,17,1,3,1,2,4
10,5,7,2,1,2,2
10,2,6,1,1,6,2
3,2,2,2,18,3,3
2,23,2,14,2,1,15
1,8,0,6,1,1,3
5,0,3,2,1,0,2
11,1,17,1,7,12,0
13,2,3,0,2,5,1
2,4,2,10,17,2,19
0,3,1,4,1,2,4
1,1,18,1,1,2,1
21,1,15,1,29,6,2
2,20,2,0,8,4,2
1,15,0,3,3,1,16
0,11,2,3,4,2,5
2,2,14,3,1,0,1
11,1,16,1,1,5,0
1,5,1,1,3,3,1
1,18,1,9,10,2,17
0,4,2,12,1,0,6
1,0,14,1,3,2,2
30,2,6,1,4,10,0
4,2,2,1,13,6,0
1,1,2,2,1,3,16
2,15,2,9,0,1,5
2,7,29,2,0,1,1
12,2,5,1,9,2,0
3,4,2,0,14,7,2
1,14,0,2,5,2,15
0,3,1,14,2,1,5
6,1,17,2,1,1,2
6,3,5,2,1,2,1
7,7,2,1,1,19,3
1,19,2,3,6,4,16
1,3,1,11,4,1,5
1,2,28,2,1,1,1
8,0,25,2,1,1,1
13,8,4,1,5,13,1
1,12,1,5,11,3,17
2,3,2,7,2,2,4
1,2,19,14,2,0,1
20,2,3,1,2,0,0
6,8,2,0,10,5,3
1,20,0,2,8,5,16
1,2,3,8,3,3,5
15,1,15,4,1,0,1
17,0,6,2,3,1,1
3,9,2,1,2,1,0
2,4,0,0,3,4,14
0,2,1,11,2,1,5
4,1,15,6,2,2,1
14,0,14,2,4,2,1
2,3,1,1,3,8,2
2,42,1,2,2,6,16
1,6,6,5,1,2,6
5,1,4,7,8,2,2
13,0,1,1,6,0,0
5,3,10,1,1,2,2
0,9,1,1,5,8,17
0,4,8,5,13,4,5
10,1,13,18,2,0,2
13,2,2,1,1,0,1
4,1,2,1,1,1,2
1,14,2,2,7,3,15
0,3,6,6,3,11,6
9,1,9,20,1,2,2
17,2,2,2,0,0,0
1,8,6,2,2,2,0
0,10,4,1,13,14,16
1,4,4,10,6,4,5
12,1,2,8,7,1,1
4,0,7,0,1,0,1
1,1,6,0,1,1,1
1,5,1,0,15,18,14
0,5,4,3,16,9,5
10,1,20,19,3,2,1
6,1,6,2,12,2,0
2,1,2,1,5,0,2
0,8,0,0,14,4,13
1,15,1,12,2,7,5
8,1,16,5,1,3,2
13,0,6,2,2,0,0
1,1,2,0,14,0,1
2,9,0,0,6,1,18
2,19,0,9,5,15,5
7,1,14,4,4,4,1
14,0,7,2,0,1,0
2,1,1,1,6,3,1
0,16,1,1,39,3,14
3,6,2,1,3,7,6
8,1,22,11,1,4,1
14,0,16,3,1,2,1
1,2,3,2,13,2,0
1,6,2,1,11,4,14
6,9,3,3,2,9,6
5,1,9,12,1,4,3
20,11,3,2,0,0,0
2,7,1,1,25,0,2
2,11,0,1,8,1,16
0,4,8,2,2,6,7
3,0,23,4,1,9,2
15,0,8,8,9,4,1
2,1,1,4,3,1,1
1,16,1,1,19,0,14
1,14,0,1,2,5,7
7,3,14,13,1,9,1
15,1,5,12,2,1,1
3,8,2,0,13,2,3
1,19,0,1,5,5,17
1,3,2,1,2,2,5
4,0,15,10,3,7,1
19,0,8,8,1,3,0
1,4,2,2,1,0,2
1,16,1,2,2,1,14
2,6,0,7,6,1,6
9,3,22,6,13,5,1
21,1,9,2,0,8,2
2,2,3,2,10,2,2
1,8,1,3,3,1,14
1,8,2,85,0,0,5
8,1,21,31,6,1,0
10,2,6,1,6,4,0
1,0,1,0,4,4,0
1,2,1,1,1,1,15
0,3,1,3,1,0,5
5,14,22,15,1,0,2
12,16,13,42,1,10,1
2,2,1,42,9,5,2
0,23,3,7,7,1,15
0,12,8,123,15,1,6
8,1,24,20,2,5,1
16,3,8,2,6,38,1
1,23,2,2,18,3,1
2,16,2,0,15,0,15
0,15,3,0,4,0,5
3,1,19,2,1,50,1
26,3,3,69,1,22,2
3,26,1,27,3,4,1
1,15,0,1,3,1,14
0,2,1,109,2,6,6
3,1,17,5,2,79,1
12,0,7,22,2,37,1
3,16,1,2,4,3,1
1,4,1,149,9,51,15
1,2,3,32,7,15,8
5,1,19,3,5,1,1
4,2,6,114,1,10,1
1,16,2,10,1,54,1
2,2,1,3,18,3,15
0,2,3,0,9,12,6
3,0,21,96,3,70,1
8,27,4,199,1,4,1
7,24,2,121,1,2,1
1,6,0,28,5,44,16
0,1,2,2,10,17,6
1,2,25,0,3,117,1
14,2,7,25,1,5,1
6,26,2,243,1,1,1
1,22,2,11,13,11,13
2,3,3,4,24,90,6
5,0,20,1,12,43,2
25,10,12,0,2,3,1
5,9,4,115,9,227,1
0,2,1,217,5,32,14
0,1,6,41,4,3,6
0,1,12,10,1,44,1
6,2,4,68,1,9,1
7,3,0,55,2,19,1
2,14,0,4,2,12,16
2,5,15,3,7,2,10
2,2,36,1,1,48,1
8,19,3,0,0,12,1
21,16,1,5,1,222,4
4,2,4,15,1,11,19
2,0,19,163,0,13,5
0,5,6,5,4,3,1
5,8,2,12,12,20,1
10,3,3,55,4,80,3
2,1,22,17,1,29,19
2,1,9,173,5,65,4
2,7,3,6,2,11,0
2,13,2,203,0,15,0
2,26,1,7,2,21,1
2,2,1,69,14,82,18
1,5,15,183,2,24,4
0,13,6,9,1,64,0
1,5,2,150,10,14,1
16,31,0,75,9,213,3
5,4,0,4,3,15,18
2,0,30,10,3,121,4
2,0,13,47,2,10,1
4,134,2,56,9,3,1
9,52,0,82,22,153,2
5,3,3,18,4,73,14
1,0,14,49,3,5,4
0,8,4,143,2,18,1
1,26,2,146,0,26,2
6,151,1,5,4,32,4
15,47,1,3,5,114,16
2,17,13,37,3,181,5
1,1,9,53,2,11,1
2,11,2,29,19,41,2
7,310,2,22,1,102,3
45,15,2,36,2,13,16
6,49,30,79,6,113,4
1,15,8,79,1,42,0
1,5,1,5,10,62,2
3,23,0,0,5,26,3
23,17,1,25,2,10,16
2,1,14,119,17,96,3
0,1,6,87,3,20,2
4,3,2,75,0,27,2
6,6,2,4,0,77,3
8,29,2,130,5,14,17
3,89,13,52,16,49,4
1,12,5,19,9,6,1
0,98,1,114,3,101,2
1,18,0,3,1,31,3
12,1,3,84,2,13,16
4,2,21,77,5,6,3
3,56,5,15,1,22,1
1,8,1,1,0,32,0
6,37,1,219,7,4,3
22,19,1,26,3,80,16
3,1,25,14,1,9,3
2,2,12,13,15,40,0
1,15,3,131,4,71,1
1,18,1,26,2,5,1
6,32,18,11,13,81,18
4,141,15,13,2,26,4
3,9,1,7,0,3,1
0,2,1,12,65,6,1
4,5,0,127,6,72,2
13,55,4,5,5,112,18
6,18,13,7,5,5,4
1,11,1,190,54,1,2
0,27,0,28,6,99,0
6,3,1,57,2,5,2
30,1,24,38,1,207,17
8,58,5,83,2,10,3
1,46,10,79,1,33,2
1,3,1,42,2,11,1
2,205,1,155,9,26,1
9,27,25,7,14,6,19
2,3,5,17,8,55,4
3,43,2,190,5,29,2
2,22,1,8,2,7,1
0,67,3,9,0,85,1
5,6,25,29,1,134,17
14,1,6,39,0,14,4
1,3,1,6,10,13,1
1,22,0,217,1,2,1
0,47,1,27,0,123,3
4,11,27,19,6,28,16
16,5,7,23,20,84,5
1,29,2,19,26,26,1
2,3,0,24,3,21,1
1,70,0,21,0,23,2
4,71,5,6,1,148,17
13,23,12,11,13,7,5
2,17,2,37,5,118,0
2,3,2,3,1,21,1
0,1,1,153,9,143,2
9,0,19,6,8,8,17
21,0,11,4,13,33,5
3,57,2,25,4,11,1
1,89,1,58,2,97,1
1,8,8,5,2,12,3
1,2,13,111,6,167,15
4,12,2,80,10,13,4
4,0,3,6,1,50,1
15,77,0,86,1,46,0
0,86,3,8,4,21,2
3,82,27,1,24,65,15
15,11,4,1,3,17,8
9,0,1,271,2,73,1
2,0,0,14,5,33,0
1,211,10,27,2,34,1
15,15,17,3,5,21,17
3,322,1,115,4,2,5
1,25,0,34,4,172,2
15,3,2,44,6,9,1
8,27,18,190,9,207,1
1,68,5,125,2,11,15
1,4,2,3,2,60,3
16,10,1,79,15,115,2
23,12,7,103,1,16,1
1,169,32,74,0,20,1
0,37,27,23,2,20,16
1,3,5,116,17,3,3
18,197,2,143,11,49,1
2,15,1,7,1,28,1
1,15,16,120,9,9,2
5,94,5,38,2,17,14
6,100,2,99,8,34,6
2,102,0,6,5,21,1
0,5,2,90,2,56,2
0,2,14,9,6,15,2
87,26,2,29,2,1,16
260,33,0,7,5,97,7
19,22,0,1,13,32,2
3,1,2,118,1,40,2
95,87,1,43,2,144,2
30,7,22,46,13,5,16
4,18,90,3,11,38,4
1,74,7,21,12,11,1
32,21,65,48,3,2,0
41,231,29,29,4,26,1
3,52,6,139,30,66,17
1,4,46,74,6,8,6
1,95,19,5,2,4,2
1,102,2,24,2,15,0
40,5,59,105,1,57,2
12,1,41,20,8,7,12
2,116,4,17,23,33,5
16,48,2,5,3,16,1
34,41,10,7,1,3,1
3,3,0,156,1,28,2
27,15,1,25,38,8,15
44,2,0,46,4,14,4
10,110,8,5,2,14,0
43,88,2,14,0,45,1
10,5,4,3,1,112,2
1,34,8,93,0,35,16
86,25,8,13,9,11,5
172,2,48,88,10,80,1
7,127,4,15,3,7,0
12,33,1,14,1,4,1
62,7,39,29,1,34,14
4,1,146,9,1,12,6
5,18,5,15,13,26,0
8,74,23,13,4,26,1
1,23,24,18,1,11,1
0,31,2,86,2,12,15
7,231,1,23,14,2,5
4,23,6,17,5,47,1
37,87,1,7,1,53,1
4,7,16,33,44,23,2
3,1,11,3,9,18,14
107,36,1,1,8,26,6
53,46,35,85,3,87,1
12,4,39,11,2,65,2
4,84,11,16,1,79,0
58,20,7,23,1,8,14
24,58,0,29,6,3,6
13,10,5,68,3,51,1
60,26,53,7,7,7,1
4,6,31,63,3,5,2
47,5,2,91,1,52,15
102,112,1,22,7,15,5
9,23,30,4,13,18,2
2,3,27,9,1,39,2
1,1,9,185,2,12,0
167,195,2,14,3,18,14
14,211,2,2,2,6,6
2,10,1,5,6,24,2
247,18,3,96,14,2,0
13,22,1,9,1,109,1
7,3,41,72,1,12,13
0,111,48,12,3,34,5
103,14,9,43,12,3,2
21,103,3,3,1,2,1
159,11,8,29,7,5,2
7,34,69,8,3,46,15
12,5,7,5,5,27,6
1,63,1,7,4,1,2
156,59,2,4,1,9,0
30,19,31,133,1,23,1
5,1,13,41,24,32,14
106,17,45,11,14,20,4
6,5,6,30,2,14,0
2,48,1,8,3,8,0
8,4,1,2,2,62,1
3,122,88,23,4,80,13
57,8,57,51,26,11,7
9,29,3,14,3,3,1
9,3,8,8,2,1,1
22,12,9,4,1,11,0
56,2,29,56,6,143,16
4,2,48,15,7,25,5
0,69,4,4,1,3,2
54,264,88,103,1,7,0
16,14,85,21,6,53,1
7,2,7,9,0,8,13
2,61,11,116,6,32,6
6,5,20,99,11,3,1
4,3,55,9,7,10,1
84,11,6,36,3,0,1
36,50,22,68,1,77,16
3,18,41,24,4,20,6
23,23,31,17,16,7,1
56,7,166,111,2,29,0
9,1,3,41,0,68,2
2,234,45,26,1,10,13
77,59,158,21,8,3,6
34,86,14,54,6,35,3
5,44,6,21,2,18,2
50,4,30,45,1,40,1
9,1,72,7,2,5,14
11,78,8,50,13,16,5
3,6,3,21,1,2,1
5,178,0,3,1,9,2
97,32,90,52,1,15,1
10,23,122,3,2,30,14
17,1,11,82,3,3,5
25,22,5,29,19,26,1
62,131,13,3,3,4,0
20,38,60,15,2,23,3
2,6,44,105,2,14,14
0,95,2,6,4,3,5
135,15,80,114,1,41,1
7,2,414,19,8,16,1
2,124,17,86,1,12,2
69,119,3,44,2,43,12
57,8,12,11,5,11,6
5,2,18,11,7,1,1
6,192,179,2,4,1,1
4,18,14,9,1,32,1
76,9,3,2,1,44,14
6,99,43,74,4,13,5
3,30,41,29,6,3,2
1,65,14,7,5,11,2
1,7,153,30,2,23,2
39,2,5,1,1,135,12
134,113,47,36,2,19,6
31,16,317,77,4,50,0
5,1,38,9,8,3,3
2,50,2,2,1,2,1
24,34,179,5,1,32,11
33,60,166,62,1,19,6
3,4,6,45,2,12,0
10,2,3,4,13,19,0
13,37,0,1,4,0,0
6,141,0,7,1,22,13
2,8,106,6,1,58,7
0,73,340,37,1,53,1
18,7,25,12,6,6,0
21,28,2,2,3,4,1
7,28,3,13,0,1,12
7,91,133,33,2,102,7
13,8,95,88,1,22,1
1,1,5,12,3,2,0
35,39,3,6,7,8,1
9,209,327,36,2,4,11
1,18,54,10,0,174,7
48,5,4,12,1,12,3
41,14,0,3,2,62,1
4,15,247,80,4,7,2
1,63,37,34,5,33,14
42,4,7,3,3,25,9
46,8,2,35,3,31,2
6,5,46,53,7,19,2
34,2,332,25,4,115,1
1,4,18,16,4,11,12
13,130,2,64,1,16,8
56,6,222,18,0,2,2
6,45,42,23,1,14,2
2,11,4,16,6,52,2
0,1,4,4,1,32,12
73,30,89,58,0,36,6
14,91,46,65,0,7,2
2,10,3,17,1,2,1
3,0,43,70,2,10,1
4,179,186,18,9,134,12
15,40,31,51,5,8,9
48,7,7,61,2,33,2
5,1,27,4,0,7,2
0,91,3,24,1,7,0
68,23,0,47,8,4,12
58,22,97,57,1,57,7
4,4,42,53,1,5,3
2,118,6,17,2,0,2
0,8,54,82,1,46,0
35,301,21,25,23,19,10
7,37,2,12,7,10,5
11,6,1,10,0,6,1
3,5,3,51,0,3,2
1,2,241,48,7,19,1
80,17,189,42,16,45,12
29,2,7,37,4,11,5
4,148,2,27,2,44,2
2,30,4,3,2,4,1
1,4,49,69,0,64,1
74,2,31,29,9,21,9
9,14,74,3,4,12,13
1,4,5,9,5,106,1
13,2,3,105,1,10,1
5,1,2,10,0,4,0
10,43,2,37,9,55,9
23,2,21,15,5,36,14
14,194,153,13,1,10,2
15,25,7,35,1,2,1
21,107,3,74,5,22,1
28,6,34,7,2,1,12
3,61,4,27,7,69,7
4,5,2,20,3,5,3
38,2,54,9,3,2,1
5,27,9,30,2,19,0
0,45,37,31,0,16,13
1,19,4,28,2,51,8
45,6,30,2,14,4,2
6,38,39,40,2,2,0
3,17,43,10,3,5,0
16,135,38,16,0,8,11
6,8,10,8,7,45,6
44,19,78,6,5,39,1
13,4,6,17,5,9,1
4,30,42,23,2,46,1
13,36,60,12,1,17,12
8,42,11,3,25,3,8
6,2,56,38,6,48,2
21,2,7,10,2,11,1
1,62,0,11,0,54,0
22,37,163,33,0,20,9
35,191,64,8,24,1,16
4,72,6,2,61,51,2
4,6,2,64,3,11,0
31,2,19,45,39,7,1
8,2,14,6,9,19,8
9,39,22,4,2,3,13
20,66,1,93,1,6,2
2,5,2,20,31,43,2
16,6,69,5,9,4,1
81,2,94,31,0,0,14
54,118,7,18,2,6,5
4,72,1,12,70,15,1
6,14,1,8,66,14,2
1,1,8,2,11,36,2
13,181,115,7,2,7,11
32,14,6,40,17,0,9
17,1,3,47,47,11,2
1,3,34,5,19,50,1
0,92,18,23,1,3,1
10,9,3,2,1,1,13
11,56,2,106,233,2,7
6,3,19,9,169,144,1
1,63,39,3,8,10,0
9,7,14,5,73,20,0
10,18,1,13,188,16,9
12,121,20,53,10,8,15
2,6,20,18,1,2,2
19,44,19,4,9,38,2
22,128,86,29,2,58,1
6,9,10,47,178,19,11
1,2,2,13,133,4,10
1,6,2,8,5,9,3
25,1,4,29,2,7,1
29,93,76,55,1,3,1
3,32,13,10,2,28,14
2,38,3,6,2,19,4
26,3,12,30,227,6,2
86,13,1,7,62,4,1
10,2,16,22,5,0,1
6,59,22,47,3,39,13
2,8,3,15,48,7,3
14,62,77,4,165,43,1
19,16,92,180,21,24,2
16,2,7,58,15,16,1
3,64,26,5,102,29,14
0,31,3,3,28,2,6
35,9,2,5,121,7,2
26,5,14,9,4,0,0
2,6,33,14,1,55,0
2,47,2,42,173,61,12
29,30,2,6,30,5,3
15,8,5,6,46,5,2
12,3,14,2,4,25,0
7,1,6,1,3,1,1
2,0,12,82,46,3,12
24,4,6,22,4,15,5
12,10,7,34,114,1,1
8,32,21,3,112,148,2
5,48,6,0,5,15,1
10,25,13,77,9,19,15
27,6,3,29,1,28,5
4,50,0,9,102,2,3
1,9,0,2,7,6,2
9,2,27,21,7,2,0
12,167,136,88,69,2,16
13,7,7,13,5,0,5
5,2,1,19,69,13,3
2,5,2,14,6,55,1
0,2,72,19,1,6,1
1,65,42,43,76,1,13
30,38,6,15,19,51,3
18,4,2,17,1,6,0
12,64,6,23,6,8,1
2,6,12,5,7,38,1
0,31,2,1,14,2,15
43,10,2,33,20,43,5
13,37,27,15,4,4,1
3,7,2,6,0,88,1
1,3,12,26,57,10,0
19,1,48,75,3,10,12
77,6,10,5,101,29,5
14,35,3,13,8,2,2
1,54,1,2,2,23,1
1,26,99,2,1,58,1
6,78,12,13,92,5,13
46,7,10,10,4,41,4
4,13,28,9,74,103,1
1,2,7,1,11,6,2
38,13,3,3,79,8,1
3,64,17,53,75,2,13
11,10,7,14,7,1,6
12,12,10,4,3,1,1
13,12,2,3,24,1,1
30,9,5,3,131,59,0
2,5,26,5,6,55,13
26,42,2,31,60,5,4
21,6,49,18,31,1,0
8,2,32,9,32,31,1
3,101,9,93,15,31,0
2,5,3,54,21,3,13
12,29,6,9,24,13,6
47,2,14,27,28,13,2
3,49,11,18,3,9,1
0,53,14,35,49,22,2
12,5,18,3,21,4,13
7,43,23,2,28,12,6
6,46,3,1,88,25,1
1,8,1,23,86,11,0
0,4,1,25,20,6,1
9,1,120,7,25,2,12
18,4,5,17,28,27,5
32,26,7,11,45,37,1
2,28,13,1,4,21,0
10,17,8,15,80,5,3
4,15,32,23,67,2,12
2,37,3,2,68,4,6
8,73,0,2,15,33,2
2,23,22,87,22,9,1
5,20,34,11,45,16,0
9,4,2,21,16,12,13
19,6,1,8,4,9,5
3,38,31,21,35,2,1
12,15,12,16,102,59,0
15,116,6,9,31,8,2
45,22,1,5,45,1,14
4,18,30,2,11,52,6
63,18,8,5,13,60,0
42,7,34,57,1,5,1
6,3,14,8,122,9,1
30,6,2,5,25,52,13
8,4,1,82,3,4,7
9,139,1,22,2,19,2
9,8,60,15,2,24,0
29,4,41,3,16,12,1
7,15,3,4,17,3,12
1,7,1,46,31,25,5
0,69,17,12,2,2,2
69,18,4,1,115,4,1
25,29,1,1,25,2,0
1,5,2,37,81,46,12
2,3,21,41,7,6,6
6,4,2,23,1,47,3
4,13,29,1,120,5,0
13,6,33,2,71,53,1
9,4,22,24,4,15,15
3,141,22,2,2,4,8
2,11,3,53,17,5,2
0,10,5,5,232,2,0
38,1,17,4,10,100,2
22,13,5,77,48,26,13
26,49,21,9,5,3,7
3,73,54,32,37,17,2
29,5,4,49,74,3,1
35,23,2,3,43,21,1
4,23,2,38,5,51,15
15,5,38,5,3,5,6
3,7,79,2,5,2,2
14,59,6,15,60,29,2
3,5,2,84,3,10,1
26,2,55,12,61,1,12
2,0,18,2,12,188,7
0,12,1,38,65,12,1
0,83,2,24,14,0,1
29,35,0,35,2,2,0
2,2,51,3,5,0,10
1,2,18,4,35,4,6
11,175,2,5,14,4,1
19,14,5,69,7,26,1
5,2,7,14,2,13,1
1,6,50,3,123,6,13
13,2,5,1,9,5,7
2,20,2,14,2,24,1
68,92,17,3,23,36,1
6,9,42,21,38,4,2
19,47,3,6,10,29,12
20,97,8,54,1,6,7
2,8,2,69,8,30,1
62,27,0,9,17,11,0
5,35,8,4,21,3,1
8,14,23,27,4,6,15
1,41,11,3,50,9,8
20,20,1,53,21,42,1
9,11,83,6,2,16,0
2,29,61,3,34,2,0
1,11,4,19,17,23,12
19,3,3,19,10,5,7
16,0,2,3,3,12,1
28,9,13,31,11,1,1
9,35,22,36,28,17,0
17,39,3,9,52,25,12
31,16,4,35,13,4,6
3,6,1,5,2,0,2
1,0,10,2,1,1,1
11,74,54,3,43,45,2
41,24,5,17,57,50,12
12,5,1,27,5,6,6
7,10,0,21,6,0,0
3,21,41,11,9,14,1
1,3,74,39,5,4,0
1,1,7,14,12,36,13
62,1,3,44,18,9,7
16,52,4,4,35,12,1
13,41,39,2,2,6,0
3,3,10,5,98,13,0
5,45,3,32,15,25,12
41,34,3,2,3,3,8
3,3,24,17,1,1,1
33,58,24,19,9,2,0
15,6,2,24,44,11,2
2,0,1,6,6,1,14
24,113,5,1,3,25,9
10,15,69,4,26,3,2
13,5,22,13,38,65,0
2,1,5,42,2,37,1
10,44,0,7,2,3,11
6,21,43,2,13,41,7
1,16,48,1,59,23,2
0,10,4,1,13,15,1
5,2,0,35,1,2,0
7,11,1,22,33,46,10
37,2,21,9,9,13,8
4,0,5,5,6,1,2
31,4,1,7,54,1,2
26,16,48,20,25,60,1
3,63,22,35,50,28,13
0,9,2,4,8,14,7
1,2,14,3,3,12,2
2,28,41,13,19,1,1
26,72,14,6,73,1,1
20,32,1,8,7,2,14
2,19,9,5,6,15,7
0,2,2,67,2,2,2
73,113,0,40,9,59,1
35,9,4,18,70,4,1
3,2,16,4,12,36,12
1,0,12,47,23,5,8
30,31,2,5,11,7,2
24,30,10,10,1,2,2
2,5,4,1,86,13,0
0,1,36,14,28,10,10
6,1,11,61,15,57,7
3,2,1,9,19,9,1
0,285,0,76,8,6,1
1,23,9,9,2,16,1
2,4,28,53,7,4,10
26,19,37,42,99,8,9
17,18,5,13,63,41,2
2,2,5,12,4,53,0
0,0,26,36,2,6,1
4,1,6,12,3,2,10
1,2,16,21,5,18,7
17,37,3,3,118,66,1
47,55,27,8,5,4,0
6,5,17,89,145,11,0
1,10,2,6,26,25,10
2,1,0,1,2,5,7
1,51,1,15,33,15,2
22,21,25,8,27,11,1
81,2,31,26,2,2,2
6,3,2,26,160,1,11
8,34,2,4,8,89,10
16,14,25,3,37,23,0
20,43,14,37,81,7,0
2,81,17,19,40,3,2
2,104,5,41,2,30,16
9,6,11,6,1,3,4
4,2,4,60,27,20,0
6,9,6,45,111,114,0
22,8,9,19,5,5,0
2,8,3,5,125,3,18
25,4,2,143,17,1,4
22,22,22,9,3,13,1
2,48,44,4,3,37,1
33,13,3,1,127,10,1
4,3,2,28,20,14,13
12,9,6,11,16,7,3
7,3,15,30,72,12,0
2,6,2,30,8,23,2
7,1,33,17,2,3,0
2,34,22,14,39,38,15
3,7,20,18,31,45,5
34,26,18,4,67,4,3
12,5,9,11,8,22,1
2,1,4,6,21,42,0
6,2,26,36,51,4,13
13,0,4,9,16,25,5
9,62,15,18,14,3,0
7,67,58,11,91,65,1
2,7,3,58,11,12,2
25,29,4,3,78,25,15
1,112,39,17,25,4,5
1,4,8,54,3,8,2
24,139,0,7,12,9,1
8,6,1,15,10,25,2
2,1,40,3,25,2,16
5,5,45,13,3,4,4
3,16,5,62,213,49,1
7,11,1,6,31,4,1
2,4,3,93,3,14,2
1,17,29,17,2,1,15
36,1,23,5,93,2,4
8,50,7,4,19,137,3
2,4,2,22,2,21,1
0,2,4,4,0,2,0
34,0,14,21,105,49,16
15,24,7,86,30,4,5
2,13,7,11,7,20,1
0,2,2,1,40,22,1
42,0,24,20,12,22,2
12,1,45,59,28,2,11
4,9,4,21,2,3,4
3,40,1,28,16,9,1
1,3,1,30,4,1,1
2,22,21,32,1,0,0
4,29,28,19,11,13,13
0,13,6,4,41,6,3
13,1,0,1,45,15,2
3,10,36,54,14,9,1
34,1,20,23,12,2,0
4,7,34,64,34,1,13
2,2,2,8,14,1,6
86,32,2,2,70,40,0
8,19,34,38,5,4,1
5,1,6,12,84,3,0
9,31,1,25,5,6,14
4,13,2,19,32,6,4
0,10,30,15,14,6,1
1,27,34,3,30,2,1
1,3,22,6,5,20,1
62,1,7,30,2,4,17
10,1,2,35,0,0,4
2,2,27,4,110,5,0
1,2,14,2,10,0,0
19,4,9,12,23,1,3
34,39,10,2,3,1,16
9,6,0,7,27,12,4
2,2,29,3,10,11,1
1,3,9,25,34,0,1
23,0,1,87,4,1,0
29,9,0,27,2,1,13
2,12,2,19,80,56,5
6,3,28,2,8,199,1
26,1,53,3,1,18,2
9,13,23,1,125,2,0
2,17,8,1,10,1,13
1,19,15,14,12,2,5
23,1,37,2,24,6,1
8,12,4,1,7,79,0
6,14,13,38,2,7,0
17,5,1,3,48,45,15
1,1,0,2,38,60,6
16,49,120,22,9,6,1
31,43,16,10,8,37,1
7,4,3,9,19,71,2
2,0,1,27,12,6,14
3,1,27,24,2,74,4
10,9,42,3,38,7,2
8,12,26,12,22,1,0
15,32,3,6,18,157,1
11,2,2,3,5,18,14
2,1,6,64,10,2,5
1,0,55,13,2,1,1
25,45,46,44,52,1,0
37,18,16,3,10,30,1
6,4,4,36,1,10,16
1,1,14,24,24,56,6
12,10,12,2,46,5,2
4,14,7,6,13,1,0
2,2,3,8,31,1,1
7,6,1,21,10,2,11
4,1,55,3,6,33,4
25,9,8,1,8,23,1
5,30,14,4,4,3,0
6,1,11,3,6,2,0
12,2,32,10,54,21,14
27,37,7,14,41,3,4
4,12,14,1,3,2,0
3,9,1,3,3,1,1
0,33,1,35,14,0,2
6,7,40,9,13,2,15
12,12,35,2,22,1,6
3,6,18,0,40,2,3
1,7,32,38,5,1,2
9,6,4,5,35,0,1
15,3,2,24,56,0,13
46,0,3,5,41,1,6
26,1,26,2,6,1,2
3,3,11,0,2,1,2
1,9,82,3,59,1,1
21,8,69,22,92,1,12
13,2,6,4,10,1,5
3,32,0,3,5,1,1
4,19,7,11,6,1,1
15,2,11,7,16,14,1
3,1,81,12,13,39,12
1,16,8,2,2,3,3
4,18,18,1,24,2,1
1,5,3,5,45,23,1
14,6,74,11,86,4,0
8,17,10,5,19,0,14
27,9,19,2,4,0,6
16,9,55,10,22,0,1
2,3,13,2,15,3,1
0,0,11,11,4,7,1
11,10,6,7,4,6,12
9,38,1,3,26,2,5
8,3,4,1,17,0,0
2,9,86,5,2,2,0
2,4,55,9,14,17,3
18,2,5,4,65,9,15
45,42,38,0,22,2,7
6,10,6,1,15,0,2
2,1,40,2,17,3,1
23,13,14,7,35,17,1
13,11,0,7,44,13,14
15,28,106,4,3,2,6
3,2,88,3,21,3,1
1,0,9,0,2,2,1
5,1,2,0,1,18,2
23,23,0,20,38,2,15
21,7,98,1,37,2,5
16,2,27,1,36,12,2
3,3,3,4,25,23,0
29,2,3,5,11,4,2
6,19,5,7,13,3,9
1,10,28,3,3,2,10
1,3,25,2,22,1,2
1,3,13,0,29,10,0
51,2,3,3,6,3,0
5,22,5,9,58,1,13
1,23,6,2,11,1,7
0,3,8,10,11,1,1
9,5,47,4,17,85,1
21,32,15,1,9,16,0
7,14,3,6,10,16,14
2,32,45,1,44,1,3
2,2,17,2,5,4,1
20,9,11,1,25,2,1
16,32,19,3,25,12,0
4,6,52,3,3,3,10
1,1,3,18,28,1,10
23,1,4,1,36,8,2
13,25,54,0,8,16,2
10,38,30,1,9,1,3
1,6,3,9,3,0,14
0,2,7,5,19,2,2
0,3,11,2,96,1,1
56,11,0,1,19,16,1
28,22,27,1,8,26,3
2,2,153,6,1,3,14
27,4,10,8,1,0,4
3,5,2,3,112,1,0
23,19,3,1,10,9,1
4,5,57,0,34,8,1
1,1,63,1,2,2,14
0,28,7,16,43,2,3
24,7,1,8,52,3,1
3,17,1,1,15,11,2
34,21,0,2,6,0,2
22,1,29,1,1,2,14
21,20,29,13,1,3,3
9,7,2,3,38,4,0
6,4,1,0,60,7,2
1,2,2,2,11,4,0
1,5,9,2,16,2,16
1,8,52,9,10,1,3
25,7,13,5,7,24,1
3,12,15,2,24,24,0
6,8,30,2,9,2,1
4,3,6,0,21,12,19
20,1,2,8,3,1,5
11,12,31,6,1,6,2
1,8,53,1,15,13,0
17,1,3,2,61,1,1
10,1,2,2,59,0,13
5,5,3,10,20,1,2
2,47,9,11,5,1,1
39,5,13,2,56,12,1
8,1,11,0,9,2,1
3,1,3,3,3,1,15
21,2,19,2,4,2,5
17,19,40,6,5,28,2
2,8,8,1,7,16,2
11,2,9,6,1,2,1
6,1,22,0,1,2,15
4,2,6,6,73,1,3
6,25,4,4,34,6,2
3,8,1,1,49,7,0
3,2,1,0,8,2,1
30,1,50,0,53,0,13
3,7,27,2,14,4,3
0,32,12,12,4,25,1
95,3,2,4,21,20,1
30,1,1,1,22,18,1
12,31,5,1,20,2,13
5,3,23,0,2,0,4
0,16,127,13,90,3,1
1,5,21,1,9,3,0
17,0,14,1,39,1,1
7,0,3,1,9,1,15
2,0,35,1,31,1,5
1,22,20,8,11,2,2
0,4,1,2,1,2,1
37,1,54,1,10,1,1
35,0,28,0,15,0,12
4,18,5,2,13,13,4
0,23,2,10,4,24,1
15,3,0,4,23,5,1
129,1,144,2,52,1,1
7,2,55,1,9,1,16
11,8,4,1,0,2,4
2,21,2,5,22,0,0
5,3,58,6,20,2,2
5,1,72,2,5,0,1
1,12,7,2,3,0,12
0,8,2,2,37,2,4
2,2,1,6,18,21,2
9,4,14,8,4,17,1
25,1,25,4,23,2,1
3,16,28,2,29,1,15
1,6,63,1,27,1,5
0,12,14,1,1,7,0
16,2,1,9,1,4,0
16,1,124,4,54,1,1
3,1,8,0,18,0,13
2,16,85,0,2,0,3
1,11,21,2,32,2,0
18,1,1,13,21,8,1
5,1,6,7,36,2,2
3,3,134,5,24,1,10
1,12,22,0,15,2,3
1,5,23,1,68,3,0
13,2,9,11,16,14,2
14,2,0,4,2,2,1
8,2,1,1,2,3,12
2,18,2,0,71,1,3
1,4,42,1,30,1,1
6,2,11,9,30,9,0
18,0,2,9,35,1,2
2,7,38,3,5,1,14
1,33,23,0,1,2,3
14,5,2,2,13,1,1
14,2,96,2,53,3,1
2,3,57,12,29,4,0
1,13,5,1,2,2,15
1,34,12,1,1,0,4
11,3,135,1,56,1,1
14,0,11,5,76,3,1
1,1,85,10,9,5,0
1,9,6,2,18,2,16
3,24,6,1,3,1,4
9,7,64,1,1,0,1
16,3,18,5,14,0,1
2,3,1,9,73,9,2
1,6,35,2,5,2,14
0,12,49,6,1,2,6
9,4,109,1,1,0,1
16,2,67,10,2,0,2
2,0,6,9,36,7,0
1,8,11,5,45,5,17
2,15,79,1,18,2,4
6,6,6,2,18,1,1
37,2,1,1,3,0,1
8,1,60,11,21,1,1
1,15,126,2,32,5,13
0,12,8,1,14,1,4
7,7,2,0,2,2,1
8,1,1,3,3,0,2
2,0,2,6,7,0,0
0,4,18,2,47,8,16
1,13,5,1,34,10,5
0,3,1,2,11,2,0
44,1,27,2,23,2,1
14,0,3,6,9,2,4
2,11,0,4,44,3,15
1,9,8,1,17,2,4
3,1,1,1,6,2,0
18,1,1,1,3,0,1
2,4,1,6,17,1,1
1,8,110,10,37,2,13
0,9,30,3,5,8,4
7,3,2,1,28,2,1
20,2,4,1,21,0,1
1,1,150,7,18,0,1
1,3,8,9,3,2,12
2,21,1,3,1,8,4
8,4,43,1,0,4,2
17,1,105,0,8,1,0
2,0,10,0,1,2,4
1,7,1,9,2,1,15
1,15,103,3,13,1,4
1,2,24,2,15,7,2
25,0,3,2,109,16,0
2,0,0,0,14,2,1
1,2,0,10,4,0,19
2,17,4,3,18,7,6
9,5,103,1,3,18,2
14,1,31,0,7,2,1
1,2,2,0,1,0,0
3,9,2,8,1,1,15
2,15,33,13,6,7,4
8,2,45,1,26,2,2
18,1,38,2,40,2,1
10,0,3,1,49,3,1
4,3,87,9,7,0,11
2,23,108,5,2,7,6
4,5,4,2,6,17,1
17,2,5,2,2,0,2
2,0,0,0,51,1,1
1,3,36,8,12,0,11
0,13,270,15,1,3,3
11,1,11,2,3,7,2
15,3,20,4,88,2,0
1,1,14,0,46,1,1
1,2,2,3,16,0,15
5,18,44,8,10,1,7
12,11,33,3,18,1,1
6,1,6,0,35,0,2
1,1,2,1,30,9,0
2,7,1,1,4,0,10
24,11,20,11,1,2,4
35,3,5,3,2,6,1
3,0,16,1,2,4,1
1,2,22,2,61,1,2
10,14,31,0,9,1,12
4,13,56,8,70,1,5
5,2,6,5,9,3,2
14,0,11,1,36,5,1
2,2,3,0,19,1,1
1,18,17,2,37,0,13
17,3,21,8,7,1,4
6,2,17,7,3,1,0
6,2,24,1,3,7,1
1,2,1,0,2,3,0
1,19,3,2,0,1,11
16,5,141,1,66,0,9
6,3,11,9,18,1,3
3,1,64,3,4,6,2
3,2,25,2,17,4,0
2,17,32,3,24,2,12
25,7,40,1,9,2,6
4,1,4,15,3,0,2
1,3,72,3,7,15,2
1,2,39,2,2,9,1
4,13,3,0,2,1,14
13,4,1,5,3,0,4
6,1,11,11,42,1,2
1,1,20,1,29,5,2
1,1,19,1,40,6,0
4,18,5,1,3,4,12
18,3,40,1,1,1,5
3,1,3,8,67,1,1
1,0,0,4,35,0,1
1,1,24,2,21,1,1
35,15,34,2,1,14,14
16,6,3,1,28,12,7
3,2,59,6,32,1,2
0,0,69,8,41,2,1
1,14,6,2,17,6,1
6,7,1,2,10,1,12
20,6,28,0,24,1,9
2,2,68,10,77,2,2
1,2,13,5,6,1,1
1,2,2,1,25,10,1
7,18,1,2,7,3,8
7,6,0,2,13,1,9
7,2,21,6,1,1,0
1,0,26,13,24,7,0
0,1,20,2,20,10,1
2,16,29,1,39,2,6
7,5,5,1,37,1,14
