HandOpen,HandClose,Wrist Flexion,Wrist Extension,Supination,Pronation,Rest
20,0,1,9,4,2,2
14,2,5,4,2,5,1
9,2,8,1,1,3,1
4,4,8,1,2,4,0
2,13,5,2,1,3,1
2,17,5,4,2,4,1
1,20,2,6,2,1,2
2,12,2,8,5,0,1
1,5,2,11,16,2,1
1,3,2,12,31,2,0
1,2,1,13,31,0,0
2,2,1,11,21,0,0
0,1,1,5,12,1,2
8,2,1,3,7,0,1
15,2,7,3,1,2,8
17,0,12,0,3,3,12
17,0,11,1,1,2,16
14,1,11,2,0,6,15
8,2,7,2,0,3,12
4,5,2,2,2,2,9
2,7,2,2,1,2,13
2,7,1,2,2,2,14
0,4,2,6,4,0,5
2,3,1,8,15,1,4
1,1,1,8,24,2,3
1,0,1,5,25,2,1
2,1,2,1,19,1,1
5,2,1,2,10,1,1
7,1,9,1,4,1,2
5,0,11,2,3,1,1
4,0,9,1,0,4,2
4,0,4,1,2,5,3
2,2,2,1,13,3,4
2,5,1,2,4,2,11
1,2,2,1,1,2,1
4,1,2,2,1,1,1
13,1,5,0,5,1,1
3,2,13,1,24,1,3
1,14,1,2,18,6,11
2,2,2,11,0,1,2
2,0,15,7,2,1,2
12,0,3,0,9,1,2
1,1,5,0,15,1,2
2,5,2,1,3,1,21
1,5,2,12,2,5,4
6,2,1,17,1,1,2
10,1,1,2,4,0,2
2,2,5,1,33,2,5
1,18,1,5,7,1,17
0,16,1,18,1,5,2
6,1,3,9,1,4,2
20,1,2,2,6,2,1
4,1,9,0,24,1,9
2,14,2,0,2,2,12
0,4,2,9,1,1,1
6,2,1,8,2,3,0
8,0,2,2,2,0,0
2,1,12,0,10,2,2
3,14,2,1,17,1,12
1,8,1,6,1,3,2
4,1,0,16,0,5,1
11,2,1,2,5,1,3
1,1,1,0,24,1,4
1,6,2,1,7,1,12
1,1,4,11,1,1,5
0,1,2,8,5,2,1
8,2,1,2,4,2,0
3,5,6,1,8,1,1
0,14,2,0,3,1,6
1,5,3,14,1,2,5
1,2,0,9,9,5,1
7,0,8,2,12,4,1
9,2,18,1,2,2,2
1,5,7,1,2,1,7
1,7,3,5,1,2,6
0,2,2,0,0,2,2
1,0,1,1,9,7,1
10,4,3,1,15,2,2
7,19,7,2,5,1,3
2,12,6,1,2,2,10
0,2,0,5,2,2,1
1,2,0,2,4,8,1
7,1,5,1,13,1,1
1,20,12,1,1,0,7
0,5,6,1,1,1,14
0,1,1,11,1,1,0
1,1,0,7,15,5,2
11,1,0,2,15,4,1
3,2,7,3,2,1,15
2,14,12,0,1,1,16
0,5,1,3,10,0,1
1,1,1,3,18,1,2
6,2,3,2,4,8,0
5,11,12,1,1,1,10
0,14,3,2,1,2,3
1,1,1,7,1,2,1
3,0,1,33,25,1,2
12,5,3,15,23,2,2
4,3,2,2,3,1,9
1,1,1,2,1,0,21
1,1,8,1,6,1,2
2,6,3,2,24,1,0
13,4,2,0,8,2,0
3,1,4,2,2,5,1
0,7,16,1,2,1,12
1,1,2,5,4,0,6
2,1,0,2,22,0,1
11,0,17,1,3,1,1
3,5,5,0,0,2,5
0,16,5,1,6,1,3
1,3,2,5,2,1,0
0,0,0,6,3,1,1
14,1,0,3,0,1,1
7,1,1,0,0,2,4
1,2,5,2,6,2,15
0,2,2,0,12,1,2
1,1,1,12,4,3,0
10,1,1,11,5,1,1
3,1,1,1,14,3,3
0,4,12,2,3,6,8
2,9,4,16,1,2,2
0,4,0,19,7,1,2
9,1,2,5,21,1,0
3,1,8,1,3,1,2
1,0,24,2,0,6,2
1,8,5,1,0,2,1
3,3,2,3,30,2,1
8,1,0,3,3,1,2
9,1,2,2,3,3,2
2,4,8,1,2,10,8
1,13,7,6,16,1,7
0,4,2,9,7,2,1
2,1,1,1,1,1,2
8,2,15,2,0,1,2
6,0,12,0,2,3,3
1,18,0,7,6,1,11
1,6,0,7,34,0,3
2,0,1,2,11,1,1
9,2,0,0,1,0,1
10,2,11,2,0,3,9
1,7,13,2,15,2,13
1,5,2,1,27,2,2
1,2,0,22,3,2,1
10,3,8,5,2,1,2
15,0,14,1,2,3,3
2,9,3,0,14,5,17
0,8,0,6,15,1,3
0,2,1,11,1,2,1
10,1,6,2,1,1,0
2,1,1,1,9,1,6
0,8,0,0,5,5,12
1,13,0,1,0,4,2
0,3,3,8,2,2,2
9,2,8,5,1,1,1
4,2,8,3,1,2,4
2,5,10,1,18,7,1
2,14,2,1,20,7,1
1,2,1,6,3,2,2
6,0,2,5,1,2,2
3,2,12,1,10,2,3
0,13,7,0,28,3,27
2,12,1,0,2,6,12
1,1,1,6,2,2,1
2,0,10,10,0,2,0
4,0,8,3,4,1,3
2,10,2,0,1,0,11
2,1,3,6,4,4,2
0,2,1,16,1,4,1
4,1,0,4,11,1,0
8,2,5,1,39,0,1
3,6,17,0,4,1,14
1,5,2,0,1,3,6
2,1,1,1,0,3,2
2,0,1,11,1,2,0
8,0,0,7,17,1,6
5,13,2,1,15,1,15
3,15,0,2,1,5,3
2,2,6,1,1,8,0
2,2,1,9,1,1,0
8,3,5,3,19,2,3
17,17,6,1,15,1,10
4,17,0,0,0,1,5
1,3,0,4,1,2,4
1,0,1,3,5,0,3
2,1,10,0,18,1,2
11,15,4,1,22,0,3
3,5,1,2,2,1,2
0,2,1,2,1,2,0
0,1,7,6,6,7,1
3,3,16,7,12,1,5
8,18,10,2,1,1,6
3,1,1,1,2,1,3
1,1,1,1,0,0,2
1,0,1,8,9,4,0
3,1,12,4,23,1,9
18,7,11,1,4,1,20
3,8,1,0,1,1,6
1,1,2,8,9,1,2
1,0,1,8,26,6,1
0,2,14,14,6,5,1
5,9,6,3,1,0,0
5,11,1,1,1,2,8
1,2,1,0,1,2,2
2,0,3,1,1,1,1
1,1,2,1,18,2,0
9,5,7,2,7,2,1
23,2,3,1,1,3,10
3,1,1,6,1,1,0
1,1,2,6,8,1,1
4,2,1,5,30,5,1
22,2,14,1,8,3,13
5,9,1,0,1,2,24
1,3,3,2,1,2,2
1,1,1,2,16,3,3
1,0,7,11,15,8,1
13,5,10,4,3,1,2
13,12,1,0,2,2,6
3,3,2,2,0,0,1
2,1,5,3,7,0,2
0,3,2,11,10,2,1
8,6,1,8,4,1,2
7,16,1,2,0,0,6
1,6,6,3,5,1,3
2,3,2,1,21,1,1
2,2,9,0,5,5,1
5,0,14,2,1,3,1
3,18,1,1,0,1,16
1,5,1,1,2,0,18
3,4,4,1,29,2,3
2,1,8,0,5,2,1
4,1,1,5,2,5,2
13,3,2,6,2,1,13
2,1,0,0,2,1,4
2,4,0,2,21,1,1
1,6,9,2,17,2,8
2,3,5,14,2,4,5
7,2,1,6,1,9,8
2,5,1,0,4,1,1
1,2,2,1,30,1,1
0,1,4,1,18,2,1
6,2,12,1,3,2,1
21,15,8,1,2,4,9
6,30,2,0,4,2,15
2,5,1,2,24,2,4
0,21,1,5,4,2,2
0,2,5,16,0,1,3
6,2,12,3,0,6,9
6,23,2,3,13,2,4
2,7,1,1,13,1,1
0,9,2,0,3,1,2
1,3,4,4,1,1,1
9,2,5,22,1,4,7
9,9,2,3,1,5,4
1,3,1,2,20,3,1
1,2,7,2,4,2,2
2,0,10,4,2,2,0
1,2,5,1,2,1,4
9,10,2,1,10,3,9
3,1,2,2,22,1,4
0,1,1,0,2,2,1
0,13,2,11,2,2,1
3,4,4,6,5,2,0
7,1,1,2,17,7,12
2,1,1,2,14,3,4
1,0,10,2,1,0,1
1,1,3,11,1,2,0
0,12,5,9,15,2,4
6,17,2,2,21,5,19
11,1,1,0,2,8,6
2,1,1,1,0,1,1
2,4,2,0,3,2,1
0,16,3,1,1,0,0
8,1,7,8,4,0,1
8,1,1,6,9,5,8
2,1,0,3,1,6,3
0,1,1,1,2,1,1
0,8,8,7,16,1,1
5,16,3,4,36,1,4
9,1,1,2,16,3,4
3,0,0,2,1,2,2
0,0,2,2,2,2,0
0,5,1,4,17,0,0
1,13,6,5,13,1,8
8,3,0,1,1,4,18
6,1,2,0,1,1,4
1,3,3,1,13,2,1
1,3,1,1,25,1,1
0,2,9,10,4,1,2
5,2,10,2,2,4,9
5,2,1,1,3,5,4
1,0,1,1,5,1,1
1,10,0,2,12,2,0
0,3,1,14,1,1,5
1,2,13,3,0,2,21
1,0,2,2,2,4,5
0,5,1,2,23,3,2
2,14,1,1,12,2,2
0,8,3,3,3,1,1
1,1,5,1,1,2,4
6,1,1,0,1,2,4
6,1,1,1,27,5,2
2,5,11,12,10,1,0
2,15,20,29,0,1,0
3,1,5,6,1,1,2
6,1,1,1,10,2,6
9,2,2,0,32,9,2
3,10,3,0,6,2,1
0,16,6,2,1,1,0
0,1,1,2,1,0,0
2,0,1,2,18,2,6
14,1,1,1,9,2,2
3,0,2,2,3,7,2
2,8,2,4,0,2,5
1,2,15,3,2,1,9
1,2,6,3,14,1,8
11,1,1,1,8,9,3
1,2,1,2,4,9,1
0,1,3,2,0,2,1
1,0,14,4,1,1,3
7,2,2,1,0,3,20
19,5,2,1,7,3,11
4,16,2,2,3,7,1
2,3,6,3,2,2,0
1,1,8,13,2,1,1
1,0,1,3,12,2,4
11,2,2,1,24,0,11
3,1,2,2,3,5,1
0,6,3,6,0,5,3
2,3,14,30,1,2,10
7,1,4,5,11,0,8
13,1,0,2,24,0,3
3,0,1,1,1,3,1
2,7,4,2,1,7,1
2,3,12,4,5,1,0
4,1,3,4,17,1,13
13,1,0,2,2,1,12
2,1,4,1,1,5,1
1,2,4,1,2,12,0
1,20,6,9,24,2,1
1,3,3,2,40,1,4
12,2,1,1,5,2,1
10,1,0,6,2,1,0
1,0,1,4,2,3,3
2,11,5,0,11,2,1
5,2,20,3,18,0,6
9,1,5,2,2,0,7
1,0,2,0,1,2,2
0,10,6,1,4,6,1
0,17,9,2,20,3,2
0,3,1,3,5,1,1
10,0,1,1,1,2,6
3,1,1,0,0,1,4
1,14,0,1,4,3,1
1,3,6,6,24,2,1
9,0,16,13,13,1,2
11,1,2,2,2,1,1
2,1,1,0,0,6,2
0,10,2,2,6,5,2
2,15,11,3,39,1,2
1,2,10,2,25,2,1
12,1,1,1,2,2,1
2,1,1,3,0,0,14
1,1,2,1,2,2,4
3,1,10,1,2,1,2
2,1,10,7,17,4,0
8,2,1,14,5,1,20
3,1,0,2,1,1,12
1,20,1,2,10,2,2
1,12,13,1,26,3,1
3,1,5,2,4,0,3
21,1,0,4,2,0,13
7,1,2,2,1,0,2
2,12,11,1,20,2,2
1,6,21,4,25,1,1
1,1,4,3,3,1,1
8,1,2,3,0,2,11
9,0,2,2,1,1,2
2,11,0,1,22,2,2
3,3,5,1,4,1,6
2,0,2,9,2,7,11
5,2,2,2,0,3,7
5,1,1,6,6,0,2
1,1,0,3,13,2,0
2,1,1,1,14,2,1
2,1,1,1,1,4,2
1,7,1,9,1,4,13
12,1,5,8,1,1,5
1,2,4,1,13,1,1
1,1,11,1,22,1,1
2,0,4,2,1,4,2
0,1,1,7,4,9,0
7,11,2,12,11,1,3
1,1,8,3,17,2,4
2,1,13,2,1,1,2
2,1,1,1,0,0,0
1,6,2,1,7,2,12
5,1,5,2,24,1,11
7,8,21,2,5,2,2
1,7,7,1,2,0,0
0,4,3,1,1,1,1
0,2,2,1,7,2,7
7,1,1,6,37,6,5
12,1,2,4,29,3,0
1,9,2,2,2,2,1
1,5,8,2,2,1,2
0,2,3,0,2,2,1
13,1,1,5,6,6,1
14,1,1,13,2,4,2
2,14,2,2,1,2,2
0,4,12,1,1,1,1
0,3,1,6,9,0,1
6,0,0,8,31,6,7
2,2,2,3,13,2,1
2,8,7,2,2,1,0
1,7,9,0,1,1,2
1,1,1,1,0,0,2
7,1,2,9,18,0,1
10,2,1,17,9,4,2
3,2,2,3,4,2,1
1,11,0,1,2,1,3
1,2,3,1,10,1,5
3,1,2,0,3,0,11
2,1,3,9,1,1,4
2,3,13,5,2,1,3
0,1,4,2,1,1,1
1,6,5,1,4,1,2
2,4,3,9,17,0,4
6,2,2,20,4,3,15
1,1,1,4,1,8,4
1,1,4,1,0,1,2
2,2,3,0,5,0,1
1,1,1,2,45,2,5
8,0,0,13,5,1,3
7,2,1,11,1,9,1
1,5,5,1,6,1,3
2,11,7,1,15,1,1
0,2,2,1,11,1,2
3,1,0,1,3,1,9
11,1,5,3,0,4,7
1,6,9,1,4,2,1
1,12,9,1,17,0,2
0,3,5,10,16,1,0
3,1,2,8,2,0,2
13,2,3,1,1,10,1
3,4,0,1,9,1,1
2,14,1,0,33,1,0
1,2,10,0,14,1,4
4,1,1,11,3,1,4
12,1,0,1,1,2,6
1,4,3,1,2,3,1
0,12,1,5,27,1,0
3,2,1,4,6,1,0
9,1,0,16,2,2,0
16,3,2,8,2,2,2
3,0,2,3,8,5,8
1,16,5,1,23,2,5
2,2,5,4,6,2,1
7,1,1,8,0,0,1
16,4,2,4,0,1,6
2,3,2,1,20,8,3
1,2,1,2,33,4,0
0,1,5,2,6,2,2
3,1,2,2,1,2,1
9,1,2,3,1,2,5
2,1,3,2,5,3,1
1,19,6,1,24,6,1
2,3,6,0,9,0,1
0,1,12,4,1,1,1
11,1,3,5,0,0,5
1,6,1,4,12,1,16
2,17,0,1,7,1,3
0,3,14,2,2,2,0
1,0,6,1,1,0,2
7,1,2,6,2,0,7
2,4,3,2,1,0,31
2,17,4,0,22,4,8
2,2,11,2,2,3,1
9,0,2,12,0,0,1
18,1,1,23,1,0,3
4,2,5,4,12,1,16
1,2,8,1,39,3,2
2,9,10,1,9,4,1
1,1,3,4,1,1,4
10,1,1,2,1,1,12
4,3,1,3,16,2,7
1,27,1,1,16,0,0
0,9,3,1,3,5,0
1,2,13,2,5,1,1
3,2,2,13,10,2,9
4,0,1,8,16,0,29
1,10,1,1,2,1,4
2,3,14,0,1,2,1
2,1,9,5,1,4,1
1,0,2,13,32,2,1
7,13,2,3,18,1,8
2,34,2,2,1,1,2
0,3,2,0,2,4,0
0,2,4,1,1,4,1
0,1,6,0,20,3,2
7,7,2,1,25,2,10
4,6,2,0,2,1,9
1,3,4,1,1,1,2
2,1,2,4,7,1,1
0,1,1,3,3,2,1
9,0,1,8,13,2,5
2,10,1,4,2,1,3
0,11,13,1,5,4,1
0,3,24,1,4,3,0
4,1,4,2,20,2,0
12,1,2,6,6,1,3
8,1,2,4,1,0,6
2,0,3,1,0,2,1
2,2,5,1,1,4,1
2,2,1,1,24,2,1
4,2,2,8,9,0,1
5,6,2,19,1,1,5
1,13,2,3,1,1,3
1,1,2,2,11,3,1
0,1,10,1,23,4,0
6,1,1,5,2,1,2
12,18,0,10,1,1,1
2,11,3,2,0,2,7
1,1,11,1,4,1,3
2,1,3,1,12,5,1
0,4,1,0,7,1,0
11,16,1,1,1,1,7
3,1,4,0,1,2,17
1,0,12,2,19,3,2
0,1,2,2,20,3,1
0,13,1,12,2,5,1
6,11,0,17,0,1,5
2,1,1,3,30,1,5
1,1,5,0,55,1,3
2,1,14,1,9,2,0
0,2,1,8,0,7,1
12,21,4,7,2,4,8
1,4,4,0,7,0,14
1,0,7,0,20,9,3
1,2,5,4,3,26,1
2,3,1,6,1,9,2
2,6,2,12,0,2,2
9,1,1,3,6,2,6
3,1,19,2,25,1,3
1,1,14,0,6,3,0
1,19,3,1,2,7,1
4,12,1,6,0,4,2
11,2,4,14,14,1,13
2,0,8,1,69,1,6
1,0,1,2,36,1,1
1,4,1,3,6,4,1
1,6,1,6,2,5,1
8,1,0,10,32,0,0
2,1,1,1,42,1,4
1,2,9,1,5,1,5
1,4,4,2,1,0,8
5,13,0,6,1,1,3
19,9,1,1,9,3,2
4,1,7,1,31,2,4
1,3,9,0,4,1,2
1,8,7,1,1,0,1
0,16,2,0,3,6,0
12,2,2,2,29,2,2
4,0,2,1,20,1,4
1,1,10,3,0,1,0
0,9,4,8,0,1,0
5,21,2,6,16,3,4
13,3,0,1,6,3,16
0,1,0,1,1,1,13
2,3,2,0,0,0,4
1,3,9,2,3,0,1
1,7,4,2,1,0,0
12,5,1,2,20,10,2
2,1,1,2,2,2,8
1,1,6,1,1,1,4
1,18,15,1,2,1,1
2,4,3,3,8,2,1
9,0,2,7,28,4,1
6,2,1,2,14,2,2
1,2,0,0,1,1,7
0,1,10,2,1,0,2
3,12,3,1,25,2,1
8,6,2,2,6,3,1
6,0,5,3,1,4,6
1,1,17,1,0,1,7
1,2,5,2,2,2,2
0,5,2,0,11,0,1
8,6,2,2,20,1,2
17,3,3,3,2,10,4
6,2,0,2,2,2,12
1,2,0,2,2,0,1
1,9,1,2,17,0,0
1,17,3,2,23,3,5
8,2,2,10,3,3,16
4,1,3,6,0,1,6
0,1,5,2,5,1,2
1,1,2,2,10,2,2
1,8,1,1,2,4,1
14,4,0,2,1,12,0
4,0,2,2,0,3,5
1,0,8,2,14,0,9
2,1,2,1,24,1,3
2,9,1,2,3,8,2
8,3,3,2,1,2,2
3,1,2,4,5,1,7
2,2,14,2,39,0,9
1,1,4,1,10,1,2
2,7,1,0,1,2,1
6,18,0,3,1,5,1
11,1,1,8,3,6,1
2,2,1,2,10,2,7
1,1,11,1,5,1,2
1,0,2,2,2,1,1
8,23,2,1,0,3,1
6,4,6,1,11,6,4
1,1,14,5,22,4,9
0,0,3,10,3,1,4
3,16,1,2,1,1,0
13,6,0,0,1,1,2
10,0,0,2,3,3,1
1,1,2,1,10,2,7
1,2,21,2,7,1,12
0,5,17,2,2,1,2
6,10,1,4,1,0,1
10,1,2,3,7,1,6
2,2,1,3,30,3,14
2,1,2,1,11,2,8
2,2,2,2,1,1,2
6,14,2,1,1,1,1
9,2,5,6,15,1,0
1,0,10,10,24,2,8
2,3,5,2,1,4,12
1,2,2,0,1,1,1
9,7,1,2,7,1,2
14,1,3,6,14,0,2
2,1,4,14,6,7,3
1,1,9,1,2,2,4
1,3,2,1,0,0,1
0,9,2,1,0,0,2
8,4,3,3,18,1,2
2,1,1,17,6,1,3
0,1,1,4,1,1,9
1,2,0,1,0,2,4
1,2,2,2,13,1,1
11,8,1,9,19,2,1
4,6,14,7,5,1,0
1,0,11,5,1,0,10
2,1,2,2,1,7,2
6,1,0,0,2,57,1
19,4,10,2,4,58,2
3,8,5,1,15,48,5
0,2,6,2,2,11,9
2,2,2,2,9,4,12
0,0,1,1,10,2,2
14,0,1,0,23,2,0
6,3,0,8,4,6,1
1,2,8,8,0,2,8
0,4,6,1,2,2,9
1,3,2,0,21,1,2
14,6,0,0,12,0,1
5,2,0,6,3,6,1
2,2,2,1,3,7,11
0,2,4,2,19,1,13
1,1,2,1,14,0,1
14,7,9,0,6,0,2
6,19,3,6,1,1,9
1,2,1,21,1,9,15
1,2,16,10,16,4,1
1,0,5,2,30,1,1
8,7,2,1,5,0,3
4,9,2,2,0,4,8
2,1,2,13,1,5,8
1,0,9,5,20,4,2
1,2,7,2,24,2,2
8,1,1,2,2,2,0
12,1,1,2,13,0,0
2,2,2,10,28,3,1
1,2,9,2,7,6,10
2,1,9,0,3,0,2
6,8,2,2,1,1,2
5,11,2,2,10,1,1
3,6,34,10,17,6,8
2,2,11,2,55,3,13
2,1,3,2,7,1,3
8,1,13,0,4,11,2
13,11,2,2,23,9,1
2,9,1,12,1,0,3
1,3,35,1,1,1,9
1,2,17,1,12,5,2
2,0,18,1,35,4,1
15,7,7,0,18,2,1
3,5,14,13,3,1,4
2,2,7,5,9,13,5
1,1,10,2,9,4,2
1,2,1,0,6,1,1
14,13,6,2,28,1,9
4,4,2,6,46,1,7
0,1,41,3,1,15,7
1,1,123,0,28,25,3
3,0,6,1,53,42,2
9,1,68,2,69,4,2
2,15,21,3,5,0,1
1,2,3,8,1,18,4
2,2,14,5,1,5,4
3,2,13,2,5,9,0
10,22,2,2,78,49,0
4,9,4,2,5,8,7
1,2,2,1,54,15,11
0,1,76,2,8,7,10
1,4,26,2,33,2,0
10,10,2,14,35,1,1
4,1,2,17,3,70,1
0,2,52,9,16,161,10
0,1,53,3,30,22,12
5,1,5,1,4,4,2
18,13,7,0,29,94,2
3,7,55,3,3,16,1
1,2,28,2,40,1,8
1,1,3,4,33,141,6
0,1,31,2,44,43,0
8,6,28,2,4,16,2
4,18,8,2,1,41,2
2,3,10,18,4,110,5
0,2,12,5,66,11,15
1,1,6,2,8,121,1
12,1,17,1,6,5,1
3,16,58,1,15,74,5
0,5,28,5,2,22,8
1,0,6,6,57,1,15
0,1,7,3,20,0,2
2,8,68,1,2,143,2
14,14,19,2,33,60,1
3,2,5,10,55,17,4
2,1,4,13,20,16,8
0,0,36,1,12,31,5
7,1,10,1,1,130,1
9,22,5,0,55,15,1
1,14,20,1,7,1,3
3,1,59,0,1,34,1
0,0,5,2,0,8,3
4,7,73,5,33,67,2
10,5,103,9,36,56,0
4,1,20,6,3,35,2
1,1,5,2,24,7,12
3,2,142,2,11,2,11
3,11,7,0,21,6,2
12,19,3,8,38,12,2
4,2,34,34,5,23,1
0,0,7,3,4,75,14
2,5,19,2,1,57,3
4,13,70,2,36,8,2
16,6,6,21,11,8,1
1,2,2,27,1,79,1
0,0,13,5,13,19,7
2,0,88,1,20,68,3
0,7,12,1,5,128,2
9,18,25,2,4,81,0
4,1,21,37,3,9,10
0,0,12,7,15,9,25
2,1,20,1,56,4,4
1,15,3,3,18,80,2
9,5,20,3,3,12,1
12,2,93,5,4,6,3
0,0,18,2,17,2,8
1,0,14,11,13,24,5
0,7,4,54,3,113,1
9,15,0,8,0,47,0
3,4,39,2,10,46,1
1,1,57,21,49,73,16
2,1,6,3,10,30,7
8,9,7,1,2,6,1
14,16,20,13,10,21,0
5,2,37,38,43,5,3
2,0,58,96,9,2,8
2,1,6,8,3,78,8
2,7,11,1,2,5,1
7,10,148,11,2,12,1
16,2,35,90,22,37,2
0,2,5,33,9,10,8
2,2,2,2,4,25,30
0,8,51,19,2,55,7
5,19,43,8,25,36,1
16,4,4,2,15,11,1
3,0,52,20,9,20,3
0,1,24,99,2,23,13
0,15,5,45,2,16,1
10,13,1,11,5,57,1
6,0,2,1,39,60,0
2,1,0,2,12,9,1
1,2,199,5,3,24,18
0,19,14,91,6,39,9
6,34,2,22,8,62,1
7,6,6,3,44,10,2
2,2,69,0,7,20,1
1,1,25,1,2,81,6
0,42,2,70,2,8,2
10,7,1,119,9,8,0
15,12,100,58,37,10,3
1,3,9,37,4,8,0
1,1,5,1,1,8,2
1,15,13,108,13,57,11
4,87,22,34,42,15,0
4,16,36,71,7,12,1
1,2,8,189,1,10,0
1,1,2,11,2,52,2
2,1,1,0,10,19,1
9,36,9,27,34,41,1
15,83,10,186,9,3,2
2,26,105,26,4,42,0
1,1,11,36,0,73,0
2,1,0,19,20,5,9
1,29,33,35,26,29,2
9,70,63,196,3,29,1
3,6,9,10,1,17,1
1,2,27,116,3,9,2
1,9,22,5,7,59,6
2,6,21,166,22,50,1
14,3,10,37,5,29,2
6,48,3,47,2,6,1
1,17,26,106,15,8,7
2,2,40,49,41,2,26
1,18,20,24,2,22,6
6,21,2,159,2,38,1
9,26,24,18,2,6,2
1,7,88,107,14,22,1
1,3,9,5,36,39,14
2,9,1,110,12,21,3
5,1,15,3,2,16,1
13,0,28,42,1,15,0
1,32,36,36,38,55,2
1,70,5,49,17,45,8
0,6,2,32,1,4,2
8,2,37,26,1,10,1
15,1,95,84,12,12,1
1,2,17,81,18,15,3
2,26,1,14,11,69,5
2,27,0,10,2,12,4
9,3,55,36,4,28,0
17,0,48,4,35,21,1
2,7,4,138,12,17,5
0,45,7,13,1,26,16
1,50,16,11,1,33,6
0,10,5,47,2,7,2
5,39,32,10,29,31,0
2,6,46,86,20,3,0
1,19,6,23,2,13,4
1,66,12,51,2,6,9
1,38,5,11,17,49,3
9,6,17,60,5,5,0
4,2,3,35,1,45,2
2,24,116,62,2,9,0
0,24,10,33,11,68,15
4,2,2,102,24,11,21
23,32,6,9,10,30,3
28,72,6,41,1,56,1
3,9,29,106,3,5,1
1,2,49,6,15,0,3
8,31,11,8,13,43,2
12,124,1,122,4,53,2
2,7,60,6,1,8,1
1,2,33,10,2,8,0
2,45,10,154,5,6,11
12,8,2,15,27,26,3
53,17,63,28,7,22,2
10,74,29,16,1,16,0
1,21,4,98,0,20,1
1,1,4,29,31,17,11
0,119,18,6,35,9,0
25,33,18,37,3,6,23
59,48,26,69,0,18,36
10,8,4,27,0,10,42
0,2,17,42,21,26,30
26,2,33,57,7,12,2
21,4,21,95,1,12,4
23,13,22,19,1,16,7
49,21,18,130,3,5,16
90,7,12,9,22,29,4
57,17,5,58,15,43,3
4,96,21,38,3,24,2
1,12,6,21,1,2,9
24,49,45,115,8,15,12
34,5,21,6,22,6,1
2,14,6,51,6,12,2
19,14,27,122,1,5,2
10,2,15,8,1,4,13
110,35,62,4,4,57,21
5,18,8,70,24,5,2
8,33,4,21,28,24,1
171,10,6,164,3,3,0
74,9,43,10,2,35,5
5,3,18,85,15,21,4
2,1,5,65,23,1,2
37,17,1,43,4,2,1
158,12,29,28,0,1,1
54,34,32,33,0,29,0
6,16,3,45,18,22,4
1,1,4,22,15,9,1
101,2,22,25,1,7,2
126,26,3,54,1,50,1
6,88,0,54,2,7,2
2,6,69,43,32,6,16
62,1,33,46,12,24,16
156,1,4,44,2,17,1
11,11,44,83,1,3,1
18,41,8,82,25,20,2
40,36,30,58,16,19,12
17,3,24,23,2,4,2
82,17,10,106,2,16,1
5,29,44,5,1,21,0
2,2,17,93,5,5,0
9,2,20,39,8,48,12
11,15,55,17,9,21,5
17,38,28,230,2,20,0
41,10,3,30,2,19,1
4,2,0,68,10,9,0
62,18,81,59,57,6,3
13,13,7,4,4,1,2
6,12,29,52,2,8,1
95,0,4,138,16,40,0
82,13,1,102,35,23,5
6,13,8,16,12,2,15
1,57,34,31,1,7,13
15,5,13,9,2,13,1
76,1,6,12,2,69,1
25,0,31,125,24,9,0
23,4,27,29,6,4,0
38,22,2,80,1,12,4
4,5,29,35,1,9,1
28,24,9,4,2,7,2
5,16,52,56,20,6,1
2,1,45,15,5,12,7
1,12,6,38,2,21,10
26,31,1,13,0,11,2
11,15,1,121,7,5,0
108,10,22,63,45,8,1
6,41,57,22,13,40,2
6,11,6,93,1,16,7
31,3,31,18,3,30,2
7,29,3,78,25,48,0
76,30,21,16,6,25,2
37,55,28,23,3,6,2
3,5,25,69,0,26,5
15,2,36,33,8,2,3
4,9,5,7,38,37,1
52,2,7,96,16,5,0
94,5,6,7,2,37,1
7,16,4,116,1,13,4
2,90,63,38,9,13,7
9,17,50,32,24,2,1
45,3,3,37,10,11,0
30,0,6,50,1,5,1
2,11,6,9,1,42,11
3,11,62,32,11,6,27
1,22,46,12,30,6,2
31,8,22,63,8,1,1
31,2,1,7,1,35,2
5,13,18,37,3,20,2
3,10,81,39,14,25,5
3,9,16,49,18,20,1
23,29,22,133,1,11,1
53,8,4,45,1,53,2
14,3,7,48,4,12,10
36,16,46,25,53,38,15
67,60,25,12,10,5,2
6,6,4,62,2,4,1
19,5,35,38,1,11,1
2,21,8,32,9,0,8
34,71,13,15,36,33,11
40,5,5,147,9,26,0
20,1,6,47,4,3,1
2,1,1,24,1,38,1
17,85,40,115,29,21,4
28,21,21,14,30,10,9
29,3,6,18,2,13,1
12,15,14,75,1,10,1
2,26,3,9,2,15,2
58,12,12,31,23,19,3
11,58,13,107,11,14,13
55,4,14,6,1,10,2
5,2,27,27,0,10,0
26,22,10,46,1,8,2
3,24,17,42,21,1,12
25,7,4,27,3,7,12
16,2,1,10,1,62,2
32,1,0,63,1,5,0
25,18,87,11,6,5,1
3,5,7,10,31,2,5
6,6,38,73,15,19,10
17,20,29,32,3,3,2
3,14,23,88,2,25,0
43,5,4,17,21,17,1
10,1,12,41,10,6,9
2,1,12,38,5,42,17
12,13,11,37,0,12,1
89,28,33,60,2,35,1
7,3,7,8,19,7,1
6,13,9,1,21,12,2
3,29,19,79,3,7,5
21,6,44,29,2,18,1
20,1,8,31,10,4,1
7,11,3,43,8,6,2
3,6,17,37,15,5,4
23,31,17,106,3,37,11
23,34,21,20,2,6,3
2,5,4,5,15,17,2
3,1,30,24,26,6,1
1,8,7,80,2,1,5
1,25,3,61,2,18,11
33,24,8,43,4,30,2
6,2,20,31,26,3,2
1,8,14,34,6,18,1
29,9,5,77,1,4,1
28,5,52,22,1,12,6
36,13,6,141,5,3,12
6,3,3,14,31,35,1
1,21,16,92,22,7,2
2,15,40,88,3,1,1
7,18,17,25,2,20,6
44,5,3,54,11,25,1
7,3,3,64,25,7,1
9,26,64,9,2,4,2
7,7,14,50,1,33,2
60,2,3,87,12,8,10
4,7,1,65,2,7,11
7,45,2,99,16,14,1
1,6,9,10,4,4,1
14,1,54,66,4,10,1
22,12,9,121,19,37,5
8,2,4,151,1,4,1
6,20,2,23,12,2,1
3,35,1,45,2,10,1
31,25,26,148,1,9,12
6,2,7,11,9,2,19
14,1,10,76,23,16,3
1,1,48,37,16,17,0
9,13,7,24,3,16,2
31,5,16,29,1,17,1
30,1,16,30,10,5,6
5,20,2,22,28,8,3
0,29,1,118,6,29,1
11,7,5,60,0,7,0
24,2,10,28,2,1,0
3,0,33,38,26,19,11
1,13,3,46,30,6,11
16,36,24,30,3,1,2
24,18,5,23,1,28,2
3,1,40,23,1,5,2
22,2,20,24,22,22,10
3,18,21,38,17,6,3
4,9,3,56,1,4,2
25,3,3,12,0,28,1
18,0,20,98,2,6,3
2,30,34,17,31,9,14
22,10,13,13,10,3,2
16,2,7,65,2,10,1
7,5,12,144,1,18,1
6,2,14,32,11,2,2
1,6,1,79,23,3,15
1,34,36,29,4,11,4
18,4,6,6,2,22,2
12,1,13,9,3,5,2
12,16,8,39,50,17,1
1,50,2,81,11,18,15
6,4,2,19,1,2,2
47,0,56,90,5,28,1
8,7,4,60,7,3,0
6,28,69,27,17,17,11
5,8,24,18,2,4,20
5,9,5,10,3,21,2
37,11,16,41,3,24,2
5,3,18,73,23,1,1
5,2,3,18,18,41,6
2,26,9,33,10,10,7
14,51,42,123,2,3,2
39,3,6,13,1,9,0
3,1,8,31,32,2,2
13,0,14,5,25,4,11
3,20,2,78,2,24,16
28,20,18,53,1,19,3
17,6,2,10,11,26,0
28,2,5,34,17,1,0
1,14,2,54,1,17,3
36,10,18,4,1,17,2
21,5,31,25,2,38,1
2,4,38,40,40,9,2
37,16,13,56,6,4,2
5,15,2,21,1,37,11
11,3,32,8,5,36,6
24,1,9,170,7,16,2
13,4,2,13,21,7,1
4,47,6,88,23,9,1
13,11,5,11,4,2,4
17,11,49,29,2,30,13
21,1,12,19,3,3,1
6,1,13,103,23,9,2
3,10,11,11,5,5,0
20,40,9,24,2,4,6
3,19,3,75,2,1,11
33,12,3,47,1,18,1
5,2,29,17,26,35,0
35,2,25,57,34,6,1
10,8,7,12,4,1,3
10,34,0,256,2,3,22
1,44,30,42,11,3,4
3,4,13,22,20,51,0
33,12,2,73,4,22,1
4,5,68,95,2,4,1
2,17,49,13,2,1,7
1,22,8,42,21,0,3
21,3,2,139,28,51,1
4,1,9,10,5,18,1
1,1,2,10,1,3,2
35,7,25,111,2,8,16
4,5,50,19,20,26,5
21,3,5,42,16,18,2
40,46,6,31,2,14,1
6,20,2,86,1,21,2
7,1,1,9,1,23,17
1,1,1,75,40,21,5
35,29,11,172,5,3,1
28,44,2,112,2,17,1
3,7,3,129,2,9,13
35,2,80,8,8,4,17
6,0,14,3,41,60,4
8,60,17,111,10,5,1
10,11,3,18,1,10,2
24,1,0,22,9,9,6
1,9,24,100,30,14,15
27,9,45,43,17,7,4
3,6,5,4,3,11,2
10,11,1,49,0,24,2
5,1,10,36,5,1,1
8,24,8,18,5,19,15
20,7,2,3,29,10,6
28,13,3,5,4,3,2
2,12,58,38,2,2,1
29,1,14,84,2,20,0
6,2,3,42,40,13,9
2,31,2,20,20,28,2
5,9,51,52,1,7,2
7,1,12,18,2,8,0
7,1,2,29,25,16,1
54,18,3,48,27,6,6
8,6,2,135,3,1,9
4,7,55,70,1,14,3
28,2,9,135,1,4,1
1,19,17,71,8,15,2
43,3,11,65,18,2,2
20,39,2,6,7,20,10
6,5,10,11,1,6,1
3,11,2,35,0,1,0
52,9,27,64,15,24,1
12,6,5,34,34,6,2
3,8,3,39,7,8,18
15,12,24,46,1,18,7
9,5,11,3,0,10,2
20,3,1,124,35,2,2
6,15,50,104,9,18,0
14,44,20,38,3,20,1
5,12,27,14,2,14,2
10,2,4,22,2,24,2
10,21,15,35,12,6,1
4,8,13,44,20,18,2
5,4,13,4,2,30,8
3,60,2,65,1,19,2
45,14,1,27,2,2,2
4,3,4,81,21,5,2
4,5,38,76,8,11,2
3,6,11,27,2,27,5
3,9,2,44,2,11,2
10,4,4,105,1,31,1
22,40,20,33,34,24,2
3,16,13,3,15,10,1
1,3,35,10,1,2,2
15,0,31,42,0,4,12
6,5,3,33,9,35,2
82,78,13,65,45,28,0
5,11,32,20,5,5,2
2,12,4,16,1,18,2
40,5,1,59,0,13,11
8,7,6,38,13,14,2
10,2,12,8,16,11,1
3,5,17,34,6,4,3
12,9,4,95,1,2,10
1,5,8,27,2,22,13
19,69,47,99,30,24,2
2,14,12,120,17,9,1
2,1,2,187,2,6,4
26,2,3,11,1,27,9
3,1,1,106,4,3,13
4,52,23,132,18,37,2
4,22,9,56,30,12,1
5,2,11,53,5,9,1
4,3,12,61,1,24,3
37,33,12,16,19,6,11
5,4,36,4,25,48,2
9,16,4,90,3,10,0
5,1,2,270,2,2,1
3,3,1,15,2,34,8
30,4,0,23,19,6,4
14,5,5,122,3,19,1
2,17,8,33,2,1,1
2,61,1,49,0,14,0
23,6,5,44,17,29,2
9,1,13,11,53,24,9
2,13,20,25,12,3,2
1,21,3,31,1,13,3
11,34,5,3,1,14,1
22,3,30,34,9,1,3
14,1,15,48,20,3,12
7,17,6,73,3,9,4
5,9,2,46,2,62,1
8,16,10,22,2,6,1
29,18,10,37,2,23,4
5,5,58,11,25,60,16
2,6,4,57,5,7,3
22,2,3,25,3,31,2
6,11,0,112,22,3,0
6,7,42,5,12,2,2
23,41,3,86,4,28,9
29,45,2,29,2,7,12
5,3,19,10,1,24,2
35,2,15,90,1,37,2
17,5,20,34,25,2,3
7,6,9,3,19,11,14
3,31,4,48,2,2,4
8,25,5,28,4,44,1
11,5,19,28,9,4,2
5,2,13,51,22,14,4
4,0,8,14,6,74,12
1,2,12,20,2,9,6
24,7,25,48,2,14,1
13,32,1,47,2,5,1
2,41,9,95,22,6,0
1,2,4,13,4,22,6
2,2,40,16,1,11,3
2,2,30,9,2,3,0
13,33,2,33,3,15,1
17,58,2,17,37,5,7
4,7,2,78,22,19,12
51,5,29,16,2,23,4
12,3,11,126,1,21,1
3,14,1,24,5,3,2
4,36,2,20,26,8,1
33,40,47,8,3,8,9
3,4,19,43,1,9,8
5,40,5,14,10,8,1
21,16,14,46,23,9,0
12,1,2,139,9,8,2
4,1,28,18,4,36,9
24,36,5,10,3,3,6
7,6,10,53,7,5,1
2,5,16,54,9,6,0
13,26,11,4,3,2,2
16,6,6,75,0,31,3
8,15,7,56,1,11,23
7,29,29,71,2,17,10
2,10,8,13,1,4,2
7,2,3,6,30,30,1
36,6,30,99,9,15,2
17,25,5,55,2,24,1
1,49,2,47,2,9,2
1,3,0,4,6,12,1
17,3,1,46,27,37,2
21,0,26,24,8,3,0
19,6,21,83,2,9,13
3,25,2,28,1,8,2
1,1,3,60,1,8,2
4,2,4,3,32,7,0
38,47,2,27,10,15,1
6,18,2,137,2,5,8
12,10,1,17,2,24,5
1,1,5,32,37,6,1
16,1,27,34,12,4,2
32,68,8,43,1,2,3
7,39,8,14,0,12,4
3,4,7,23,7,22,2
55,1,4,95,13,5,0
5,34,2,56,11,1,2
4,57,10,3,2,26,1
1,33,27,127,2,16,0
3,4,1,7,9,14,17
2,1,15,5,11,2,4
17,28,9,111,3,61,2
39,15,11,39,2,14,9
14,5,7,26,1,3,13
2,0,4,32,22,19,5
33,2,17,180,33,10,0
7,5,30,7,6,16,1
1,74,11,2,1,10,0
2,11,3,56,2,3,7
36,10,21,63,29,60,17
9,2,22,19,11,12,4
18,0,2,17,1,2,0
4,27,7,35,2,8,1
2,15,0,61,1,12,1
13,3,10,9,13,43,17
32,2,7,13,16,4,2
3,8,18,174,2,18,2
3,9,3,11,1,15,1
7,2,8,15,13,6,3
4,0,45,13,34,2,18
19,18,7,18,4,16,5
22,9,17,48,0,13,0
2,11,13,14,2,11,2
2,10,2,11,14,5,0
18,8,6,10,29,8,10
20,21,7,76,2,12,3
27,2,44,27,1,9,1
6,0,5,105,6,28,1
3,15,2,13,23,2,2
18,48,3,16,18,63,19
17,28,28,13,1,6,16
8,2,6,12,2,1,1
1,2,7,51,25,41,1
23,2,2,7,16,5,2
13,19,1,29,3,12,1
2,19,4,6,2,4,4
24,21,32,6,0,14,1
5,2,3,3,20,3,1
1,1,23,26,11,11,1
27,6,11,52,1,6,12
3,19,4,5,3,22,6
2,4,54,11,0,2,1
9,5,4,5,35,1,1
16,18,30,1,14,10,6
23,6,37,88,1,11,10
1,3,6,12,1,29,1
21,1,41,18,7,4,1
10,31,9,22,29,7,0
17,54,4,26,6,13,1
2,6,31,6,2,5,10
6,1,2,3,1,22,2
10,3,46,6,6,1,1
13,9,20,12,32,1,1
9,35,24,108,12,3,1
1,54,2,44,1,19,7
25,4,12,14,2,4,1
5,12,8,47,7,1,1
36,21,3,8,29,6,2
5,20,3,12,4,15,7
1,2,10,7,0,11,6
4,23,12,2,1,8,1
13,38,8,4,0,10,0
16,25,1,29,22,9,1
5,1,2,47,7,1,18
2,2,8,4,1,11,11
10,14,1,10,1,21,2
39,23,9,6,12,3,1
1,5,2,9,23,11,2
4,7,15,55,3,5,7
8,18,16,31,0,3,11
36,4,7,3,1,1,1
17,4,12,16,35,5,1
1,2,10,28,29,2,2
4,1,2,15,4,5,2
2,1,8,2,1,6,19
11,1,6,6,1,5,7
7,9,20,28,21,4,0
2,18,21,22,4,1,0
1,25,2,3,1,12,3
19,3,37,42,1,0,11
10,2,8,21,4,1,3
2,37,9,45,18,1,2
11,10,7,16,5,4,2
7,6,7,8,1,3,3
3,5,7,10,0,13,9
21,64,12,55,6,2,9
1,5,3,68,34,1,1
15,5,26,6,9,2,1
21,6,6,43,1,14,2
3,1,6,21,1,5,3
23,80,16,22,4,1,2
2,21,15,2,41,4,1
2,2,12,2,9,1,1
1,2,1,19,1,0,10
22,18,3,115,0,4,9
6,18,9,7,2,2,7
2,4,3,18,4,1,1
20,44,1,85,7,1,1
3,3,1,11,6,8,1
40,28,11,5,1,7,1
7,3,5,17,1,2,5
2,1,31,3,6,2,2
5,0,12,14,19,0,2
21,31,2,4,4,16,1
29,5,17,0,1,9,0
5,1,29,15,3,2,2
1,8,6,1,16,1,5
7,3,1,11,22,1,2
30,1,13,6,1,2,2
4,41,9,7,1,14,1
1,32,130,8,16,26,2
3,3,11,8,13,3,9
8,3,2,5,1,0,4
21,20,6,15,1,9,0
26,6,46,3,15,25,1
2,3,54,0,22,3,5
1,2,8,14,16,1,14
3,6,23,0,1,1,5
36,6,29,2,0,2,2
10,13,3,44,34,43,1
1,36,2,15,30,7,1
2,2,0,5,3,1,7
8,1,6,1,4,1,2
22,8,22,2,4,4,0
4,44,23,3,5,8,0
6,12,3,2,8,2,1
16,2,6,10,7,2,4
3,2,14,2,1,0,11
33,5,9,2,0,1,2
10,35,2,8,0,5,2
8,6,1,7,15,5,1
1,3,3,5,8,2,0
49,4,24,2,4,2,0
42,48,38,4,2,1,6
6,5,4,1,0,3,4
13,2,1,0,86,2,0
2,10,24,3,9,2,1
18,10,13,6,1,2,12
3,27,13,3,70,4,2
6,33,2,1,11,3,2
10,9,1,0,1,4,0
1,1,2,1,2,1,2
2,6,27,3,1,2,9
3,1,13,8,38,0,5
1,13,2,3,21,1,0
1,3,2,2,29,5,2
13,1,39,0,3,3,9
6,20,32,13,15,2,19
26,23,2,3,11,0,5
4,9,1,1,4,1,2
2,2,52,0,12,2,2
31,2,31,1,4,7,2
10,21,3,1,19,2,20
9,14,8,0,27,1,5
10,2,7,1,28,2,2
4,1,23,1,2,3,1
10,3,139,14,2,7,0
26,15,10,9,1,1,8
3,3,3,3,36,0,13
8,2,68,1,10,2,3
31,0,85,1,0,8,1
10,0,27,0,1,4,1
14,13,4,4,8,1,14
12,73,24,6,1,1,3
11,9,45,2,5,2,1
17,1,67,4,0,1,2
2,2,5,4,0,12,1
2,3,1,1,0,9,10
5,40,1,3,1,2,8
13,6,36,1,26,1,3
25,1,20,1,3,1,0
2,3,1,2,2,2,1
5,26,2,2,2,11,18
9,20,25,2,33,1,6
42,2,34,2,9,1,1
21,0,4,1,2,1,1
9,45,1,0,8,6,4
9,5,3,1,30,5,10
21,58,1,2,12,2,4
13,32,12,1,0,1,1
2,7,13,0,1,5,0
10,2,45,2,0,1,6
1,82,4,0,1,21,17
39,28,2,1,4,5,7
6,3,14,6,10,2,2
1,8,3,1,2,1,2
9,64,2,1,2,3,2
16,16,14,3,21,10,10
9,3,24,1,13,1,3
1,1,1,2,1,2,2
2,7,1,5,2,2,1
32,74,16,2,20,6,5
6,15,8,2,45,4,4
2,2,3,0,21,2,4
24,2,7,9,2,0,1
4,32,1,6,1,1,0
6,9,1,1,15,1,0
7,43,2,1,8,5,3
17,51,4,1,1,9,10
1,4,1,14,2,3,2
1,6,1,11,18,1,1
11,30,1,1,24,0,2
26,41,21,1,4,7,15
4,9,15,1,2,8,3
0,3,2,8,2,1,1
0,1,8,1,9,1,1
4,0,1,6,22,0,2
15,18,26,1,11,0,5
6,53,4,1,1,10,14
3,12,2,1,2,3,4
29,1,25,4,11,0,0
4,1,1,1,27,1,2
14,18,32,0,3,1,2
1,3,6,2,1,7,4
0,2,2,2,0,2,0
12,4,11,11,18,1,0
11,8,2,4,28,0,2
10,2,10,0,2,2,2
8,34,1,1,3,5,9
1,17,2,10,1,2,4
10,2,1,12,20,2,1
12,2,2,0,12,1,0
2,3,11,1,1,4,1
1,36,2,2,2,8,10
2,11,1,3,13,2,1
7,4,0,6,24,1,0
8,2,8,2,4,1,1
5,1,15,0,2,1,10
3,4,2,1,1,2,2
1,2,1,1,5,4,6
5,2,1,1,1,2,1
25,28,21,6,2,1,2
4,10,9,1,1,1,3
1,5,3,1,1,2,2
1,2,3,2,21,1,6
4,1,8,8,40,3,1
9,2,18,2,10,0,1
1,3,3,2,1,2,0
2,17,0,1,9,2,3
2,3,27,2,31,1,12
1,1,3,1,17,3,2
19,4,9,4,3,1,1
9,1,1,2,1,1,0
22,4,0,1,12,2,6
2,3,43,2,15,1,9
6,0,3,2,3,5,3
16,0,9,6,1,1,1
5,1,15,4,1,0,0
3,5,2,1,13,0,4
5,13,1,0,11,1,9
7,2,0,1,0,5,3
1,0,19,2,0,2,1
12,0,13,6,4,1,0
2,26,3,3,26,1,2
1,7,1,1,16,2,7
16,2,8,4,3,1,7
7,1,6,1,1,3,2
3,0,5,2,15,1,2
2,9,3,2,21,1,0
0,21,1,2,2,2,1
15,2,3,1,1,1,7
8,2,16,3,1,4,6
4,3,8,18,23,2,2
2,16,0,2,11,1,0
0,5,1,1,0,1,0
16,1,0,2,0,1,11
21,2,18,0,18,6,2
2,0,3,3,37,2,1
1,6,2,3,5,1,1
0,14,8,5,2,1,1
6,2,1,1,1,1,9
15,1,5,0,0,14,19
2,2,34,20,17,3,2
2,8,16,9,15,2,1
0,8,2,3,2,3,2
6,2,5,1,2,2,17
8,0,17,2,7,6,6
0,4,14,8,5,3,1
16,7,1,9,2,2,1
3,13,2,2,3,0,1
15,2,3,1,2,2,13
5,1,11,2,7,2,3
1,0,2,1,27,2,1
2,5,2,4,5,8,2
0,8,2,3,1,2,4
2,3,13,0,0,0,19
20,1,10,1,11,1,4
4,1,6,5,25,4,1
0,2,3,6,3,3,2
2,9,1,4,1,1,1
4,6,1,2,1,2,11
11,2,14,1,16,1,2
2,1,2,1,8,2,1
1,0,0,4,3,9,2
0,15,1,3,0,2,1
2,12,4,1,3,1,11
11,2,5,1,28,2,4
2,2,1,2,29,1,1
1,3,1,0,2,1,1
1,8,4,16,2,3,3
4,1,8,4,5,1,3
2,2,13,1,44,1,2
2,1,1,0,20,3,1
1,2,1,2,1,7,1
6,7,1,1,2,3,1
2,15,4,1,9,1,4
0,1,13,4,18,0,1
1,0,2,1,3,2,0
14,1,1,0,1,2,1
4,3,24,11,0,3,2
2,2,25,6,8,2,9
6,1,2,1,25,1,15
8,5,2,0,4,1,1
1,3,0,2,1,10,0
2,4,3,4,1,11,1
0,10,10,1,25,1,3
1,2,10,0,28,2,27
2,1,2,0,4,1,7
0,2,1,6,1,4,2
2,4,5,5,1,1,2
2,9,12,3,17,1,0
2,2,2,1,24,1,8
23,1,1,0,4,2,3
3,0,2,2,1,2,0
1,2,2,5,2,6,1
1,14,13,10,33,3,1
2,4,1,2,13,2,7
1,1,0,2,1,1,4
0,0,2,1,1,5,2
1,0,19,1,28,8,2
2,20,13,6,27,1,1
1,3,4,1,4,1,9
7,1,0,1,1,2,20
9,1,2,2,2,1,2
13,2,0,5,13,2,1
3,18,13,30,23,1,2
1,5,1,6,3,1,4
6,1,3,2,1,1,10
7,2,1,1,2,1,2
1,0,2,2,10,4,1
0,14,16,8,19,5,0
1,5,1,9,2,4,13
0,1,3,2,1,1,9
2,2,23,0,10,1,1
1,3,9,0,14,2,0
0,7,4,2,3,5,1
2,5,2,9,0,2,3
2,1,2,4,1,1,12
18,0,3,2,9,2,2
4,2,1,1,24,2,2
2,11,1,0,4,6,1
1,10,5,3,0,12,4
0,1,14,20,3,1,7
4,0,3,3,29,1,2
5,1,3,3,17,1,0
3,8,6,1,2,3,11
2,7,1,3,2,6,13
1,2,2,1,0,2,3
3,0,1,2,25,0,1
7,2,5,1,12,2,2
3,10,13,3,0,0,0
2,8,4,7,2,5,13
1,1,2,5,12,2,8
0,1,2,2,25,0,3
6,1,4,2,4,2,1
3,8,3,1,0,2,2
1,3,3,9,1,8,7
1,2,1,22,9,2,16
1,2,2,3,26,1,1
2,15,2,1,10,0,0
2,27,16,1,0,2,0
1,5,1,1,1,1,4
2,2,4,9,21,3,15
4,1,1,3,9,2,2
8,1,8,0,2,1,1
3,5,4,1,2,1,1
3,12,4,2,1,1,5
0,2,1,12,18,5,1
1,0,1,3,44,3,1
8,1,0,1,5,1,2
11,8,5,1,2,2,0
2,11,7,4,8,1,10
2,3,2,18,31,3,22
3,1,2,8,8,5,3
1,2,1,1,0,2,1
6,8,0,0,2,1,2
2,19,19,2,8,0,5
1,1,7,4,31,1,2
2,0,1,1,7,4,1
0,0,1,0,2,1,2
8,1,9,2,0,1,5
3,14,17,2,11,0,9
0,3,3,4,8,0,13
2,0,1,0,2,0,1
0,0,0,0,2,2,1
12,0,1,1,0,1,3
3,10,4,3,11,1,12
2,2,2,1,15,3,13
1,5,1,7,1,2,3
10,2,2,4,3,1,2
6,1,3,2,0,1,1
1,6,13,1,12,0,6
0,2,8,1,13,0,9
1,1,1,10,2,2,1
1,1,0,1,0,7,1
8,2,1,1,2,2,2
7,13,14,2,23,1,1
2,4,7,2,12,1,3
0,0,2,6,2,1,3
1,1,2,2,1,2,2
4,2,9,2,4,3,4
10,17,12,1,28,1,0
2,6,4,1,4,1,9
2,1,2,4,3,0,4
1,0,1,1,1,5,1
6,4,2,2,9,2,0
13,16,11,1,28,1,1
3,2,3,8,6,1,9
1,0,1,29,1,1,22
1,2,1,5,1,2,3
4,1,0,2,9,4,1
11,16,9,1,32,2,0
2,5,28,0,10,2,9
2,2,4,9,2,2,21
2,1,2,18,1,2,3
2,2,1,3,13,2,1
9,15,7,1,21,0,3
1,2,6,1,3,2,8
0,0,1,2,2,2,4
3,1,1,8,11,1,2
10,1,2,2,26,9,1
12,12,3,0,9,4,0
2,3,3,1,2,1,1
0,1,5,1,0,0,22
2,1,1,1,3,1,13
3,3,1,1,24,1,1
8,12,4,2,6,6,2
3,1,20,2,2,0,2
1,2,9,1,1,0,10
2,0,1,3,8,1,2
3,11,3,6,30,1,2
12,6,6,2,18,3,0
4,1,7,2,2,5,6
1,0,1,0,0,2,14
4,1,0,1,13,1,1
11,3,2,1,22,1,0
9,13,1,1,4,1,1
2,2,23,0,1,6,4
1,2,22,6,1,2,11
1,2,2,2,22,1,2
0,1,0,3,10,2,1
6,21,2,3,3,1,1
3,3,2,2,0,6,3
1,1,6,1,6,1,7
2,2,1,0,29,1,2
0,14,0,6,8,2,1
6,35,0,2,2,1,2
10,5,3,1,0,10,4
3,2,10,0,12,4,10
2,2,2,2,26,2,1
2,4,1,1,4,0,2
7,13,8,1,2,2,1
8,3,17,1,1,2,8
1,0,17,1,16,1,19
2,1,2,5,19,2,2
0,5,1,3,2,2,0
0,12,5,12,2,0,0
4,1,13,4,1,3,4
2,1,5,0,6,2,22
2,2,1,1,19,2,5
3,11,0,1,4,0,0
0,14,1,11,1,0,1
7,2,4,4,1,1,2
11,1,1,0,24,4,5
2,2,1,0,9,2,2
0,9,1,3,1,1,1
0,12,14,3,2,1,0
9,1,19,1,13,1,2
18,2,6,0,31,3,5
4,1,2,1,14,3,15
1,2,2,1,1,1,2
1,4,1,8,2,5,1
11,2,6,2,15,5,0
3,1,5,1,18,2,10
0,10,2,1,3,1,12
1,7,0,0,2,2,2
1,6,2,5,1,0,1
1,0,6,1,21,1,2
8,2,11,0,19,5,9
2,1,2,2,2,9,5
0,2,1,1,1,2,1
1,12,14,9,3,2,0
7,3,26,7,23,0,0
14,1,7,2,4,4,9
2,2,2,3,1,5,5
1,3,1,0,2,0,2
1,7,1,2,1,1,2
7,4,10,4,30,1,2
8,1,4,0,26,2,14
1,1,0,0,2,2,20
0,0,1,1,1,6,1
1,16,0,1,10,3,2
3,7,2,1,20,3,2
1,1,12,7,2,1,2
37,1,3,3,0,2,7
45,2,2,2,1,5,1
44,13,2,1,19,3,2
56,2,3,5,21,1,0
27,1,3,10,1,0,1
3,0,2,1,1,1,10
4,2,1,0,2,10,2
6,16,2,2,8,3,1
8,12,9,8,9,1,4
2,2,11,4,2,1,16
1,2,3,4,2,2,12
2,0,0,1,3,2,2
1,13,2,1,22,3,0
8,27,2,3,25,1,2
3,4,4,11,2,1,5
1,1,6,3,2,1,8
1,1,8,2,4,1,2
9,7,4,1,25,4,1
15,1,6,4,9,2,1
6,0,9,8,2,1,9
0,0,1,1,2,1,13
2,2,1,2,1,2,2
2,13,1,1,25,3,0
7,4,3,6,16,1,1
2,0,12,10,3,1,8
1,2,5,3,1,1,16
0,0,1,1,12,2,2
2,11,2,2,12,5,1
2,4,9,2,1,4,0
10,1,17,1,1,2,1
0,1,5,4,0,2,6
1,2,2,1,16,1,4
0,9,2,1,20,1,1
4,4,3,0,1,3,2
16,0,7,5,1,1,0
6,0,5,10,4,0,20
1,6,1,3,29,1,9
2,13,1,1,6,2,3
1,8,3,1,1,3,0
9,3,20,14,1,1,0
1,0,7,15,3,2,14
1,1,2,0,20,2,12
0,4,1,1,7,0,1
1,1,2,2,0,2,1
6,2,13,18,0,2,8
5,1,5,16,4,2,10
1,3,2,2,23,0,0
0,7,1,1,19,0,2
4,14,4,1,3,2,2
8,3,8,0,2,1,4
5,2,9,3,9,3,10
1,0,6,1,27,1,2
1,6,2,0,5,0,2
1,11,0,2,1,1,1
3,4,2,1,2,6,3
6,1,8,14,3,4,13
1,1,6,2,17,2,2
0,9,0,0,1,1,1
2,14,0,1,2,2,1
2,4,3,5,8,9,0
11,0,19,7,34,7,1
5,2,8,2,37,2,4
0,9,3,0,4,1,2
0,14,2,45,2,0,4
0,5,1,65,2,3,1
8,1,12,53,12,5,5
4,0,6,26,4,1,3
2,6,0,24,2,1,1
0,10,1,27,1,2,2
2,2,7,11,0,2,3
7,1,5,2,27,12,2
8,1,4,1,15,2,2
1,5,2,2,1,0,1
2,10,2,1,1,0,1
2,3,2,6,2,0,3
1,1,15,1,16,2,3
8,1,7,3,6,2,3
1,3,3,0,1,1,2
0,7,1,7,2,2,1
1,3,1,9,1,1,0
1,1,3,4,21,0,0
7,2,11,1,3,5,5
2,6,2,1,1,3,2
1,19,2,0,1,1,2
1,4,1,8,6,1,2
1,1,8,9,20,5,3
10,2,5,1,8,2,2
3,7,1,1,2,2,8
1,22,1,0,0,2,1
0,5,9,9,2,1,1
1,1,7,10,20,0,6
13,0,8,1,12,6,10
7,1,2,1,2,1,12
1,6,1,1,1,1,1
1,11,1,14,8,1,2
0,1,13,19,27,0,1
7,1,22,3,6,3,10
7,3,2,1,1,2,22
2,11,1,0,2,1,3
0,3,1,2,7,1,2
18,1,1,1,25,2,1
28,0,5,1,4,1,5
6,4,7,2,2,3,2
3,9,1,15,0,2,1
0,2,0,16,18,1,1
1,1,1,3,26,5,4
7,2,17,1,5,6,2
10,6,10,2,2,5,2
2,18,2,0,1,4,0
1,6,2,8,12,1,2
0,1,8,7,18,2,2
8,2,16,3,3,1,1
6,1,2,1,0,3,3
2,5,1,1,1,5,3
2,15,0,2,41,2,2
2,1,8,3,24,1,4
1,2,7,1,2,1,5
9,1,3,1,0,3,4
9,17,1,3,7,9,2
1,2,2,2,28,2,1
0,2,2,9,7,0,1
1,1,2,3,1,2,1
13,4,4,1,2,1,10
5,6,1,6,13,3,8
2,13,1,9,23,1,3
1,2,0,5,3,0,0
2,0,6,1,2,0,5
7,1,4,2,1,0,20
4,8,0,1,17,5,10
1,13,0,0,16,5,2
1,3,13,4,2,1,1
4,1,26,13,2,2,4
18,7,9,2,4,2,20
15,19,2,1,22,0,6
2,7,2,0,10,3,1
1,2,4,8,1,2,1
0,0,10,7,0,2,1
9,2,12,1,20,0,8
7,4,1,2,38,0,13
2,9,0,2,7,6,3
1,2,2,1,2,2,2
0,0,14,5,2,0,0
6,1,7,2,17,1,8
7,2,2,2,19,2,7
2,8,1,1,3,7,1
0,1,1,0,2,6,1
1,2,5,2,6,1,2
11,2,11,0,26,2,6
12,0,1,1,8,1,16
2,18,0,5,2,1,2
2,11,0,10,1,9,1
2,1,10,2,2,3,0
5,2,5,8,29,1,7
9,5,2,1,18,1,11
3,13,0,3,2,0,2
1,2,0,2,0,2,1
2,1,14,1,2,1,4
2,1,10,7,21,2,7
4,12,2,2,2,1,3
13,21,1,1,0,2,1
6,3,0,1,11,3,0
1,0,6,1,39,6,2
3,2,7,8,20,2,8
11,3,1,3,2,2,14
3,4,2,1,3,1,2
1,2,1,2,4,4,0
2,1,8,1,33,5,1
0,0,10,2,14,1,0
8,4,1,1,2,1,13
4,12,0,1,2,1,6
1,1,0,3,11,1,2
0,0,3,18,14,6,2
1,2,9,10,1,3,2
22,8,5,3,1,2,14
20,13,1,1,1,2,2
8,3,2,4,19,2,1
7,0,5,3,17,2,2
3,1,13,1,3,12,0
6,2,2,1,1,2,12
2,15,1,1,6,1,2
2,5,3,1,26,1,1
1,2,0,5,8,4,2
2,2,11,17,2,7,6
6,2,0,4,2,2,9
5,13,0,1,1,1,8
2,2,6,0,17,0,1
0,0,13,0,30,2,0
2,1,9,3,3,8,2
3,4,2,9,1,4,3
10,15,0,2,4,2,2
1,5,0,1,18,0,1
0,2,1,0,12,3,0
2,2,4,4,2,8,0
7,4,12,3,2,3,9
9,12,1,1,11,1,24
2,3,2,2,17,2,4
2,2,0,5,3,1,1
0,0,1,13,0,2,1
3,0,1,10,1,4,2
12,14,0,2,34,1,8
2,7,1,2,25,1,1
2,1,0,2,1,0,3
2,1,7,1,2,0,1
8,1,5,3,5,2,4
9,7,2,1,24,2,12
3,8,1,2,6,1,2
0,1,1,0,3,1,2
1,2,8,5,0,0,1
0,1,1,7,4,4,6
7,10,1,1,29,2,14
5,4,1,1,11,1,2
0,2,6,1,1,2,2
2,1,18,1,1,1,2
0,0,6,5,19,4,7
4,13,1,3,25,11,12
11,8,1,2,4,2,2
1,2,1,2,2,1,1
1,2,3,1,1,1,0
1,0,10,1,17,1,1
2,1,2,10,15,0,17
10,3,2,1,2,0,5
2,2,0,1,0,1,2
0,0,5,3,9,2,0
1,2,13,6,28,2,0
2,10,2,21,5,3,13
11,10,1,3,2,1,3
2,2,2,3,0,0,0
2,1,2,3,1,2,0
0,1,8,13,26,1,8
0,11,5,4,12,7,23
7,5,2,2,1,2,6
2,3,0,0,1,1,2
1,1,1,0,20,0,0
1,0,14,3,20,1,9
2,5,22,7,2,5,17
6,1,1,1,0,5,3
1,1,1,0,3,2,3
0,1,4,1,15,0,0
0,2,7,0,14,1,3
0,11,4,2,2,1,19
5,14,1,4,1,3,4
12,2,1,2,13,1,0
1,1,5,1,34,1,2
1,2,26,1,7,0,13
3,11,5,1,1,1,12
10,5,1,11,1,6,1
5,1,1,4,18,4,1
2,1,1,2,21,1,2
1,1,10,1,2,2,5
1,3,3,1,1,1,8
5,14,0,1,3,4,2
9,1,1,7,21,2,1
2,2,1,2,27,2,1
1,1,2,1,1,1,18
1,6,6,0,1,1,10
9,10,2,15,2,0,1
12,2,0,5,36,5,1
1,0,3,1,15,6,2
1,2,8,1,1,1,6
1,12,8,1,1,0,15
8,16,2,7,1,1,2
11,2,1,2,28,8,0
0,1,0,1,26,5,1
1,3,1,0,3,2,1
1,11,17,1,1,2,8
13,1,6,8,24,2,5
9,0,2,2,12,2,2
1,1,1,0,1,10,1
1,2,2,1,1,0,1
2,12,7,2,10,1,11
1,2,7,13,23,9,9
7,2,3,4,4,7,1
3,0,0,2,1,2,2
0,4,4,1,0,1,0
0,24,14,1,21,3,10
6,7,5,3,34,2,5
14,2,1,0,4,3,2
3,1,1,0,1,11,1
0,1,1,1,2,7,1
2,19,6,1,26,1,11
2,4,9,0,10,1,4
8,1,2,13,2,1,0
1,0,1,9,2,4,2
0,5,1,1,11,3,1
5,17,9,1,31,1,10
9,3,8,0,7,1,3
8,0,2,6,2,0,2
4,0,1,2,1,5,1
2,1,3,2,26,5,2
1,6,5,0,32,2,12
2,11,6,1,2,1,3
3,1,1,5,0,0,2
13,2,1,11,2,3,2
1,1,1,1,5,3,1
0,7,4,2,24,2,5
0,9,8,0,8,1,7
7,3,6,8,3,2,2
14,2,2,7,2,14,0
4,2,1,3,17,7,1
1,8,2,1,25,2,2
2,11,4,2,2,6,2
7,2,4,2,2,1,0
13,2,2,2,3,12,17
2,1,2,0,28,6,21
1,4,2,1,10,3,12
2,13,1,6,2,2,2
3,2,1,3,1,3,3
15,0,2,3,14,4,1
1,3,1,1,19,10,0
0,20,0,1,3,4,19
1,9,2,1,2,1,11
3,4,29,0,4,1,1
3,1,20,1,22,2,1
2,1,3,7,13,10,2
1,13,2,4,2,4,10
2,7,2,1,1,2,2
2,3,11,1,0,0,1
8,2,4,2,23,1,2
10,2,1,4,21,2,8
1,5,2,1,1,2,15
0,11,8,0,2,1,5
1,3,14,2,12,2,2
6,0,2,14,30,1,1
3,1,1,18,4,2,0
2,11,1,3,2,1,16
2,12,1,0,4,2,8
1,1,13,1,26,0,2
8,2,4,7,22,1,2
10,2,1,9,3,4,15
1,9,4,6,1,7,34
1,1,12,1,7,2,5
1,1,9,1,31,1,2
5,0,2,1,12,0,2
8,0,2,2,2,3,4
3,16,1,2,0,3,7
0,22,11,0,20,1,2
1,1,9,0,35,0,0
6,1,11,2,7,2,0
11,1,3,6,1,0,2
2,14,2,3,0,5,4
2,10,2,2,24,4,1
1,2,10,1,26,2,1
6,1,3,2,3,2,1
15,1,8,3,0,2,0
2,7,1,2,10,3,6
0,3,7,3,29,5,4
1,1,7,2,4,2,0
2,0,24,2,3,0,1
7,2,6,1,1,1,0
2,22,1,5,10,1,3
1,14,35,5,29,1,19
3,2,49,3,9,2,3
2,0,5,1,1,1,1
5,7,2,1,2,2,2
4,14,9,6,15,0,17
1,3,34,4,17,1,11
1,0,73,2,1,3,1
0,2,14,1,1,1,1
2,0,0,0,2,2,2
11,7,1,1,16,5,7
1,3,21,2,11,1,2
1,0,16,1,2,2,1
2,2,8,0,0,2,1
3,6,0,0,16,0,2
9,10,5,2,22,1,9
1,1,40,8,4,3,8
2,2,46,1,2,2,2
1,0,4,1,2,0,1
9,0,22,2,17,0,0
18,10,38,4,29,1,1
8,16,5,1,2,7,9
2,3,4,2,1,4,4
0,0,0,6,13,5,1
6,1,38,9,51,1,1
10,10,53,5,15,0,2
0,1,6,3,1,0,17
1,1,19,2,4,1,8
0,3,77,2,37,4,1
4,7,39,1,19,3,0
13,11,9,1,17,2,1
2,2,3,3,1,0,13
1,1,2,19,3,5,5
0,4,26,7,31,8,1
1,4,3,2,9,1,1
11,9,43,1,1,0,2
2,4,29,2,31,0,3
0,1,31,6,30,1,1
1,2,44,6,5,1,1
2,2,20,3,0,5,0
6,12,15,1,0,1,8
2,5,13,2,10,0,8
2,1,14,1,38,1,14
1,0,8,2,33,2,2
0,2,123,0,4,4,0
12,7,13,1,2,2,0
8,9,16,9,1,0,2
2,3,21,7,1,1,15
0,0,3,6,15,6,2
2,1,61,3,11,13,3
6,12,49,0,19,4,5
8,8,22,9,28,2,2
1,2,9,18,2,0,9
1,1,3,5,2,4,3
2,0,50,3,36,33,1
3,11,13,1,6,18,0
9,14,0,1,39,2,0
1,2,146,4,64,0,16
2,2,10,16,5,9,2
1,0,4,5,1,23,0
1,2,34,2,42,5,1
1,1,82,3,104,1,2
2,0,8,2,2,1,11
1,0,26,9,106,35,3
1,4,95,6,23,33,0
1,7,11,2,31,3,0
15,14,66,0,3,25,7
8,1,97,1,58,4,24
2,1,51,2,69,1,10
2,2,9,9,11,30,0
1,11,0,4,42,11,1
8,8,39,1,3,48,1
3,1,67,0,1,49,5
1,1,34,2,80,3,2
0,1,8,8,19,43,2
2,13,47,5,3,149,2
10,5,218,2,23,13,5
11,1,22,2,48,2,7
1,2,4,2,3,24,4
1,8,1,4,36,76,0
3,9,122,1,15,150,0
13,12,5,2,4,7,1
5,2,1,1,6,1,5
1,0,35,1,59,114,8
1,2,43,3,7,36,7
1,6,5,19,55,33,2
11,10,66,5,53,2,1
5,2,6,2,8,74,1
0,0,119,1,7,68,3
1,1,37,1,19,25,1
4,12,8,3,18,3,1
8,14,16,2,30,0,2
7,1,96,0,3,65,3
3,2,47,1,22,29,11
0,0,6,1,28,117,7
2,7,1,11,32,31,2
1,12,2,5,4,40,0
3,5,117,1,19,95,2
1,1,73,0,32,22,6
2,0,26,2,15,50,3
5,5,12,14,4,5,1
8,14,3,2,9,57,0
9,1,131,7,27,14,2
3,1,43,16,17,44,7
0,1,3,1,52,159,12
1,18,6,2,8,20,2
1,18,25,1,2,23,1
11,1,68,2,26,3,2
2,0,13,1,11,60,3
1,2,8,0,27,22,1
0,1,2,1,9,65,1
6,1,24,2,17,41,1
12,0,50,2,4,41,4
4,1,12,1,7,116,2
0,9,43,3,21,5,11
1,19,5,21,1,26,2
2,9,70,9,8,13,1
8,2,38,2,22,145,2
7,1,6,1,34,13,2
2,2,8,1,5,21,15
2,11,81,22,2,31,4
0,12,9,5,4,83,1
8,12,1,5,45,11,2
14,2,22,2,4,15,1
1,0,67,8,2,27,6
0,3,7,11,0,11,13
1,32,4,2,5,83,8
5,54,77,2,16,16,2
21,40,21,16,33,34,2
3,4,15,7,8,25,6
1,0,72,6,2,7,1
1,3,7,3,27,6,1
3,65,26,1,6,3,2
8,51,44,1,21,28,4
2,43,25,18,2,4,12
2,16,20,79,3,30,1
0,2,5,20,20,12,2
1,49,1,2,15,37,2
9,7,121,38,1,12,7
2,2,17,92,7,24,6
2,1,7,30,2,17,2
0,13,2,3,21,4,2
2,71,19,2,36,40,2
1,10,7,15,3,16,2
1,34,60,20,2,3,8
2,36,23,4,9,10,10
0,6,3,26,22,90,2
1,0,15,1,11,54,0
7,30,10,31,3,4,2
15,2,30,182,4,2,24
2,2,71,97,25,70,32
1,50,9,9,21,9,4
0,106,8,2,5,17,1
2,5,7,135,1,8,3
13,10,55,39,5,2,14
2,9,10,3,36,11,9
2,10,54,96,22,74,3
0,5,10,19,2,6,0
5,131,2,160,2,8,0
14,14,66,35,7,15,11
1,5,96,2,35,4,6
0,2,12,23,12,37,2
1,17,5,79,1,17,0
1,3,85,165,6,11,2
8,60,31,47,14,1,5
1,37,16,3,21,28,1
1,4,20,2,4,44,2
1,55,2,145,1,9,1
0,97,74,51,7,9,22
7,6,54,64,27,15,14
1,2,21,5,8,11,2
2,32,43,3,1,4,1
1,4,4,129,1,3,2
10,37,51,8,25,12,0
9,26,94,69,14,94,8
3,22,30,256,4,17,6
1,56,3,17,1,23,0
1,4,9,129,2,24,0
4,26,65,23,1,7,1
21,4,37,131,28,5,1
6,4,40,50,17,27,5
1,64,6,30,1,23,3
0,34,1,39,1,7,1
1,9,78,11,37,2,4
11,36,9,146,22,64,9
7,4,60,39,3,6,18
2,31,12,10,1,17,3
2,27,61,155,6,4,1
1,42,79,79,33,80,1
3,7,13,36,10,6,2
7,45,5,59,0,38,8
2,24,56,6,5,11,3
1,4,17,34,8,27,0
1,2,14,22,32,9,1
0,2,42,31,11,26,1
9,0,13,65,2,3,3
3,83,10,169,12,40,1
0,46,2,11,17,9,0
2,6,40,70,17,26,1
0,2,6,45,1,14,1
9,3,32,15,1,11,6
4,128,1,29,7,24,11
1,11,3,52,40,34,2
2,1,34,10,18,6,1
1,15,14,129,2,5,2
11,37,24,51,0,13,13
7,12,31,61,30,48,14
2,16,21,116,43,26,2
2,3,4,37,9,27,0
2,9,3,22,3,9,2
12,57,27,75,1,7,7
9,12,25,126,28,31,7
3,49,3,4,16,3,3
0,7,83,14,3,12,1
1,40,9,76,2,24,2
5,23,92,129,16,12,9
5,3,11,67,7,27,9
1,1,45,19,2,51,1
0,28,30,25,2,6,2
2,14,20,32,1,2,12
5,5,35,115,5,13,13
13,0,24,60,44,5,5
2,44,4,43,10,12,2
1,6,41,18,1,15,1
0,9,16,169,1,17,2
6,1,6,16,22,2,4
15,10,3,46,35,11,2
3,1,98,199,4,64,0
2,1,12,21,1,21,1
3,80,5,64,1,4,1
6,10,2,64,1,1,10
7,1,74,103,32,1,10
2,34,93,53,10,34,1
0,21,34,45,12,11,0
0,21,4,4,10,42,1
2,22,1,79,25,3,8
4,2,94,54,5,13,16
6,46,27,66,2,5,1
1,7,3,13,2,2,1
1,2,1,137,22,7,2
0,42,8,33,13,36,25
3,49,41,121,2,29,28
17,13,25,43,0,3,3
4,3,1,48,5,23,0
0,18,1,5,36,16,1
1,17,31,13,6,38,12
4,27,20,228,2,8,5
9,3,9,47,2,16,2
3,22,13,36,24,5,1
1,2,21,31,37,22,0
1,42,9,109,4,51,0
3,5,55,29,1,4,2
12,20,27,9,6,23,1
2,31,39,77,25,23,3
0,19,4,29,24,23,4
5,25,23,11,4,6,5
3,3,52,168,1,10,9
9,2,5,19,5,7,2
5,50,63,62,33,20,1
2,30,4,49,24,11,1
1,15,1,11,7,6,0
25,6,39,12,1,11,2
20,1,77,104,6,14,10
3,20,13,22,34,6,3
1,25,1,37,13,5,1
2,23,0,63,2,23,1
11,3,99,12,2,15,6
25,1,11,83,19,9,2
17,20,9,127,12,14,1
33,10,6,16,4,3,1
38,12,51,68,1,6,1
4,1,34,142,10,22,0
19,20,5,15,31,4,5
2,26,6,70,17,29,4
1,1,24,11,1,10,8
121,2,7,186,0,4,5
135,60,26,76,25,16,8
6,55,27,88,17,13,10
1,2,12,91,2,5,1
39,1,7,16,0,8,2
79,56,23,88,2,3,0
6,21,11,19,1,1,2
2,3,13,34,37,48,8
99,8,5,166,8,6,1
107,10,1,152,2,25,2
5,25,31,6,1,9,2
0,32,27,5,20,12,5
84,3,28,155,18,27,13
138,1,12,63,2,4,4
9,5,15,25,0,13,1
2,0,10,188,4,18,0
0,34,43,7,16,7,2
199,1,9,20,15,2,4
49,10,4,143,3,16,1
6,6,1,45,2,4,1
1,14,37,35,39,17,2
57,0,24,103,58,15,1
7,10,25,30,6,7,1
1,43,19,89,2,6,3
37,11,19,103,1,19,0
75,0,11,10,17,6,1
35,10,12,64,32,3,12
124,13,30,43,2,52,11
7,6,41,68,2,24,4
1,21,8,5,3,9,1
18,3,1,82,20,21,0
111,2,47,85,34,24,1
21,1,50,35,4,9,4
5,17,35,14,1,1,8
0,20,5,59,14,13,2
37,13,41,12,29,11,1
7,9,33,41,3,1,1
56,1,6,163,1,17,1
13,3,15,17,9,2,3
2,65,136,20,25,21,2
92,28,15,118,17,1,1
12,1,3,6,3,33,2
12,13,8,3,2,3,0
102,19,12,35,19,16,7
6,13,37,12,42,8,3
19,1,4,37,11,21,2
59,0,41,42,2,62,0
22,20,6,37,1,11,1
2,11,33,112,31,10,9
8,3,9,68,12,4,8
33,11,1,8,1,5,2
24,1,3,19,3,17,0
13,19,14,61,23,20,0
8,45,53,87,43,4,2
55,2,24,46,27,0,4
11,12,1,7,2,3,1
12,30,2,6,0,5,1
6,15,32,14,30,33,3
4,3,10,130,33,4,12
55,1,30,91,4,6,12
34,7,4,30,0,49,1
3,18,47,2,14,8,1
1,3,42,39,31,23,1
1,0,6,44,5,4,0
38,6,24,10,1,7,9
10,28,71,26,1,20,4
9,17,9,19,19,18,2
14,4,11,2,21,1,2
9,11,4,41,3,7,0
23,3,17,47,2,11,9
3,32,41,15,3,13,4
127,29,17,41,14,4,1
11,4,16,160,26,14,2
1,2,4,8,3,9,1
7,9,10,70,0,10,6
68,20,10,11,2,13,5
10,4,2,65,29,0,2
1,1,72,147,8,17,2
31,39,15,15,1,5,1
17,43,6,2,1,35,6
7,52,54,143,9,12,19
22,5,7,25,25,1,2
22,2,1,2,8,5,2
2,35,6,21,1,1,0
16,24,16,74,3,44,7
34,46,30,36,15,18,21
3,4,3,2,43,2,4
2,1,19,109,8,12,0
39,39,13,69,2,9,2
2,17,16,6,2,4,5
51,2,8,12,16,5,18
10,1,14,29,45,2,4
9,4,1,39,4,1,2
21,42,11,40,1,14,1
17,37,56,87,8,36,5
6,4,19,27,16,3,20
48,8,4,11,18,2,6
43,37,1,145,2,33,2
3,7,3,12,2,4,2
7,12,53,32,2,33,4
25,4,89,52,31,4,11
48,1,7,42,15,30,2
4,4,30,166,2,8,1
2,18,25,56,2,7,1
19,2,57,27,25,10,2
34,8,30,70,35,8,6
19,2,8,32,4,14,5
5,30,5,83,2,6,1
1,39,60,27,9,20,1
19,4,25,101,22,16,0
28,0,5,41,14,2,10
39,1,21,55,2,4,5
3,25,29,31,2,33,2
6,67,4,39,2,18,1
2,5,5,26,15,21,1
55,1,49,46,27,1,9
7,36,54,175,4,10,3
14,23,14,8,2,9,1
22,4,8,7,6,9,2
20,1,23,36,30,24,1
33,7,17,25,18,10,5
5,20,86,85,2,5,7
13,26,28,58,0,15,2
31,1,5,6,15,2,1
12,21,5,16,34,5,2
31,30,1,21,6,1,3
36,2,34,24,1,43,9
4,2,12,49,19,20,3
21,1,39,19,3,17,0
36,2,17,89,11,1,1
7,26,35,16,2,9,1
3,40,9,45,1,6,1
80,3,22,28,2,6,6
12,1,2,45,16,4,1
1,1,29,52,4,44,3
11,36,35,9,2,8,2
52,17,66,67,0,4,4
46,2,8,33,2,2,13
5,1,29,60,17,35,2
12,2,8,23,21,2,1
19,10,57,17,2,25,1
64,30,73,86,1,4,7
8,13,29,102,2,2,14
1,5,8,101,11,15,3
29,1,5,82,6,23,1
33,30,3,8,5,31,0
2,21,6,29,10,4,5
20,4,28,12,15,2,17
13,1,11,27,12,11,3
44,1,9,68,2,25,1
10,8,45,51,0,21,0
4,18,18,7,7,12,6
2,27,12,24,18,9,7
28,4,5,11,7,13,1
2,2,37,65,3,4,1
2,1,33,27,2,1,6
15,3,38,3,3,6,17
6,20,4,19,2,9,18
9,14,14,7,5,3,3
5,30,4,15,2,4,0
6,4,1,4,0,13,1
4,0,113,1,3,2,11
2,13,32,49,15,54,8
4,119,17,99,20,29,1
49,8,11,47,2,3,2
26,5,1,73,1,7,1
4,30,14,33,11,16,2
2,25,13,39,27,2,15
13,5,32,36,13,17,3
5,1,5,10,2,4,0
13,9,31,5,13,3,1
7,3,4,16,20,44,6
5,0,16,9,1,11,16
3,20,18,3,1,21,2
1,56,35,1,1,9,1
15,6,4,26,1,9,1
12,1,4,191,25,10,11
3,2,44,10,4,8,16
21,17,13,16,2,2,2
3,2,1,53,0,16,0
11,9,1,9,9,3,10
15,8,16,36,63,58,11
23,4,29,30,16,8,0
6,3,25,35,1,19,2
11,25,24,120,1,2,0
2,23,4,12,16,10,2
1,2,1,94,40,14,17
33,1,4,16,4,7,4
11,14,17,42,1,2,1
10,16,6,18,2,18,2
17,2,5,20,19,43,5
8,4,3,118,18,6,17
2,29,55,6,5,6,4
3,2,5,47,1,4,2
23,10,4,12,5,13,0
5,18,20,89,28,27,0
28,5,9,144,8,8,18
5,2,51,5,1,2,8
2,5,8,122,1,2,1
2,1,5,13,13,14,1
10,5,1,39,24,25,1
62,51,95,16,6,3,6
5,8,12,35,0,4,3
18,4,21,12,0,13,1
4,2,6,21,6,18,0
10,10,20,87,4,6,0
34,24,22,21,26,7,15
4,3,45,59,4,1,10
6,1,18,22,1,26,2
11,4,5,57,16,12,1
5,21,3,25,26,3,1
12,21,57,15,2,12,4
8,2,15,34,0,10,5
14,5,23,4,2,4,2
104,4,2,53,20,26,1
4,0,43,38,20,1,1
39,22,21,31,2,4,10
41,4,21,78,0,18,9
57,7,11,36,1,12,2
10,5,4,48,29,4,1
5,22,4,66,19,1,4
2,7,8,32,3,5,18
2,1,23,38,1,0,5
11,2,24,66,1,8,1
31,32,6,17,24,35,0
3,17,1,34,13,7,1
67,8,1,34,1,2,13
6,3,39,5,1,7,6
3,1,59,88,3,56,3
35,2,25,28,19,6,2
17,31,2,66,7,4,1
2,10,2,6,2,43,8
8,27,2,149,9,12,23
18,2,31,73,18,5,2
7,2,85,13,10,4,1
6,16,21,3,2,7,1
34,6,7,73,0,4,12
3,21,3,100,8,9,5
12,14,0,6,23,31,3
1,1,9,82,2,6,2
15,17,0,13,1,0,2
33,18,41,108,2,1,10
13,13,62,10,14,46,6
22,3,5,141,27,11,1
4,31,47,21,2,3,1
2,3,6,28,1,11,7
0,1,18,5,8,9,17
51,12,73,24,24,21,8
9,67,6,189,5,6,3
14,12,5,17,2,2,2
6,1,3,26,1,16,2
19,0,31,41,0,21,13
4,4,1,84,11,22,6
2,37,3,105,19,4,2
8,8,1,17,4,6,1
5,4,49,73,2,5,2
43,15,32,121,1,13,14
4,2,47,25,10,15,24
3,14,10,2,24,4,5
9,5,9,192,3,19,1
10,24,25,14,1,25,1
8,5,11,12,5,7,6
5,40,1,32,24,5,3
2,24,4,29,3,3,2
9,3,39,57,1,6,0
15,15,9,13,5,72,1
47,15,9,14,11,14,2
21,16,1,81,43,3,7
1,7,22,9,6,1,3
9,13,14,2,1,11,2
10,2,12,31,2,13,0
19,4,12,36,11,20,8
1,7,5,48,27,4,9
0,24,6,8,4,18,3
17,3,2,38,1,6,1
8,16,32,10,20,11,1
1,3,9,85,16,10,2
4,36,4,13,27,9,13
5,17,12,27,2,9,5
3,4,22,8,2,5,2
11,1,2,10,11,12,0
7,17,12,9,16,3,2
20,16,24,2,1,1,14
4,8,8,5,1,25,5
2,3,7,43,0,24,1
27,11,2,81,15,3,2
17,5,1,192,26,6,6
3,1,2,7,8,13,4
6,37,30,31,2,21,2
14,16,16,64,2,31,2
2,2,3,8,38,2,0
0,4,1,54,16,4,2
1,8,25,23,1,2,4
6,15,19,16,2,45,13
22,1,9,22,8,9,1
17,9,4,3,32,1,1
4,10,16,6,7,6,0
41,2,24,6,1,7,16
19,2,3,8,6,14,21
5,27,25,6,20,24,1
0,16,1,2,21,3,1
1,3,39,1,2,9,1
10,1,40,2,1,3,14
30,24,10,5,2,22,6
2,45,8,10,18,3,0
2,4,1,3,26,2,1
2,2,2,2,4,22,0
13,3,14,20,0,18,13
14,5,36,68,4,13,11
10,28,14,104,24,13,3
0,4,5,4,9,4,1
22,1,3,171,1,14,2
15,4,20,30,0,4,13
31,3,3,50,3,8,3
2,4,13,168,22,2,1
25,22,6,27,8,12,0
27,2,4,105,1,3,10
8,9,2,45,1,35,29
13,33,2,37,14,4,6
6,29,26,8,37,3,1
16,2,48,35,8,1,2
22,1,7,49,3,27,2
3,9,4,27,1,17,10
19,26,0,27,25,5,1
3,16,11,21,10,0,0
17,3,34,56,1,22,1
10,1,13,3,2,30,6
4,3,1,12,1,16,14
5,16,52,27,26,9,1
1,4,31,36,10,4,1
19,13,14,97,2,6,1
3,3,4,61,2,8,10
12,17,1,55,14,13,16
4,32,0,15,42,2,2
5,14,0,149,6,14,1
3,2,110,9,1,7,1
3,1,6,149,2,16,5
2,6,12,39,16,2,2
17,30,16,7,21,3,0
58,2,3,34,4,2,1
6,4,73,69,1,10,2
3,12,21,60,2,29,13
2,1,13,34,28,2,8
23,1,6,5,18,14,2
11,6,0,36,3,13,1
23,4,39,7,0,24,2
10,3,17,40,9,8,0
5,57,41,6,22,3,2
15,11,7,18,7,24,1
6,1,1,10,2,13,2
4,7,87,78,0,4,1
17,14,29,18,1,3,11
7,4,41,12,26,5,17
17,2,5,47,11,10,3
13,3,1,72,1,3,2
1,6,8,23,4,1,1
12,1,29,20,26,45,4
21,17,2,25,26,4,11
16,9,2,15,5,16,2
3,1,36,24,1,8,0
13,17,28,68,1,3,1
22,15,2,77,14,0,2
6,5,55,36,23,1,8
1,1,14,24,2,5,9
2,2,25,99,2,7,2
4,2,103,9,17,14,2
18,4,5,37,41,4,0
8,0,2,3,7,16,8
20,22,7,23,2,7,4
3,3,4,37,2,2,2
12,2,18,33,8,5,1
4,13,18,9,37,4,1
7,12,3,67,15,7,1
0,1,24,70,1,19,0
3,3,63,17,5,5,0
44,22,5,12,22,6,4
14,11,1,53,16,3,8
10,26,39,52,2,30,6
2,3,30,37,1,10,9
4,2,10,55,14,14,1
18,44,8,4,39,5,0
16,11,3,64,5,4,0
4,1,2,140,1,7,2
1,11,4,4,2,17,8
6,3,2,19,5,4,2
22,31,27,19,24,1,2
9,3,5,51,4,5,0
14,10,2,18,1,9,0
4,1,3,13,14,11,7
17,12,23,27,6,4,6
36,4,3,48,17,1,3
4,7,28,22,4,2,2
20,0,13,2,1,32,1
12,22,24,42,0,14,4
7,9,45,33,17,1,10
31,3,4,39,34,1,1
17,1,9,16,4,6,2
2,2,13,12,1,23,6
25,11,16,40,2,7,2
25,5,4,44,23,7,10
4,21,1,80,26,2,1
1,2,18,22,2,3,2
7,3,4,74,2,13,1
2,3,2,58,12,26,2
10,30,1,4,15,3,6
3,13,3,38,2,1,2
14,2,25,45,4,13,2
12,1,15,27,0,23,3
32,22,1,10,14,5,1
3,7,0,8,18,2,4
1,7,0,64,3,1,5
3,38,5,40,0,13,1
28,11,32,5,3,21,1
53,1,10,4,31,5,1
7,26,3,15,32,1,7
3,3,27,46,1,23,18
1,3,4,15,1,26,1
20,8,3,36,8,15,1
9,35,2,12,27,4,1
9,7,13,8,16,3,6
19,10,21,2,3,19,7
11,8,14,30,1,4,2
3,5,1,10,24,14,1
9,2,2,27,32,3,2
12,5,2,4,3,5,5
6,2,6,16,1,5,13
9,26,30,2,5,13,1
23,5,4,54,30,2,2
5,56,9,45,20,0,0
15,6,24,55,2,3,9
1,3,3,3,2,14,20
19,1,2,5,10,5,3
34,5,5,47,12,14,0
3,42,0,43,2,2,0
8,10,1,3,1,6,2
16,1,19,4,1,11,4
2,18,25,44,18,22,1
0,38,10,17,39,2,0
2,5,1,0,4,1,0
33,5,11,1,1,6,9
30,1,38,6,4,16,14
6,1,4,95,50,1,1
18,1,23,25,9,2,1
2,20,13,6,2,41,1
4,8,7,3,1,3,3
8,1,40,22,3,8,10
28,17,4,18,42,1,1
48,8,10,9,12,2,0
8,1,109,5,2,3,1
1,3,6,1,2,5,6
2,2,5,48,31,16,13
30,7,87,15,16,5,4
3,37,21,4,4,1,0
6,3,22,4,3,1,0
26,2,6,1,1,10,2
9,0,1,9,1,11,14
6,6,19,40,47,2,7
2,10,19,26,10,0,1
2,45,27,22,5,2,1
6,4,68,14,1,14,1
7,0,9,14,11,27,9
9,1,1,7,59,4,4
8,16,1,2,6,2,1
1,10,18,3,14,6,1
44,2,2,9,11,23,5
9,18,2,12,16,9,3
1,6,25,6,2,7,0
13,24,39,1,4,2,2
2,7,3,44,2,3,14
2,0,78,13,41,16,7
7,9,17,19,22,15,7
30,4,1,5,8,3,4
2,21,0,3,2,2,1
14,3,2,1,14,5,2
31,0,103,21,1,14,0
3,2,18,1,1,9,9
18,10,3,0,0,7,13
7,18,4,2,0,2,1
2,2,29,8,1,3,0
17,0,2,24,36,12,1
6,32,23,4,16,2,5
8,44,136,1,1,2,15
3,4,8,1,0,3,3
1,1,1,0,16,13,1
11,0,1,46,39,7,1
63,32,27,20,7,8,3
4,21,10,3,3,3,11
3,1,50,17,1,2,1
4,2,105,14,18,0,1
24,5,7,20,9,26,2
23,14,2,5,2,8,9
2,8,41,1,1,1,12
4,31,74,1,2,1,2
2,3,87,17,29,3,1
20,5,7,25,29,17,1
9,0,9,3,4,5,2
2,11,4,5,0,1,14
1,3,84,15,9,3,4
2,3,70,22,60,14,2
25,4,4,5,11,6,1
3,6,1,2,2,1,11
1,6,10,1,3,0,19
1,3,6,15,15,2,2
1,1,13,16,15,0,1
14,19,8,3,1,25,1
7,8,5,1,1,2,5
15,21,19,9,1,3,15
3,4,5,5,21,1,2
28,2,9,3,15,17,1
45,0,24,0,1,23,1
5,32,3,1,2,4,11
7,22,3,10,18,2,21
13,8,1,15,20,7,2
8,1,2,15,1,13,1
7,7,1,2,1,2,9
7,1,13,2,0,1,17
4,15,7,10,30,4,2
2,2,3,17,20,3,2
7,2,2,4,3,0,0
4,26,0,0,2,2,0
15,7,3,0,8,1,13
19,3,9,10,31,6,4
4,0,45,19,7,5,0
1,2,6,1,1,36,1
22,14,0,1,0,7,1
7,8,29,2,2,3,12
10,1,5,14,21,1,3
1,2,13,3,38,37,2
41,2,12,0,3,43,1
10,0,2,1,0,17,6
4,18,9,2,0,30,25
1,24,21,9,20,20,8
22,11,10,4,6,0,3
22,2,0,1,2,6,1
4,8,2,2,1,57,1
4,7,5,8,12,118,15
1,3,5,16,16,52,8
60,2,1,19,1,5,1
7,0,0,1,1,0,1
14,6,5,0,1,1,1
7,42,7,0,11,10,7
1,9,10,9,42,18,9
38,0,2,10,15,27,2
7,24,14,1,2,8,1
1,10,23,1,0,2,1
1,1,3,3,30,2,10
19,1,5,18,12,16,5
11,1,3,25,2,12,2
4,2,1,3,1,2,4
1,12,1,0,10,2,2
5,3,5,12,21,2,1
9,16,17,15,3,6,16
9,3,2,4,1,6,2
2,2,2,2,2,1,2
0,14,5,3,14,0,1
16,3,20,10,15,2,3
26,1,24,6,1,10,2
3,1,6,1,1,7,0
3,46,3,2,10,2,2
0,36,1,2,33,2,16
11,3,3,9,3,2,7
6,3,17,5,2,13,5
49,2,3,3,1,9,2
9,21,1,2,14,3,0
6,38,10,2,31,2,2
7,13,4,15,3,0,2
29,2,1,10,3,5,6
5,2,1,2,1,7,3
2,19,2,1,17,2,2
6,7,15,0,16,8,2
16,1,6,9,3,3,1
31,1,7,9,2,5,10
3,3,2,4,1,14,8
2,29,1,0,22,5,2
3,4,3,0,10,0,0
1,2,12,2,2,6,0
24,5,10,25,0,24,5
5,21,2,9,19,2,9
15,27,1,2,47,2,1
5,6,2,2,7,0,1
7,2,5,6,1,2,0
17,1,2,26,1,7,11
7,15,0,4,17,16,16
2,16,1,1,17,5,2
15,16,4,0,3,2,1
11,0,12,13,0,0,2
12,5,11,8,2,16,7
18,26,2,1,31,26,4
5,8,1,0,25,4,2
18,1,0,2,2,1,2
17,1,9,11,2,4,0
1,4,5,9,17,22,1
0,19,1,3,32,13,8
23,5,2,2,4,2,10
21,2,0,0,2,2,2
3,5,0,7,0,2,2
5,2,40,9,24,2,2
19,14,19,4,15,24,8
3,2,4,1,3,3,3
15,1,3,0,1,2,2
9,9,6,4,9,1,1
3,25,4,12,28,10,1
6,9,1,2,10,18,10
1,2,1,1,1,2,6
1,3,2,2,1,1,1
13,2,1,2,5,2,2
4,29,9,15,31,15,2
2,10,4,17,8,4,9
16,10,2,2,2,0,6
10,2,1,2,2,1,2
3,1,3,5,16,9,1
3,15,7,10,20,19,1
6,5,1,7,4,7,5
9,2,2,2,0,1,5
9,1,2,1,0,1,2
6,1,2,6,14,12,2
5,1,13,25,7,5,2
2,19,0,2,2,16,1
15,8,7,1,1,3,7
6,1,9,2,16,2,3
7,1,1,3,46,22,1
3,6,6,4,7,8,0
1,6,11,5,2,1,4
38,2,3,4,0,1,2
9,2,1,1,2,2,4
3,5,10,1,10,10,1
5,1,31,4,13,14,1
14,0,4,5,2,3,1
1,5,1,0,2,1,7
12,4,2,0,6,1,6
2,11,1,1,26,4,0
2,52,14,8,6,8,1
1,4,3,23,2,4,0
11,2,1,3,2,0,2
13,8,2,1,11,3,6
14,5,0,1,37,21,2
2,27,11,4,5,26,1
29,5,3,20,1,3,1
18,1,1,7,0,1,3
2,71,1,1,21,1,13
7,23,2,2,17,5,5
1,25,1,15,4,1,0
46,20,14,5,0,3,0
14,3,6,2,1,1,2
1,1,1,0,20,1,17
0,28,2,3,11,13,9
27,20,10,18,0,15,2
7,2,3,9,2,2,2
8,2,2,3,13,1,0
2,108,3,2,23,9,10
0,9,17,0,4,17,8
2,1,4,13,2,2,1
21,17,2,11,1,1,1
17,12,1,1,0,0,1
2,58,1,1,14,1,9
1,5,1,0,6,14,5
6,2,0,13,3,7,0
32,23,2,6,1,1,0
6,40,1,2,15,1,1
8,33,2,1,14,8,8
2,34,7,8,2,20,7
16,4,6,25,0,2,2
7,2,1,9,13,1,1
2,9,2,1,38,1,1
1,11,0,1,5,1,3
9,2,8,1,1,12,13
4,23,1,14,1,3,1
12,22,11,2,18,2,2
9,24,18,2,45,1,1
8,8,2,1,7,1,6
7,1,0,2,2,11,18
2,1,11,22,3,4,3
4,22,6,18,11,1,0
3,15,0,2,20,1,1
14,3,6,1,4,22,0
5,4,2,1,0,10,1
22,1,3,11,2,2,1
17,5,2,4,25,1,2
7,12,2,0,7,0,10
3,4,4,1,0,6,8
1,4,1,5,2,15,9
27,1,1,18,6,3,2
34,14,1,6,37,1,0
2,12,3,2,24,0,1
3,2,1,2,2,5,2
37,2,1,2,0,22,17
15,1,2,17,10,14,7
3,0,6,4,38,2,2
1,1,13,0,5,1,0
4,7,2,4,1,11,1
1,8,2,15,0,15,13
36,2,4,9,28,2,7
5,9,12,2,14,2,1
3,12,4,1,2,1,2
2,2,2,2,0,8,1
3,2,0,11,1,7,11
21,0,2,15,31,3,5
10,3,6,3,15,3,2
8,10,4,1,3,1,0
1,2,2,1,1,0,1
3,0,2,8,13,1,9
10,2,2,13,31,17,4
1,13,1,2,4,3,2
1,10,1,1,0,1,0
7,2,2,1,2,4,1
13,1,1,4,14,7,5
6,1,2,20,15,6,10
1,10,2,5,3,2,2
10,2,6,1,1,2,0
13,3,1,0,2,4,1
3,0,2,2,16,17,10
14,3,1,9,15,2,4
2,10,2,6,1,2,1
2,6,10,1,0,2,0
17,0,3,0,18,0,1
13,2,0,2,51,14,10
1,3,1,18,6,2,23
2,8,3,3,2,1,3
2,5,4,2,2,0,1
17,1,2,0,6,1,1
8,1,2,2,20,9,17
5,2,1,29,7,4,16
1,1,4,13,1,1,3
0,10,23,1,2,0,1
18,3,19,3,13,4,0
9,2,2,2,20,11,11
2,0,1,10,3,9,1
3,8,1,2,0,1,1
5,3,13,1,0,1,0
7,1,2,1,13,0,1
11,2,0,10,27,19,18
3,2,1,14,3,32,3
3,4,7,2,0,4,2
4,11,12,0,12,0,2
9,1,2,1,23,11,2
19,0,0,20,7,8,9
4,0,18,7,1,5,4
3,2,18,2,1,1,2
5,8,2,0,0,2,1
20,4,2,1,8,1,1
24,2,1,6,14,10,12
3,2,0,18,2,2,5
7,1,4,3,0,0,2
15,4,15,0,18,1,1
15,5,2,1,8,0,1
13,2,2,19,1,11,6
3,0,0,9,2,4,13
2,1,1,3,1,3,3
22,7,2,2,11,0,2
28,13,0,1,16,2,1
1,2,1,10,3,12,11
4,2,1,14,0,14,2
8,1,4,0,7,1,2
19,1,6,1,35,0,0
1,13,1,6,13,9,5
10,17,1,2,0,7,6
0,3,0,0,0,1,2
2,2,1,1,15,2,1
25,10,9,2,21,0,3
4,3,13,4,5,0,1
2,2,1,14,1,8,4
7,2,0,8,1,14,11
7,0,3,2,20,3,2
14,7,1,2,26,3,1
1,9,1,1,3,10,1
1,3,1,23,0,2,2
0,2,0,15,1,6,10
4,1,0,2,27,2,1
11,19,9,1,19,2,2
3,28,11,2,1,1,1
0,5,1,16,1,10,2
0,0,2,8,7,5,15
12,3,0,1,45,1,7
14,6,4,0,11,0,2
1,8,2,4,3,2,2
1,2,2,18,0,9,3
2,2,1,6,17,7,7
15,1,1,1,51,2,1
2,1,1,0,6,1,1
2,4,11,2,3,0,1
2,2,2,16,2,6,1
6,1,0,4,17,6,8
7,1,0,2,21,1,5
9,1,0,2,2,1,1
2,11,11,1,2,2,1
0,4,4,10,1,2,4
1,2,2,33,14,17,13
5,1,1,3,9,6,8
15,4,1,3,2,1,1
3,14,7,10,2,1,0
0,5,3,20,16,4,2
1,1,1,2,24,16,6
2,1,2,0,2,12,1
14,4,2,3,2,2,1
2,14,1,16,1,0,2
2,3,10,8,10,18,10
1,2,3,1,19,27,12
4,2,1,0,4,3,6
10,8,0,0,0,1,0
2,7,4,14,3,11,2
0,6,4,11,31,31,0
0,0,7,1,20,3,16
4,1,2,2,2,1,13
11,10,1,17,1,1,3
1,5,2,23,2,9,2
1,10,12,3,25,15,0
1,6,3,1,9,6,10
3,1,0,8,1,0,2
10,7,0,6,1,0,2
1,19,3,7,4,2,2
1,17,10,4,35,3,6
1,1,2,2,19,3,14
1,2,1,0,2,0,2
14,2,0,3,0,2,1
0,9,18,15,7,5,1
1,3,36,6,18,15,2
1,1,3,1,3,4,15
3,1,3,2,2,2,4
2,3,4,3,0,2,2
1,10,6,29,26,1,2
1,3,11,10,38,12,3
4,0,2,1,4,6,13
6,0,1,1,2,2,3
15,1,2,14,0,1,2
5,15,4,12,21,1,2
1,5,4,2,17,10,1
2,1,2,0,2,10,11
1,0,3,2,2,1,3
6,1,1,16,1,1,2
5,2,10,10,10,4,1
2,6,36,1,1,2,8
1,4,5,1,1,4,30
0,0,1,7,10,2,21
4,0,1,26,18,2,1
11,9,7,3,19,0,0
0,14,12,1,2,13,3
1,2,2,2,0,19,9
0,2,1,25,0,2,2
14,1,3,36,20,2,1
14,10,1,8,18,0,3
3,15,2,3,3,19,0
0,2,1,1,0,13,11
2,1,2,1,10,3,5
18,3,0,11,38,2,1
5,17,1,10,11,10,1
2,5,9,14,2,11,2
1,3,7,13,0,1,4
13,0,2,16,18,1,1
20,7,0,3,6,1,1
3,17,2,2,2,10,3
2,2,2,1,0,13,2
0,1,11,5,5,4,12
1,0,1,15,23,1,9
8,0,2,4,11,1,3
5,2,18,0,1,0,1
2,8,8,1,0,5,1
0,2,2,10,4,3,11
2,1,2,16,36,1,11
13,1,1,2,25,1,2
5,8,6,2,1,12,2
2,17,13,2,1,4,0
1,2,4,16,4,2,18
1,1,2,13,40,0,7
6,0,7,3,12,1,2
5,9,2,1,1,5,1
2,25,12,2,1,3,0
0,8,1,17,17,0,9
0,1,1,5,12,1,5
8,0,2,1,2,2,3
13,6,16,0,0,8,0
1,10,22,11,6,9,0
0,1,2,40,26,1,14
1,1,2,10,6,1,11
2,1,2,2,2,1,1
10,14,13,2,0,2,1
2,18,12,15,8,10,2
1,2,2,28,28,8,7
1,1,3,2,11,3,4
7,1,2,1,1,2,2
14,9,8,1,2,4,0
2,12,12,21,6,18,1
1,1,1,9,26,7,5
2,2,0,2,4,1,9
7,1,1,0,1,2,3
7,13,8,2,2,5,1
1,5,17,18,4,17,2
0,2,2,5,38,2,2
1,0,1,1,15,2,9
5,5,1,0,2,1,1
13,18,2,1,2,2,0
2,6,15,29,14,13,2
0,0,2,10,16,5,3
0,1,2,1,1,1,9
2,0,10,8,2,0,1
7,2,13,31,3,0,0
2,24,4,10,28,12,1
0,3,0,1,12,4,13
1,2,4,1,2,0,19
3,4,7,0,1,1,4
6,15,6,8,3,1,2
3,9,2,14,48,14,1
1,3,1,1,14,8,1
0,1,0,2,2,1,8
2,9,2,1,5,2,19
9,22,9,7,22,12,2
8,5,18,2,16,14,1
2,3,4,2,1,1,2
1,1,2,1,1,1,16
2,2,2,1,4,1,4
6,9,9,2,25,1,3
9,7,9,19,11,7,0
3,1,1,14,2,2,1
0,0,2,1,0,0,11
1,1,1,1,1,3,6
1,6,2,10,24,2,2
12,10,0,7,12,0,1
6,1,13,2,2,10,1
0,1,11,2,1,2,0
0,1,3,1,21,0,22
0,10,8,8,19,1,5
13,20,15,14,2,7,1
6,1,5,2,1,6,1
2,2,2,1,4,2,15
0,1,1,0,29,0,5
1,8,9,13,14,2,3
9,9,6,14,1,7,1
13,2,2,2,0,9,1
3,1,1,1,3,4,9
0,1,1,1,6,2,7
1,2,19,3,5,0,3
13,14,23,14,0,2,1
6,2,4,11,2,11,1
2,1,2,2,17,5,2
0,0,2,2,32,1,3
1,2,2,11,9,2,2
9,38,1,3,1,5,1
17,15,1,2,1,16,9
3,1,0,0,9,2,9
2,2,2,10,28,3,17
1,12,8,20,5,3,3
7,8,9,2,3,13,1
5,1,2,0,1,15,2
3,1,1,1,6,5,3
0,1,0,16,39,0,4
2,12,7,14,22,2,3
2,6,7,2,3,16,1
2,2,11,3,0,14,2
2,3,2,4,17,1,0
0,8,1,2,18,1,1
4,19,5,20,1,1,1
3,4,3,13,0,13,1
8,1,2,1,21,9,2
3,0,3,0,57,2,1
2,2,1,1,10,1,3
2,9,0,5,2,1,7
3,12,1,8,0,11,2
10,1,6,3,12,3,1
4,2,3,13,26,2,1
1,1,1,10,2,1,2
0,1,1,5,1,0,7
2,2,8,2,2,4,4
5,5,10,2,28,3,2
8,1,1,2,22,2,2
1,1,1,13,2,1,1
1,2,6,1,0,0,3
1,12,10,1,3,6,1
6,2,6,5,32,10,1
11,2,1,6,14,2,7
3,1,1,16,2,0,1
1,2,1,4,1,0,5
0,21,15,1,24,10,8
4,5,18,0,28,5,2
3,2,4,2,3,2,0
2,2,2,30,1,2,2
0,6,2,10,1,1,6
1,17,7,1,27,1,22
6,2,10,0,28,15,5
9,0,2,10,4,12,0
3,1,1,16,1,2,0
2,1,2,2,5,0,2
0,10,11,1,32,17,10
0,3,21,1,7,1,2
8,3,3,18,3,2,2
5,1,2,6,1,0,0
1,9,3,2,5,3,9
1,16,12,2,34,9,29
2,2,1,2,12,7,6
2,2,2,8,0,2,3
13,2,2,10,3,2,0
2,2,5,1,15,2,1
2,12,3,1,20,11,3
3,7,7,2,1,2,3
6,3,2,14,0,0,2
10,1,0,20,2,1,0
1,2,1,4,31,0,2
1,15,1,1,17,6,9
1,4,10,11,2,9,10
2,2,2,18,0,3,2
4,2,2,2,27,1,1
1,1,2,2,38,0,2
2,11,10,10,6,2,16
1,3,8,19,1,9,11
0,1,2,4,1,4,1
12,1,0,2,13,0,1
4,1,1,0,16,0,1
1,11,12,0,2,19,24
1,2,9,12,1,16,15
2,1,1,8,1,1,2
9,2,2,1,26,1,1
5,5,1,0,10,1,1
2,17,6,5,1,4,2
1,3,12,10,0,10,1
3,2,1,5,14,5,2
11,1,2,0,32,1,0
6,2,0,2,4,2,7
1,12,30,0,1,0,10
2,3,29,18,1,7,2
2,2,2,6,13,6,0
7,0,1,1,23,0,2
3,1,1,2,2,1,4
1,7,5,12,0,2,15
2,1,5,19,1,16,2
1,0,2,5,22,5,1
1,2,1,2,19,0,0
13,2,1,0,3,1,1
3,18,6,2,2,2,9
1,13,10,10,6,12,5
1,2,2,7,28,31,2
6,0,2,1,9,4,2
21,1,2,1,2,1,0
3,16,3,0,1,2,5
1,3,25,18,2,19,14
3,0,18,8,22,5,2
2,2,1,1,14,3,1
12,3,5,2,1,1,1
2,10,12,1,2,1,12
1,2,2,1,14,10,6
1,0,3,7,31,2,2
4,2,1,5,5,0,3
8,4,1,2,1,2,1
2,14,6,6,1,5,4
1,2,10,19,25,20,9
3,0,1,4,4,6,3
0,2,2,1,2,0,2
9,1,1,1,2,2,3
5,13,13,6,0,0,16
1,6,11,15,18,7,11
2,1,3,4,31,7,0
3,0,2,2,3,3,1
16,0,3,1,2,2,0
8,15,6,15,2,1,5
3,15,4,20,35,3,3
2,1,3,13,10,4,1
0,2,1,2,2,2,1
14,4,0,0,1,1,1
6,5,2,3,17,1,4
3,1,2,18,35,7,7
2,1,1,4,4,7,2
7,0,0,0,0,1,1
12,1,0,2,1,1,2
7,13,4,8,31,1,13
1,3,11,10,10,1,19
2,0,1,1,1,0,2
1,1,0,0,2,5,2
12,1,9,0,8,2,1
14,10,21,1,41,2,2
1,4,26,2,15,8,3
1,1,3,16,2,17,3
0,3,2,1,1,3,1
14,3,0,1,19,1,0
4,16,10,7,27,1,1
1,4,5,16,1,1,12
1,3,2,3,1,4,3
0,1,2,0,2,15,1
13,2,1,0,27,3,2
5,8,2,1,34,1,9
2,10,11,13,4,1,23
1,1,5,9,2,7,6
2,2,2,2,0,10,1
14,4,0,1,17,1,1
6,21,7,8,16,1,5
2,6,9,9,1,1,22
1,2,2,3,2,15,7
4,0,2,0,15,6,2
13,2,0,1,17,1,2
3,8,5,4,2,1,1
3,4,6,23,2,0,11
0,1,3,3,1,19,4
0,2,1,1,19,5,2
11,1,1,6,26,2,2
3,5,10,1,2,2,8
1,10,13,15,1,2,22
2,2,4,14,2,6,5
5,0,1,2,25,7,1
10,2,0,0,22,2,1
1,4,6,10,4,1,1
0,6,9,6,2,1,11
0,2,2,0,5,5,4
2,1,2,1,18,11,1
13,0,1,2,3,4,1
6,4,2,14,2,2,1
2,16,2,19,1,0,15
0,1,13,4,14,0,11
1,1,2,1,28,0,1
7,5,1,1,5,2,1
3,14,1,11,1,0,2
2,13,11,7,2,2,11
0,3,2,2,28,10,3
3,0,2,1,13,3,1
13,0,1,3,1,0,1
6,6,1,13,1,4,1
2,12,11,13,3,6,4
0,2,6,2,29,2,1
1,1,1,0,7,0,1
5,2,2,2,1,2,2
12,15,4,19,1,1,11
2,7,37,2,3,4,14
1,3,29,2,24,2,2
2,1,3,10,11,5,1
7,2,2,5,2,7,0
11,10,5,9,2,5,1
2,6,9,10,16,1,7
0,2,3,1,31,0,3
1,2,0,1,6,4,2
7,1,1,2,3,16,1
10,15,1,14,2,4,1
2,21,6,2,7,1,13
1,1,5,1,29,1,9
1,2,2,1,7,10,2
21,6,2,9,3,12,1
30,9,2,21,7,1,2
5,5,7,5,25,2,4
1,2,8,0,16,1,2
2,1,3,2,1,9,1
14,0,3,2,1,12,0
4,8,2,14,2,1,5
2,12,5,1,17,0,15
1,3,18,1,18,1,9
0,1,4,0,1,11,2
7,1,1,3,2,8,0
6,5,0,8,14,3,2
2,8,2,1,20,0,3
0,1,0,1,1,1,7
2,0,2,2,2,5,1
6,10,14,3,1,10,1
10,13,23,2,22,2,1
3,2,14,6,7,2,5
1,1,3,2,2,1,14
1,1,1,2,1,6,2
5,0,1,2,11,9,0
11,14,0,2,41,12,1
1,26,7,1,11,6,2
1,4,6,1,2,1,12
1,2,1,0,2,1,3
6,2,2,2,5,15,3
9,13,1,5,22,7,2
4,5,3,14,12,1,8
2,0,8,2,1,2,19
1,0,2,1,1,9,2
1,1,1,3,26,10,2
5,13,2,5,41,2,1
2,7,2,16,4,2,4
0,1,17,6,0,1,23
2,0,7,0,2,8,3
3,1,1,0,25,14,1
11,18,0,4,7,3,1
2,5,4,5,1,1,0
2,2,8,0,1,25,24
0,0,5,0,2,6,14
4,1,2,7,27,2,1
10,7,1,12,17,0,1
4,17,6,7,2,2,0
1,2,33,6,0,0,8
1,2,21,2,11,3,3
1,16,1,1,35,9,2
12,15,2,0,7,4,1
11,2,2,10,1,2,7
1,3,12,4,3,0,18
2,2,6,1,20,2,4
3,3,0,0,25,10,1
5,12,1,0,3,2,1
1,3,0,16,2,3,1
2,2,6,13,1,1,8
1,2,8,0,9,3,3
4,5,1,1,20,20,2
9,14,1,8,3,3,0
7,1,9,9,2,1,0
1,40,17,4,4,2,8
2,88,5,2,28,5,15
1,91,3,5,4,8,1
3,60,1,18,2,4,1
8,18,1,24,1,1,1
1,9,3,5,27,2,1
1,20,9,2,30,3,0
1,22,3,2,3,14,0
3,4,1,1,0,3,1
17,1,4,2,2,1,2
6,9,18,6,16,3,10
2,25,12,1,39,2,15
1,3,1,1,3,1,2
4,2,0,8,1,4,2
12,0,3,10,1,1,0
3,3,3,2,23,1,8
1,15,11,2,24,2,13
0,10,3,2,2,12,1
10,2,2,2,1,10,0
20,1,0,17,2,1,2
2,1,9,9,23,2,6
1,15,8,2,16,3,11
0,3,1,2,0,20,2
5,1,1,4,1,1,2
5,0,2,17,14,0,1
1,3,5,5,11,4,6
1,11,13,2,2,9,4
2,5,2,2,0,5,1
6,2,0,11,2,2,1
12,2,2,23,24,1,5
3,2,7,11,26,1,5
0,12,4,1,3,8,13
0,3,2,0,2,3,3
1,1,2,2,1,1,1
13,0,1,10,3,1,0
2,3,6,3,17,1,3
1,18,12,1,2,2,4
2,9,4,1,0,16,2
1,2,1,11,1,5,1
11,1,2,29,27,2,2
4,4,2,4,28,2,4
0,22,9,2,3,1,9
0,3,6,2,1,3,4
1,2,0,1,5,6,1
4,2,1,6,37,7,0
1,0,2,16,13,2,3
1,11,0,1,6,2,8
0,20,9,0,10,2,16
3,2,1,15,2,9,2
15,2,0,9,4,18,2
8,4,7,2,3,2,0
1,13,4,2,1,2,1
1,3,8,1,1,3,7
0,1,2,14,8,2,1
10,2,1,20,24,1,2
14,5,0,2,10,2,2
1,11,1,0,2,0,7
2,1,9,3,7,0,14
1,1,4,12,4,1,3
8,1,0,2,4,21,0
5,3,0,2,4,12,2
1,22,2,0,2,1,12
1,4,0,6,2,0,11
2,1,5,23,2,1,1
12,0,5,10,20,11,1
14,6,3,2,4,3,0
1,6,1,1,3,2,16
2,1,5,13,14,7,29
0,0,15,6,12,24,4
10,2,1,2,4,3,2
4,6,1,1,2,1,2
1,26,1,2,1,1,8
0,6,4,6,0,1,9
2,2,11,11,34,8,2
4,2,3,2,41,11,1
3,1,1,2,6,1,1
1,21,0,1,10,1,4
2,8,11,12,27,14,2
1,2,17,6,21,15,2
6,1,2,1,2,3,0
10,2,1,1,1,2,2
0,12,0,2,1,4,11
1,6,9,1,21,8,13
2,3,11,10,11,14,2
5,3,4,2,3,3,1
16,1,2,3,1,3,1
3,11,7,2,11,1,2
2,5,1,10,29,7,13
0,0,0,8,5,13,2
5,1,2,1,1,2,3
7,2,1,2,0,1,0
1,3,0,0,10,12,4
0,13,4,4,60,20,7
2,5,3,11,26,3,3
1,2,1,2,1,0,2
10,1,2,2,0,1,2
1,10,6,0,25,1,2
2,5,2,8,16,8,16
1,2,12,14,2,5,8
0,2,3,0,11,6,1
12,0,1,2,15,1,1
1,20,1,1,4,2,1
1,9,1,9,17,5,8
2,1,1,4,1,10,2
6,2,5,1,25,3,2
8,0,4,2,74,0,1
2,49,1,2,9,8,3
1,60,3,6,2,18,11
0,28,2,15,0,2,2
0,15,7,3,2,1,1
10,19,5,0,60,1,1
3,9,2,1,15,1,1
2,1,0,6,2,1,9
0,5,0,20,13,20,12
2,1,11,11,2,7,0
16,10,4,1,32,3,1
6,12,1,1,45,2,2
1,2,2,0,2,5,10
0,2,1,11,1,16,5
4,19,8,2,28,4,0
11,26,10,2,8,2,1
3,5,0,2,3,3,2
2,1,2,15,20,7,2
1,1,16,15,29,11,2
0,10,18,3,34,1,1
12,13,2,0,3,2,5
4,1,1,1,1,3,3
2,1,0,3,24,1,5
1,1,6,18,24,4,11
2,2,5,5,58,3,3
15,9,2,0,3,3,1
9,4,1,3,1,1,1
1,1,2,3,54,6,12
1,0,18,15,16,10,1
1,12,5,3,18,3,2
7,11,1,1,1,6,1
2,1,1,6,15,1,2
0,0,3,7,36,2,9
1,1,16,15,16,9,10
1,5,13,4,10,7,0
10,12,2,1,2,5,0
8,2,0,1,67,5,1
3,2,0,3,8,24,6
0,2,11,8,2,4,10
1,8,16,1,7,2,0
11,3,2,2,10,4,1
5,2,2,1,38,1,0
2,1,8,1,15,2,1
0,4,2,11,8,6,3
1,2,2,3,10,17,1
2,12,4,2,3,4,0
7,2,6,2,20,1,3
2,0,0,3,6,0,11
1,1,4,19,2,8,13
2,3,12,17,5,7,1
3,13,4,1,14,2,1
10,3,1,9,4,1,1
1,0,4,17,1,3,6
1,0,2,2,1,6,14
0,5,8,1,14,5,2
3,7,24,0,15,15,1
10,1,13,2,20,3,2
0,0,2,21,1,1,4
1,1,0,15,1,6,4
1,1,43,1,14,2,2
0,16,112,1,38,8,0
10,2,6,7,3,24,5
2,1,3,24,2,3,13
2,1,45,6,12,0,15
0,4,6,1,24,3,2
2,10,5,0,12,17,1
13,7,18,2,2,4,0
2,3,65,1,4,2,2
0,2,18,1,35,2,7
1,2,4,2,19,8,1
0,20,44,1,10,29,1
2,5,3,0,11,2,1
0,2,2,19,15,0,11
1,1,23,4,25,1,20
3,1,29,1,3,14,2
1,11,7,1,0,66,1
4,2,11,6,0,9,1
2,1,69,19,50,21,2
0,0,7,3,16,21,6
3,9,3,1,1,4,2
0,14,1,1,0,14,0
8,5,0,2,12,40,1
10,0,25,15,19,70,1
1,2,21,12,1,26,15
0,1,10,1,2,2,3
0,17,2,1,13,54,0
7,3,36,2,26,15,1
12,1,22,10,6,14,6
2,5,1,11,2,52,15
1,1,2,0,5,5,4
0,3,28,1,1,53,1
5,9,49,3,10,15,2
13,1,11,49,6,3,1
2,0,8,12,2,14,0
2,0,46,2,5,19,7
1,11,19,1,6,6,6
6,12,53,19,8,11,1
8,1,26,19,18,7,0
2,1,5,2,2,53,7
2,3,21,1,3,51,2
0,16,4,4,12,28,2
1,4,2,2,25,13,2
16,2,84,10,8,1,2
1,2,41,0,0,0,8
0,9,16,2,1,47,9
1,30,6,1,41,91,2
5,14,34,7,11,22,2
16,2,7,38,2,1,3
3,2,24,9,1,21,4
2,10,76,1,1,106,14
0,16,6,2,40,19,1
2,2,15,27,33,2,1
15,1,49,12,3,162,2
4,1,4,2,2,107,2
0,2,0,1,3,6,11
1,1,54,2,25,81,1
3,2,27,28,20,5,1
15,2,2,43,3,32,1
2,0,1,6,1,36,6
2,1,0,2,27,152,13
2,15,0,5,40,5,1
4,17,114,6,6,1,1
12,29,24,93,2,50,1
2,4,4,11,10,7,4
3,0,3,31,20,26,16
1,2,1,5,2,92,2
2,3,16,3,0,10,0
6,1,38,37,1,21,1
5,3,143,3,20,23,2
1,10,84,23,20,32,3
1,27,12,105,5,20,4
0,22,16,17,2,71,0
3,48,2,3,0,129,1
8,3,103,26,12,47,0
2,1,91,89,8,37,10
2,2,32,11,10,19,9
2,5,14,80,2,42,3
5,0,3,8,5,29,1
11,87,4,49,43,5,5
1,39,34,45,5,2,5
2,4,32,4,1,60,5
2,2,212,79,0,43,3
4,2,22,70,9,6,0
6,1,27,48,35,3,1
3,17,14,6,14,1,12
3,34,14,132,2,115,14
2,4,58,42,4,34,2
9,1,42,4,20,92,1
14,15,48,55,22,26,3
3,17,46,27,5,2,11
2,56,49,49,1,55,4
0,50,18,180,2,40,1
4,6,7,9,9,21,2
5,1,82,109,15,7,5
2,55,67,213,10,45,13
2,17,5,16,2,9,9
1,5,56,0,9,4,2
0,100,69,11,28,11,2
8,5,17,16,12,10,2
4,2,11,292,0,5,14
1,6,33,21,1,58,9
0,146,72,1,3,8,2
1,33,7,302,47,29,1
15,4,133,51,17,9,0
13,39,5,3,1,55,7
2,4,78,138,0,9,5
1,1,17,80,1,2,3
2,125,1,78,15,4,1
5,25,89,32,3,1,5
8,1,29,8,2,10,7
2,27,35,2,10,19,9
2,30,9,221,23,12,1
2,95,28,42,20,35,1
6,22,6,4,1,44,2
13,10,9,58,0,3,11
2,38,1,152,11,2,12
2,17,41,24,4,80,3
1,3,23,1,8,15,1
8,40,3,137,2,23,0
10,35,11,20,2,6,4
2,3,87,81,6,7,9
0,23,7,21,28,97,1
1,131,41,90,12,14,2
10,13,26,39,2,51,2
8,12,6,64,1,41,19
2,1,16,35,17,51,23
1,18,56,6,16,19,5
0,12,6,22,2,36,3
1,49,16,218,1,4,0
7,75,57,59,1,44,3
4,6,24,11,42,24,21
0,1,23,82,18,75,3
0,35,34,9,2,6,2
3,19,28,72,1,2,1
11,15,4,141,1,6,3
2,20,1,134,24,34,11
2,15,112,66,8,3,2
1,64,57,97,1,7,1
4,5,54,31,2,7,1
13,46,10,19,1,5,9
2,12,4,40,34,17,20
0,26,8,58,43,4,4
1,6,3,24,3,2,1
3,11,73,67,2,39,2
20,6,69,25,17,59,3
7,1,35,26,21,6,13
2,15,36,22,2,8,2
2,5,19,6,0,23,1
7,17,19,42,1,1,1
20,88,21,16,4,47,3
2,7,18,90,8,19,11
2,121,48,7,9,41,0
0,7,22,173,18,15,1
8,24,15,61,5,10,0
14,56,6,138,6,8,2
1,5,30,95,24,32,22
0,31,24,41,4,7,5
0,30,23,103,2,12,3
3,18,41,46,1,3,1
19,5,6,42,21,1,1
6,3,11,5,16,1,6
3,6,10,39,2,24,4
2,13,38,81,0,18,1
1,22,3,24,1,16,3
11,3,9,9,9,4,1
2,24,5,5,26,38,10
0,55,57,50,5,15,3
1,6,27,97,3,12,1
1,1,18,48,11,5,0
12,2,18,24,30,1,1
3,18,55,153,5,22,13
2,53,11,119,3,22,6
1,7,4,29,2,30,2
2,2,87,35,14,29,2
15,2,6,117,12,14,0
2,47,8,15,2,4,11
0,38,22,19,0,39,7
1,3,14,82,1,13,1
2,13,88,59,6,3,2
10,12,16,65,17,20,0
3,31,3,66,3,15,3
2,3,2,49,2,4,10
0,33,41,100,3,22,1
17,4,8,11,24,2,2
20,5,13,8,14,12,1
3,35,19,170,1,10,12
1,8,24,13,2,19,5
1,2,14,37,0,6,2
7,1,7,113,17,17,1
13,11,67,9,11,0,1
2,36,25,56,2,23,4
0,9,3,85,1,1,7
1,3,25,48,1,22,1
4,4,8,90,36,8,1
11,36,2,72,9,2,1
3,8,27,4,3,23,5
0,9,62,175,1,16,12
2,8,12,9,27,13,1
12,19,13,49,13,3,1
2,2,44,5,2,9,0
2,6,8,101,1,1,8
1,3,4,31,17,20,24
16,16,2,3,9,4,4
19,12,25,68,12,31,0
4,1,6,58,5,8,0
2,15,5,8,2,1,1
2,8,79,34,1,10,9
2,5,34,130,42,18,1
8,23,6,12,12,18,1
15,2,6,76,2,3,1
1,1,7,126,1,2,0
1,0,33,7,19,13,12
1,27,52,1,26,24,5
2,29,5,105,7,4,2
9,4,42,14,1,2,0
9,1,14,27,2,4,1
4,2,80,63,18,30,9
2,10,8,11,12,8,4
1,37,43,52,1,9,2
34,2,15,54,1,4,1
8,30,3,21,0,1,1
0,10,8,10,8,32,7
1,20,34,92,21,30,5
3,3,41,10,2,2,2
61,1,4,58,1,3,2
35,20,2,33,4,3,5
4,24,10,104,29,9,12
0,11,75,8,3,42,5
67,2,14,13,1,11,1
14,21,13,21,2,6,2
1,51,112,90,3,8,2
53,15,59,9,32,3,2
27,2,6,103,13,8,10
58,2,3,169,1,9,3
5,14,40,5,0,9,0
1,75,18,78,5,15,1
10,15,27,66,26,18,2
109,1,54,87,9,16,1
83,17,16,58,2,2,1
4,5,1,5,0,11,2
0,30,0,13,2,23,2
64,4,108,72,9,2,1
104,0,19,49,19,5,1
7,18,26,12,2,12,3
10,12,7,38,2,4,3
4,12,18,36,8,42,0
68,2,2,12,34,19,0
52,21,18,91,4,2,2
81,34,147,20,0,4,4
16,3,12,4,1,41,1
1,2,4,26,13,3,1
1,0,34,84,29,20,2
44,0,5,40,4,6,6
60,15,3,5,1,7,13
106,43,31,44,4,3,2
3,5,41,30,3,22,2
0,13,5,51,16,4,1
45,3,12,24,6,5,6
205,19,16,24,1,2,16
47,7,54,159,2,3,2
6,1,32,21,26,46,1
67,2,3,115,28,13,0
82,55,36,14,3,2,9
10,10,19,54,2,4,20
1,1,32,20,3,36,3
20,1,2,180,28,6,1
176,15,2,7,11,7,1
41,56,5,2,1,4,6
2,4,12,63,1,20,11
1,2,11,30,16,6,3
24,0,1,65,44,4,1
128,4,2,65,6,16,1
74,47,13,38,1,6,0
16,27,2,3,2,2,7
66,1,65,57,8,10,3
9,5,6,126,26,10,1
55,15,1,7,10,11,8
4,84,4,25,1,2,15
3,16,11,99,3,45,12
103,3,1,14,24,12,3
13,0,5,116,10,2,1
7,15,5,85,1,1,1
3,21,4,34,2,1,1
49,2,43,8,3,22,7
12,3,8,77,18,17,3
25,33,7,22,19,6,2
10,33,4,47,1,25,2
1,4,9,72,1,51,14
22,1,42,94,20,4,15
3,1,7,7,27,1,3
46,11,1,80,3,0,1
5,48,56,74,1,20,1
21,30,33,21,4,17,3
64,15,5,17,19,2,19
5,2,2,61,3,3,1
4,2,20,37,2,2,2
4,42,15,8,2,10,2
84,9,8,3,7,24,8
22,10,18,13,26,3,5
20,1,1,9,10,31,0
9,55,2,179,2,6,1
2,7,59,35,0,2,2
0,2,31,10,13,37,11
34,2,15,33,21,3,19
14,14,4,54,3,2,1
69,5,9,22,1,20,2
16,16,18,1,1,11,2
19,1,33,9,4,4,10
52,19,25,68,29,1,13
16,89,4,38,9,8,3
8,6,1,19,1,19,0
46,3,89,29,1,17,1
7,1,9,43,16,5,4
87,9,4,89,20,14,13
22,4,19,46,2,11,1
17,26,23,8,0,15,1
1,3,28,83,3,11,0
2,7,2,22,31,3,6
34,28,103,29,10,0,7
45,29,6,1,1,3,2
9,3,11,1,2,17,2
41,0,3,47,13,8,2
3,14,4,9,7,9,3
1,17,3,2,3,2,9
24,68,14,0,1,2,3
29,22,3,47,1,8,0
28,2,2,35,14,24,2
6,0,1,50,38,3,1
5,22,67,294,9,5,5
24,3,29,17,0,22,5
34,3,4,158,1,7,2
7,21,56,20,7,2,1
2,47,15,14,20,21,12
4,7,15,17,11,29,25
54,2,8,55,2,3,5
8,1,2,10,4,16,1
46,6,8,25,29,1,1
31,23,3,46,13,15,1
7,38,2,18,3,5,17
25,3,2,2,0,21,10
11,1,3,54,3,18,0
66,18,21,28,13,3,1
13,34,42,23,8,6,1
3,20,46,17,1,9,4
20,3,7,49,0,15,4
10,24,30,33,13,3,1
1,22,9,67,19,1,0
11,0,17,33,2,34,2
5,2,3,133,0,7,10
30,2,6,71,0,4,5
5,92,1,33,15,1,2
19,9,4,7,33,13,1
30,7,12,17,4,8,0
3,21,2,62,1,20,6
14,5,1,95,2,6,7
11,24,18,64,47,1,2
33,22,6,46,27,1,1
3,2,11,5,2,11,0
8,2,7,13,2,11,7
19,0,2,86,9,16,7
29,27,1,19,49,3,2
13,8,15,87,19,4,0
34,2,12,9,1,15,1
3,4,2,2,1,4,4
1,1,0,123,9,1,18
13,31,10,26,43,12,4
27,8,70,47,7,3,0
7,2,16,3,1,19,0
23,0,2,136,1,15,8
4,12,1,7,59,4,16
20,38,21,135,40,2,2
4,12,2,8,2,6,0
4,2,27,52,0,11,0
52,1,3,25,2,3,6
7,37,17,66,26,1,12
2,23,8,32,15,2,2
4,2,7,79,3,1,1
69,1,1,15,2,13,1
13,26,37,25,1,27,4
1,17,12,95,24,4,10
17,3,22,36,11,31,4
7,2,2,40,1,4,1
9,22,10,17,1,14,2
2,9,7,29,6,8,4
1,35,22,48,39,5,14
58,4,11,13,27,1,3
6,1,10,70,2,26,1
3,35,6,96,6,6,1
31,5,29,7,13,3,4
6,13,25,10,20,2,10
5,4,5,65,3,12,1
1,2,3,113,0,36,0
41,1,21,26,5,26,1
4,20,28,5,27,11,2
21,17,2,69,12,19,6
15,1,1,50,2,41,4
19,8,32,12,0,7,2
22,0,87,7,9,11,2
3,12,12,92,51,27,1
33,52,2,85,25,10,7
30,17,6,7,1,18,7
3,3,1,64,2,4,1
2,10,51,10,6,1,2
21,11,37,22,30,15,1
3,15,6,29,6,25,4
5,17,1,55,2,4,9
16,5,1,16,0,16,2
15,52,62,36,20,3,2
1,7,16,15,20,17,1
38,1,8,104,1,9,8
11,1,2,7,2,2,10
6,32,1,83,15,2,2
11,13,7,79,45,36,1
27,3,4,7,10,13,1
2,14,11,33,2,5,1
18,65,37,96,1,3,14
3,13,5,6,18,1,1
1,1,7,3,23,45,0
1,2,17,43,1,8,1
44,1,1,17,0,9,2
20,50,20,49,2,8,8
19,26,37,22,33,1,11
2,2,4,7,26,1,2
6,1,2,69,3,35,3
19,17,30,49,1,38,6
41,28,23,14,11,4,5
16,30,26,15,34,12,2
3,2,6,83,4,1,3
29,0,24,8,0,11,1
57,33,2,6,1,13,0
4,34,30,36,3,11,6
9,4,5,35,25,10,4
21,0,2,25,6,8,1
24,35,3,19,1,2,2
20,12,8,19,2,3,1
2,1,29,6,16,7,6
62,0,35,46,19,15,16
39,0,2,60,11,12,3
4,34,4,5,0,7,1
9,12,8,71,3,2,2
28,2,7,22,20,10,4
17,2,2,19,2,22,8
2,15,3,8,2,3,2
1,84,47,6,1,0,1
3,6,9,10,20,8,2
1,11,2,20,32,6,2
4,21,7,85,6,5,12
38,3,2,8,2,8,4
12,54,2,57,1,24,1
20,5,1,20,19,4,1
11,3,0,136,37,8,1
9,3,30,7,4,13,8
2,17,21,51,2,5,9
22,16,7,21,8,2,3
31,8,12,100,31,1,1
17,1,8,5,25,23,2
2,4,4,3,2,10,10
26,26,1,17,0,1,5
6,28,9,14,9,16,2
1,1,1,25,30,36,1
14,1,14,7,9,4,5
7,26,6,80,1,21,17
4,70,3,36,0,6,2
19,9,29,15,6,10,1
27,2,19,82,40,5,1
8,1,1,12,21,4,2
2,39,1,97,1,1,6
30,18,1,20,1,1,9
2,19,9,10,28,15,2
14,13,27,95,41,18,1
22,3,5,13,3,10,1
8,32,5,15,1,2,1
2,14,1,11,2,2,8
24,46,1,24,50,3,2
19,4,7,3,37,11,2
7,2,6,100,4,3,1
1,22,6,28,2,12,1
36,2,14,18,12,2,7
5,1,6,52,21,31,4
25,3,6,95,4,10,1
4,48,12,7,1,45,0
39,14,1,40,0,4,2
11,2,0,28,15,12,8
2,8,66,57,24,5,9
9,11,47,55,3,11,2
17,28,7,3,2,1,1
6,2,2,15,3,4,2
28,2,1,51,40,16,3
10,0,4,6,40,10,10
5,17,32,92,3,6,2
5,12,18,32,1,14,0
8,3,8,14,1,1,2
11,7,2,104,18,35,5
21,1,8,52,12,25,15
29,11,3,80,2,3,2
2,5,3,67,0,8,2
23,1,10,40,4,18,0
15,1,4,4,34,26,1
5,41,1,14,5,2,9
9,34,0,80,0,4,4
3,3,24,29,1,7,2
8,13,6,12,24,6,1
21,12,6,5,59,23,0
2,3,4,25,14,5,7
15,13,9,133,1,3,5
39,2,13,4,3,10,2
7,2,1,97,27,7,1
2,16,6,25,4,13,7
3,6,23,98,2,6,9
22,1,4,17,0,1,11
28,18,1,67,11,1,1
5,6,3,8,25,19,2
1,4,18,52,3,14,1
4,18,20,111,2,6,2
3,17,4,6,2,3,5
26,8,37,4,4,3,2
32,7,5,119,21,20,1
5,6,19,15,3,12,0
12,3,13,22,2,1,7
7,18,3,99,1,3,13
56,3,1,36,28,5,3
9,6,1,9,8,36,2
2,20,4,4,4,9,2
12,17,6,12,2,6,5
19,2,5,58,1,1,12
21,2,2,125,8,15,2
2,33,0,5,44,6,1
1,22,3,8,10,3,0
20,3,3,105,2,2,1
26,1,0,25,2,11,12
2,4,53,13,37,14,2
5,35,30,19,24,13,1
35,14,47,42,1,5,0
15,1,10,15,2,2,6
12,1,10,3,5,14,11
10,19,2,2,35,23,2
12,32,2,6,18,3,2
2,4,5,103,1,7,1
22,0,14,18,2,5,2
6,3,1,25,2,4,1
10,38,1,6,12,5,2
4,34,2,48,7,11,2
4,10,11,43,1,2,1
23,2,8,4,2,17,2
3,23,2,65,35,20,9
1,37,0,96,24,6,8
3,11,1,23,6,1,1
14,11,9,57,1,5,1
17,20,24,24,2,26,2
3,52,3,12,35,18,0
1,5,31,7,7,8,5
28,0,26,21,2,0,2
36,24,5,36,2,6,1
9,20,2,1,4,5,1
2,6,18,36,37,10,12
16,2,3,27,26,5,12
56,0,5,12,2,4,2
6,6,49,74,1,3,1
12,38,4,44,1,1,0
8,30,2,14,2,9,8
21,2,13,1,6,10,11
7,2,43,15,12,4,2
5,12,7,31,1,2,2
1,2,1,23,15,9,3
14,24,0,2,42,15,3
2,4,1,29,10,38,8
3,2,8,19,2,18,1
32,2,22,81,3,1,0
5,12,9,39,16,12,2
12,15,4,3,16,22,0
3,3,3,30,4,2,16
6,0,10,18,1,28,5
18,9,2,45,14,9,1
5,48,1,16,38,6,0
1,25,2,31,13,10,1
2,3,9,12,2,2,5
26,16,51,10,2,8,4
7,4,12,11,27,2,1
9,2,19,40,13,7,1
2,8,2,7,2,3,1
12,4,6,16,1,20,9
13,4,38,17,12,2,17
13,19,18,9,12,13,2
13,16,9,29,3,5,1
1,3,3,102,0,23,5
62,7,12,5,3,7,20
8,3,13,105,12,5,5
12,6,63,74,16,17,0
4,1,4,45,9,5,0
13,4,19,19,1,1,4
9,3,10,4,0,13,8
2,27,3,17,16,18,8
10,21,4,51,13,25,3
11,4,68,5,0,3,1
6,0,10,3,0,0,0
2,23,62,18,4,2,9
1,2,6,27,25,16,18
33,5,12,6,18,48,2
13,7,14,75,2,10,1
23,2,10,14,2,1,1
2,1,16,38,11,5,4
10,6,7,34,12,7,6
7,40,3,5,3,1,2
28,5,69,51,0,1,1
14,2,59,6,0,7,8
4,57,5,29,21,3,19
4,17,0,68,32,11,20
12,0,2,8,3,12,4
8,0,11,13,3,3,2
1,0,42,78,0,1,2
17,1,4,10,13,6,5
18,23,49,13,37,18,15
2,32,53,81,6,4,3
13,8,15,7,0,1,1
1,4,2,2,24,26,0
2,2,22,28,34,10,0
15,34,54,19,5,16,7
18,13,7,54,1,3,3
4,2,1,119,2,1,3
41,13,17,5,17,5,4
4,11,2,17,24,12,7
59,16,26,36,2,22,8
5,4,26,16,0,4,3
5,0,4,10,12,1,2
0,0,53,15,32,1,1
29,17,15,123,11,23,0
7,13,1,6,2,6,5
2,54,7,42,1,4,8
13,9,63,2,26,29,1
21,2,31,80,17,16,2
2,35,9,5,1,41,0
22,18,2,21,0,25,1
6,2,28,13,1,2,10
8,0,16,29,23,23,1
4,16,1,46,13,5,2
6,12,67,7,1,56,1
9,76,15,45,1,5,0
1,19,7,7,27,12,5
2,2,10,22,18,17,0
17,2,13,11,3,14,0
10,4,19,28,1,2,2
11,11,1,22,2,1,10
12,3,34,39,29,7,7
4,18,37,16,19,16,0
6,5,7,33,1,5,1
29,4,1,59,1,3,3
1,4,24,9,2,5,6
2,39,14,10,31,10,11
15,3,38,0,7,6,7
11,1,5,10,2,12,1
3,24,1,9,1,8,0
1,7,1,17,7,13,2
22,16,15,37,50,6,10
25,11,27,5,11,11,5
9,2,25,15,1,21,2
2,0,12,21,3,14,1
2,1,6,36,3,3,1
1,2,51,15,12,2,9
6,2,4,18,12,4,13
6,9,8,47,2,9,1
8,21,1,24,0,36,0
3,34,10,2,22,5,2
4,5,2,4,15,8,6
10,0,4,34,1,18,6
27,0,18,3,1,20,1
5,2,29,3,2,13,0
3,7,22,1,36,15,1
2,24,3,2,6,14,2
4,15,9,45,2,2,13
24,2,6,9,1,7,3
4,13,22,3,4,10,2
15,6,28,1,27,11,2
76,63,2,2,12,11,0
7,54,5,19,1,7,4
2,3,3,6,1,6,1
5,19,0,16,1,21,0
13,38,5,30,23,4,2
20,38,4,2,11,8,9
15,3,14,34,2,4,18
1,5,3,21,1,1,3
2,20,24,3,22,29,3
1,28,4,0,10,1,1
6,12,2,7,2,24,1
28,20,0,14,2,9,15
8,21,2,5,6,1,3
1,1,33,1,38,9,2
1,5,15,1,16,7,1
61,3,2,3,3,6,0
37,3,2,9,1,9,5
14,39,4,12,0,13,2
3,12,10,1,17,4,0
4,3,3,3,19,0,0
29,1,0,6,2,1,2
9,1,12,17,1,1,9
4,31,23,2,36,5,7
7,20,8,2,30,22,1
1,4,2,1,3,20,0
12,3,2,1,2,5,1
5,1,0,30,1,20,5
0,21,2,7,8,2,16
5,33,5,1,15,38,6
14,2,3,1,1,13,1
16,8,1,4,1,1,1
2,38,0,8,3,10,1
1,44,3,3,51,6,1
3,4,8,2,13,6,1
11,2,5,1,1,29,0
12,11,1,2,1,3,2
9,15,0,29,4,2,1
23,10,11,3,30,12,13
2,1,19,1,19,9,3
27,23,1,2,3,10,1
18,5,2,4,2,1,2
3,5,5,16,9,2,0
1,4,6,2,24,8,2
5,5,15,1,12,3,0
13,14,5,2,2,1,1
11,10,1,1,1,12,2
11,30,0,20,14,11,5
3,10,3,3,16,1,16
36,2,37,1,3,2,4
21,0,16,1,2,2,2
7,43,3,2,3,17,1
0,8,3,3,22,9,2
14,1,32,9,16,12,2
4,4,106,2,2,1,1
8,17,6,4,1,1,0
4,3,9,9,9,6,9
2,20,43,21,10,11,13
2,15,7,3,6,6,12
23,3,1,1,2,3,2
11,2,1,1,1,14,0
4,2,79,2,4,3,1
3,8,74,23,44,14,0
1,16,27,9,7,4,4
48,2,3,1,2,3,10
14,18,2,1,0,21,4
3,28,68,3,10,2,1
11,2,10,14,29,2,2
15,8,30,4,5,1,6
6,2,55,1,1,1,9
1,5,7,0,1,1,2
4,11,3,1,6,3,2
4,4,44,16,27,7,0
17,10,7,10,6,7,3
10,1,21,1,1,1,10
2,5,16,0,2,7,2
36,22,4,5,14,10,2
4,1,11,14,44,9,0
11,3,1,5,4,7,0
6,18,4,1,2,2,0
3,6,1,4,3,2,4
7,2,6,6,30,10,1
12,1,15,8,6,9,3
3,2,18,14,2,6,2
10,7,1,2,1,2,6
26,4,1,6,15,19,3
8,7,19,7,42,5,1
25,3,20,16,3,8,1
3,2,48,19,1,25,2
2,0,3,4,1,3,8
20,10,3,10,4,1,4
3,8,15,24,22,8,2
6,1,5,8,9,20,1
2,0,23,1,2,6,4
9,1,2,0,0,2,16
2,15,1,0,24,19,9
12,18,33,13,10,18,2
13,2,5,31,1,9,2
1,1,2,3,1,5,1
7,0,1,1,0,1,3
10,17,19,3,11,8,2
24,10,48,15,37,62,1
4,3,8,7,6,14,0
0,0,3,2,3,1,1
0,0,4,1,0,5,16
3,3,1,12,67,38,27
23,7,23,30,29,14,4
10,1,7,4,3,18,2
4,1,1,1,2,3,1
5,4,6,1,4,57,2
5,21,28,2,33,7,7
4,3,8,18,7,2,3
70,2,2,11,1,1,0
13,7,5,1,1,2,1
3,1,5,0,35,2,5
32,6,25,18,25,36,9
17,30,3,9,1,16,1
3,4,0,1,4,4,2
8,2,10,2,2,21,1
5,28,6,11,68,9,3
16,9,2,20,59,15,12
24,18,0,6,5,2,3
1,2,2,1,6,0,1
4,1,25,3,0,10,1
15,30,10,1,43,6,1
22,3,2,11,60,33,6
6,2,6,4,16,4,15
3,40,44,1,2,2,2
1,7,7,1,3,25,0
6,2,4,2,45,2,1
10,36,2,7,3,6,9
14,9,3,6,1,1,7
14,1,3,1,0,1,1
57,15,3,1,22,8,0
5,70,21,5,38,5,1
0,57,2,18,3,14,1
2,7,4,5,0,9,3
12,2,1,2,0,1,4
10,0,20,1,21,2,1
18,6,18,9,3,4,1
4,13,6,42,1,12,0
3,10,2,18,1,6,9
1,1,0,2,1,1,3
8,43,7,3,11,3,0
15,50,10,1,25,12,1
6,7,1,24,4,10,3
2,1,2,14,3,1,4
1,2,8,1,2,1,3
25,29,8,1,41,5,1
3,19,7,10,18,16,0
4,2,6,12,3,17,1
0,46,1,1,2,3,5
21,8,0,0,1,1,5
4,1,6,1,27,6,3
13,34,5,18,3,4,1
1,17,1,19,1,16,2
2,20,9,2,1,1,0
12,4,6,2,3,1,7
9,34,1,1,6,1,2
5,3,7,5,2,2,2
7,22,8,10,0,12,2
2,14,2,1,2,2,8
22,14,2,2,1,2,10
15,2,0,8,35,4,2
1,0,11,19,6,10,1
7,4,7,3,2,8,2
3,3,1,2,1,2,3
17,17,2,2,11,7,5
17,2,0,3,21,4,4
7,0,1,19,8,3,1
5,1,2,3,2,13,2
1,23,6,0,2,2,0
16,2,21,1,1,2,4
12,1,6,10,48,2,20
2,29,6,26,9,21,5
2,14,5,8,3,10,1
7,6,1,2,1,1,0
26,1,2,1,28,2,3
9,0,2,8,13,11,9
4,14,13,19,3,22,3
8,20,7,3,1,3,0
6,4,1,1,1,1,2
6,2,2,3,23,1,13
9,5,5,17,5,21,19
2,1,22,21,2,8,2
2,3,18,2,4,2,0
1,13,3,2,4,2,2
17,1,0,1,21,1,1
27,1,3,4,19,7,9
5,0,5,11,2,8,2
5,22,12,1,0,1,0
1,24,2,2,6,1,0
25,3,0,1,49,0,1
22,0,2,12,8,3,4
3,4,9,17,2,20,1
13,14,8,3,3,10,2
22,3,1,1,0,3,5
5,0,0,10,20,1,18
0,1,1,27,13,14,14
7,0,15,2,2,14,2
6,9,30,0,4,1,0
24,14,1,1,24,1,1
16,2,2,7,32,1,1
2,2,13,6,5,12,7
0,4,16,4,13,4,2
1,4,4,0,10,5,0
22,46,1,3,2,1,0
5,7,2,11,7,8,13
2,22,2,19,1,2,33
1,12,9,6,1,2,5
5,48,3,2,3,4,1
8,4,2,1,22,2,0
2,4,1,2,4,2,1
0,61,0,15,1,3,5
2,10,5,2,1,13,3
11,67,10,0,14,3,1
70,32,1,6,21,2,1
10,12,3,28,5,1,2
10,27,10,21,0,7,3
13,2,14,3,0,9,4
7,1,2,0,5,3,2
5,1,1,2,9,2,2
2,7,1,2,5,1,1
0,21,6,20,2,3,0
5,7,10,3,0,8,12
9,2,3,0,6,2,2
4,3,1,0,26,1,2
1,1,1,13,9,4,0
11,6,3,17,2,2,1
16,15,7,3,1,19,1
1,6,1,2,5,2,6
10,2,1,8,24,1,6
5,0,14,19,9,2,0
1,6,6,6,3,8,1
16,4,8,1,0,15,6
9,7,8,2,6,3,1
5,2,2,3,30,1,0
2,1,2,14,6,0,1
2,2,1,6,0,1,1
3,17,5,2,0,8,0
3,3,8,0,8,4,14
3,2,1,4,37,1,10
4,15,1,15,9,4,2
46,2,0,6,2,2,2
9,20,8,5,2,6,8
3,1,16,1,18,33,4
6,1,6,2,32,5,2
5,4,1,14,5,3,1
1,33,10,5,2,2,0
1,9,3,2,1,3,6
23,2,12,2,8,6,18
4,0,6,1,20,1,3
2,2,1,17,6,1,0
2,8,1,1,0,2,2
5,8,8,1,2,0,5
37,1,12,8,5,13,15
18,0,1,3,30,5,5
1,2,1,9,9,2,2
6,11,4,13,3,1,2
25,12,12,2,1,2,3
21,4,7,1,8,10,2
4,1,0,1,27,2,0
2,2,1,13,6,2,2
2,14,5,10,0,2,2
15,3,8,2,1,4,3
15,1,7,1,20,9,18
3,1,1,7,40,3,3
2,0,1,19,4,0,2
23,3,1,2,1,0,1
16,12,0,2,3,2,3
3,4,9,2,17,10,12
0,0,3,13,11,9,3
2,0,1,40,2,2,1
22,5,2,6,1,2,1
26,28,0,1,20,5,5
12,8,25,3,20,8,10
2,2,33,10,3,3,1
6,0,5,8,0,1,2
31,5,1,2,3,7,4
21,8,4,0,19,3,1
4,2,11,2,21,2,10
18,2,1,14,3,2,4
2,0,0,11,0,2,2
1,12,0,0,1,0,1
14,25,4,2,13,2,2
3,2,9,9,16,14,10
2,2,2,22,2,11,2
18,1,0,11,1,2,0
3,14,1,1,14,2,0
1,19,2,1,35,1,7
4,3,3,10,6,14,10
4,2,4,13,2,5,2
7,2,1,6,0,1,0
43,13,3,1,11,0,1
5,5,10,1,22,1,0
1,3,24,6,3,8,10
12,1,4,13,1,13,2
4,3,1,2,0,5,2
13,10,2,1,33,2,0
2,4,0,8,29,2,1
2,1,5,17,3,1,7
20,0,2,11,1,2,5
4,1,2,0,2,5,2
29,4,0,2,22,3,1
2,18,23,4,12,3,3
1,2,37,14,1,6,15
3,2,6,3,1,26,8
25,1,3,2,1,9,2
18,9,1,1,25,1,1
0,8,1,6,25,4,2
4,1,8,8,3,2,5
10,2,11,10,2,4,6
17,1,2,1,15,8,2
3,1,1,0,11,2,2
22,9,6,49,2,0,1
2,2,21,66,1,0,17
2,0,5,8,10,4,16
22,0,2,1,39,5,2
1,15,0,2,6,2,2
7,27,10,23,2,0,0
13,4,16,17,0,2,1
24,1,2,9,1,19,12
2,0,2,1,19,17,3
2,13,1,1,9,1,1
2,10,14,18,2,0,1
4,1,17,14,1,0,7
16,2,1,6,6,2,13
3,2,2,2,27,6,2
2,15,1,2,10,6,1
2,5,12,1,2,2,2
12,0,10,26,1,3,11
5,2,0,5,8,11,4
4,5,2,2,20,11,1
14,8,1,0,3,2,1
2,4,20,7,1,5,2
7,0,15,4,2,2,14
12,1,3,1,10,0,12
1,0,1,2,19,7,2
0,4,8,0,3,6,1
3,11,4,5,2,0,0
23,3,2,18,1,1,5
9,1,1,6,34,1,2
1,0,1,1,17,20,2
2,13,6,1,1,4,0
0,19,17,5,0,2,2
10,1,12,25,7,1,22
11,0,3,5,20,13,12
2,1,2,5,9,7,1
1,11,4,1,0,7,1
1,5,11,15,1,1,2
7,2,4,16,9,1,7
3,1,2,4,32,6,6
1,5,0,1,14,13,2
0,14,5,5,2,4,2
1,4,2,14,1,2,7
12,0,2,6,8,1,26
7,2,2,1,24,6,8
2,5,3,2,6,20,2
2,14,7,9,3,3,1
6,9,8,9,1,2,2
14,2,8,7,12,1,6
1,1,4,3,14,2,4
9,1,6,3,2,16,0
3,9,5,4,2,3,1
0,2,9,4,2,2,2
4,2,4,9,23,0,7
23,2,2,4,8,12,10
4,0,2,2,2,4,3
1,10,2,2,0,6,2
2,6,2,2,3,0,2
8,3,14,29,37,1,2
10,1,3,18,22,6,6
2,4,1,0,2,9,1
2,7,4,1,0,17,0
1,15,4,16,2,4,2
8,2,9,9,20,2,1
11,1,6,3,15,1,15
1,0,2,2,2,15,6
0,11,1,1,2,6,1
0,13,10,8,8,2,2
11,1,12,14,16,2,6
10,1,3,3,4,19,2
3,2,2,1,2,8,0
0,21,2,0,2,2,0
0,9,1,11,15,0,2
17,2,36,26,23,1,5
3,1,17,7,3,5,22
1,1,4,1,2,2,7
1,8,1,0,1,4,3
1,5,11,4,21,1,2
13,2,12,15,14,2,1
6,1,0,1,0,2,9
1,0,2,1,1,10,5
1,5,1,1,8,1,0
2,32,13,7,36,0,1
13,4,3,8,6,3,1
4,2,1,5,2,2,7
2,2,0,1,2,4,9
1,5,13,1,1,4,2
1,4,28,8,35,0,0
5,0,8,15,7,0,2
5,1,2,3,1,1,1
0,2,3,2,1,6,8
2,8,13,1,9,10,3
0,21,13,7,33,1,2
1,3,2,12,11,0,1
5,1,0,4,3,1,3
2,1,2,1,1,5,7
0,9,8,2,10,9,7
2,15,10,17,25,5,1
4,3,1,14,4,1,2
6,1,1,1,2,1,4
3,3,2,1,1,2,20
1,4,2,4,15,10,23
2,17,6,29,7,2,3
1,6,3,13,1,1,2
11,3,13,1,1,10,2
3,3,7,1,1,4,8
2,25,2,3,18,5,12
2,22,1,20,16,0,2
0,4,1,13,1,0,1
12,1,2,2,0,0,2
4,1,2,1,6,1,14
1,12,1,2,32,11,8
2,15,15,18,7,8,3
2,1,11,12,1,1,0
5,1,2,1,1,4,2
10,2,0,0,1,3,4
2,19,1,11,29,0,2
2,6,2,20,9,5,1
2,3,1,3,2,5,1
11,0,1,1,1,1,4
4,1,8,11,0,1,5
2,4,19,21,19,20,8
1,23,23,2,7,27,1
1,6,3,1,2,1,2
11,2,2,0,0,2,1
5,0,4,11,1,11,2
1,16,9,15,24,13,6
1,13,9,2,21,1,8
2,3,4,1,2,1,1
4,2,2,0,0,0,1
9,2,1,9,9,4,1
2,22,4,15,24,4,5
1,11,18,5,4,1,10
0,0,8,1,2,0,2
6,2,3,1,0,5,2
13,14,0,13,10,1,1
2,19,8,5,30,1,8
2,1,11,1,4,8,15
0,0,2,1,0,14,1
6,6,0,5,0,2,2
12,26,4,18,18,1,1
2,10,16,12,15,2,5
2,2,14,1,2,12,18
1,1,2,1,0,1,3
5,9,2,5,4,2,1
9,23,2,38,33,10,3
2,5,3,14,18,2,9
0,2,17,1,1,7,5
2,1,10,2,2,2,3
0,6,1,5,7,0,1
10,19,7,13,37,2,1
2,6,16,2,15,13,5
1,1,7,2,2,5,17
2,2,2,1,2,1,3
6,5,1,5,24,2,1
7,20,8,7,29,5,1
4,6,8,7,3,15,1
1,2,6,2,1,10,3
0,0,1,1,2,1,2
0,9,0,1,25,1,1
13,26,2,11,11,12,1
5,6,6,12,2,2,15
1,1,2,1,1,0,20
0,1,1,1,14,2,1
6,3,5,1,15,2,1
13,18,3,23,2,2,2
2,2,3,18,2,5,3
2,1,16,2,5,11,11
2,3,13,0,18,0,3
0,9,2,9,19,2,2
1,23,1,15,2,7,0
9,9,4,2,1,19,3
4,2,10,1,2,5,13
1,2,2,5,25,1,2
0,0,1,21,10,0,1
4,10,2,18,2,6,2
9,3,6,0,0,13,1
2,2,13,2,1,3,13
1,1,1,5,25,1,3
0,2,2,27,27,2,0
2,18,2,11,3,9,1
10,5,2,1,1,13,8
6,2,18,1,11,7,17
2,2,6,2,17,1,3
0,2,2,21,3,1,2
0,18,2,10,0,0,1
13,14,2,3,3,3,16
5,2,5,2,33,4,17
0,1,2,17,19,2,2
2,4,0,17,2,0,2
2,7,2,2,2,0,0
12,0,16,0,6,8,6
2,2,18,2,20,6,11
1,2,2,14,7,1,0
0,2,0,4,1,2,2
2,13,1,2,0,2,1
11,7,10,0,7,2,8
3,2,10,2,31,8,7
0,1,1,15,13,3,2
2,5,2,15,3,1,1
4,19,6,1,2,2,2
18,9,13,2,10,3,0
4,1,2,5,20,28,4
1,0,2,18,2,3,1
2,1,9,7,2,1,1
2,6,1,1,2,0,0
7,6,11,1,14,9,0
4,3,7,7,37,19,7
2,1,1,20,6,4,8
0,3,7,2,2,0,1
2,5,7,0,9,1,1
10,27,11,0,43,4,1
2,5,5,1,9,9,0
1,0,2,37,1,9,15
2,1,1,29,0,1,13
9,7,2,4,7,0,3
14,11,1,0,19,1,0
6,1,9,5,4,10,2
1,1,3,4,1,3,5
1,0,1,2,0,1,1
2,4,4,1,4,2,0
13,10,2,1,26,0,1
11,2,5,11,4,18,5
1,1,4,17,1,5,13
2,0,2,2,2,1,3
2,6,2,3,9,1,2
9,10,2,1,18,1,2
2,1,10,17,5,7,4
0,1,3,22,2,20,5
1,0,1,2,1,5,1
1,3,0,1,0,1,0
7,13,0,1,20,2,8
13,3,12,20,14,16,22
1,2,14,13,1,2,9
2,1,2,1,0,2,1
1,3,1,0,0,1,2
13,14,14,2,19,0,0
15,1,12,14,11,14,8
2,1,2,11,1,8,8
2,0,2,1,2,2,3
2,8,8,1,22,0,2
2,9,10,3,7,4,1
1,2,4,4,1,8,1
2,2,2,4,0,4,14
3,1,0,3,5,1,8
3,2,4,0,18,0,2
9,13,14,11,6,0,0
9,6,4,14,1,6,3
1,1,0,3,2,15,13
2,0,1,2,4,4,5
0,4,3,1,30,1,1
7,12,14,12,14,0,0
38,4,2,8,1,19,1
7,1,1,1,1,12,1
2,2,11,2,3,3,5
2,1,10,1,25,3,3
2,10,16,13,4,7,2
2,6,2,15,0,6,5
2,1,2,3,1,4,3
2,1,1,0,18,1,10
1,3,14,4,33,1,3
0,14,6,27,5,4,1
8,4,1,6,2,6,1
4,1,2,0,1,9,2
2,0,1,2,27,4,8
2,2,8,4,34,1,2
0,16,22,10,4,0,0
6,5,4,2,0,5,2
9,0,2,2,15,11,1
2,0,3,1,50,1,9
1,14,1,10,17,1,5
0,15,3,44,3,2,1
1,2,4,17,1,23,0
7,1,0,2,9,5,1
3,0,0,0,22,1,5
2,2,1,11,2,1,3
2,9,10,8,2,0,2
0,6,3,1,0,8,2
9,2,2,2,15,16,7
5,2,9,2,35,2,15
2,3,12,11,4,1,13
1,9,6,13,2,1,1
1,10,7,2,4,2,2
7,1,0,2,30,14,1
8,0,1,2,44,7,11
1,5,1,6,7,4,1
2,8,10,21,2,2,2
1,9,3,5,5,1,4
0,2,2,2,9,1,5
2,2,0,1,11,6,9
1,1,8,14,1,0,6
3,9,8,7,2,2,1
5,13,5,1,6,2,0
1,1,2,2,31,6,2
4,1,1,3,9,9,0
13,1,13,22,1,1,9
2,8,12,7,1,2,2
1,16,2,2,8,0,1
3,2,1,2,36,7,2
7,1,1,24,19,5,0
3,2,4,34,1,1,11
1,7,14,5,1,2,7
1,19,2,2,6,1,2
3,5,1,2,28,10,1
7,2,0,6,7,5,1
10,1,1,15,1,1,11
1,8,7,6,1,0,4
1,12,33,2,10,5,1
0,3,23,0,25,12,1
9,2,2,8,5,3,4
18,2,1,18,1,2,9
3,7,0,3,1,0,5
0,13,0,1,14,2,1
1,5,1,2,32,0,1
6,1,2,21,5,16,2
13,1,1,44,1,7,1
2,3,9,5,1,1,11
1,9,5,3,13,2,3
0,2,1,1,9,1,1
7,2,0,10,3,16,1
13,1,2,10,1,7,2
3,4,10,1,6,1,3
1,10,19,1,34,1,2
1,3,3,0,13,12,2
1,0,0,0,1,1,0
13,1,1,1,1,5,6
2,2,5,20,6,2,10
2,13,10,11,32,0,2
2,4,2,1,21,2,3
6,1,2,22,2,5,2
10,0,0,6,1,7,4
4,17,22,2,20,1,13
0,16,21,1,16,2,3
1,3,3,2,2,1,1
4,0,0,33,0,6,1
11,0,4,5,2,8,0
1,6,10,2,27,1,3
1,14,5,0,21,2,1
1,2,1,2,2,0,1
7,1,0,25,2,2,1
12,2,4,14,4,6,6
1,5,3,2,27,2,14
0,13,0,5,11,2,2
5,4,1,19,1,1,1
21,2,1,9,1,1,0
18,2,1,10,15,3,3
2,19,20,2,15,3,10
2,14,2,0,2,0,3
2,1,1,41,1,0,1
11,0,0,46,13,2,1
3,1,11,5,36,10,6
0,13,11,1,7,9,17
2,6,1,5,1,4,4
1,3,2,13,2,2,1
2,1,2,0,15,1,2
14,4,6,4,22,0,1
1,13,11,0,1,1,1
0,6,1,4,2,1,10
1,2,1,28,0,2,2
14,1,9,11,10,4,0
3,1,16,1,31,4,1
2,19,4,0,6,1,14
2,8,2,8,3,0,9
2,3,1,19,1,1,2
10,1,0,3,35,1,2
2,6,0,1,25,0,0
1,12,14,1,2,12,9
1,8,4,10,0,4,13
1,2,2,17,9,2,3
17,0,1,2,35,0,0
9,1,2,0,6,6,2
1,14,6,1,2,13,18
1,9,4,5,2,2,6
1,0,2,21,10,2,2
10,0,2,2,24,6,0
4,3,2,0,2,2,0
0,12,8,0,0,5,4
0,8,6,1,1,3,7
2,1,2,3,19,0,2
18,1,0,7,8,0,1
6,1,0,12,3,7,1
1,12,5,9,1,18,1
1,4,10,27,1,8,2
2,0,2,5,4,4,0
14,1,1,1,17,2,4
5,1,3,2,5,3,6
1,10,1,1,0,6,3
0,6,7,15,1,9,8
0,1,2,7,18,3,3
7,0,2,2,23,1,1
6,1,3,1,1,1,0
3,9,12,5,1,5,0
1,11,4,16,1,9,5
0,1,2,27,22,8,4
9,0,0,2,14,1,1
13,1,5,1,2,2,2
2,12,11,4,1,1,2
1,8,7,31,7,13,6
3,2,1,10,22,18,10
3,1,1,1,2,6,1
8,2,1,2,1,1,1
3,12,1,5,11,1,2
1,11,14,24,32,4,5
2,1,3,7,29,9,6
2,2,1,3,3,0,1
11,6,5,2,2,1,1
2,17,5,17,1,4,0
1,5,9,16,9,6,2
2,1,2,2,20,4,20
8,2,1,0,3,2,11
16,1,5,2,2,0,2
4,21,10,14,1,1,2
2,10,6,9,24,3,2
0,2,4,2,14,9,6
2,0,1,2,1,2,1
11,3,2,3,1,1,1
6,14,5,22,4,1,2
3,4,12,20,27,13,2
0,3,4,2,11,21,10
2,1,2,2,1,2,2
9,4,4,4,1,2,1
5,20,7,18,11,1,0
1,5,6,6,45,2,1
1,0,0,2,9,13,10
0,2,2,2,2,4,3
5,1,1,0,4,3,1
12,10,1,30,37,1,1
1,3,3,13,33,3,3
1,2,7,1,3,11,13
2,2,2,3,0,1,5
11,8,1,11,2,1,1
3,19,2,19,24,1,2
1,3,1,4,22,0,1
1,1,1,0,2,10,1
2,1,14,1,1,12,1
9,8,7,10,8,2,8
15,20,2,4,24,1,3
1,4,1,1,8,4,9
2,0,4,2,2,6,14
0,4,2,7,1,3,3
3,13,1,12,8,1,2
10,14,0,36,9,3,1
1,2,4,4,4,22,1
1,2,2,2,2,5,5
6,0,3,2,0,3,14
22,9,2,33,7,1,2
6,12,2,9,27,1,1
2,2,5,2,15,1,2
2,0,11,2,1,18,5
1,10,10,1,1,4,3
16,17,3,13,6,2,0
5,6,0,14,21,3,0
1,3,3,1,6,11,1
2,2,8,1,2,2,9
1,1,3,8,1,2,20
8,3,1,18,7,2,2
5,1,0,3,20,2,1
2,0,7,1,3,8,1
0,0,16,2,1,16,0
1,3,8,2,0,1,16
3,2,2,5,6,1,3
15,9,0,16,13,1,2
1,1,2,2,1,15,1
1,0,0,1,1,6,3
2,0,2,7,1,2,7
1,1,0,34,14,0,2
5,14,1,4,24,13,1
2,5,0,2,2,11,2
0,1,0,3,1,3,1
1,1,14,22,0,1,7
1,3,3,16,20,1,3
9,9,0,2,24,4,2
3,4,2,1,3,5,1
1,1,8,5,1,2,3
0,0,14,15,0,2,11
2,2,5,7,30,7,4
7,21,4,3,26,0,1
7,17,2,1,3,2,1
2,1,2,1,1,9,2
0,1,2,10,1,8,10
2,4,9,4,18,1,2
7,5,3,3,10,3,1
9,2,1,1,3,4,2
2,1,4,1,1,9,6
1,0,3,2,14,14,12
2,3,2,25,15,2,4
1,12,1,5,3,1,1
8,5,1,1,1,5,0
6,0,7,6,1,19,0
2,1,2,29,31,6,13
2,0,8,13,17,1,10
1,6,3,0,2,1,2
8,8,2,0,1,0,1
5,1,0,1,5,7,6
2,1,3,13,23,8,10
2,1,5,21,6,2,2
3,1,1,4,1,2,2
10,15,1,1,1,10,0
6,7,3,1,14,3,4
2,1,16,4,22,2,9
1,2,14,1,3,2,2
2,4,2,1,1,2,2
5,7,2,2,1,0,0
13,1,13,1,12,15,9
2,1,2,7,18,8,11
2,0,1,4,3,1,4
1,11,0,4,2,3,2
4,13,1,2,0,3,0
12,2,6,1,14,3,0
4,2,14,4,6,2,3
2,0,2,19,2,6,5
1,9,1,6,1,0,1
0,13,0,2,13,2,0
7,4,2,24,23,6,2
2,2,25,9,7,10,5
1,2,17,4,1,1,20
4,9,3,1,0,1,6
8,17,0,4,9,1,1
8,1,2,24,29,7,1
6,1,11,9,12,1,1
2,1,11,16,1,2,11
1,5,1,1,0,0,1
0,11,1,1,20,15,2
7,3,2,3,37,2,0
10,2,3,18,5,10,8
1,2,0,18,1,13,16
1,3,1,3,0,1,3
1,7,0,3,16,22,0
9,4,2,1,17,38,3
14,1,6,9,2,2,12
3,0,7,9,2,2,10
1,0,3,1,0,18,2
0,10,1,1,20,43,2
2,3,2,2,40,3,1
14,2,2,31,5,6,8
3,1,5,12,0,10,12
1,5,3,1,23,1,1
2,13,1,1,10,11,2
6,6,0,1,3,22,1
8,2,2,18,3,21,3
2,0,10,7,1,17,6
1,17,3,3,8,9,4
1,44,0,2,8,24,0
5,24,2,11,18,16,1
14,8,6,16,2,5,2
1,1,10,3,3,14,2
2,0,3,2,26,106,1
1,24,5,31,43,37,1
5,47,1,25,11,17,1
11,6,0,19,2,138,7
3,93,1,53,13,7,8
0,146,1,4,64,1,3
1,4,2,1,7,0,0
1,114,0,51,2,126,1
13,91,1,33,1,22,5
4,18,6,5,48,3,10
3,2,17,8,33,6,8
1,58,4,45,4,105,2
1,102,2,26,1,234,2
1,4,0,10,44,7,0
0,2,8,1,75,61,9
1,47,4,68,8,50,13
4,93,6,89,4,119,0
10,56,3,108,72,10,0
6,70,1,2,80,122,1
1,14,3,2,14,22,2
0,0,5,46,1,22,7
1,28,3,79,59,9,2
2,82,1,15,98,75,0
14,29,2,88,106,25,0
4,23,0,85,5,61,2
2,111,1,11,1,13,11
2,7,12,21,12,92,3
4,63,5,1,98,27,1
10,16,2,130,8,25,0
4,3,0,40,1,6,3
1,50,4,19,47,1,8
1,38,9,50,40,39,2
3,65,2,66,67,30,0
12,6,1,5,6,111,1
2,16,2,42,3,3,4
0,6,1,12,7,1,16
1,3,8,103,11,57,15
2,46,10,80,43,32,2
10,23,1,36,12,71,2
6,2,1,46,2,73,1
0,2,6,3,47,34,8
2,26,16,66,69,61,2
2,11,1,165,19,5,1
9,4,0,13,14,2,1
5,1,4,58,1,10,2
0,26,7,53,2,29,10
0,53,22,150,28,77,8
3,24,4,32,26,21,1
11,4,1,205,13,3,1
11,1,1,73,2,10,0
0,45,3,5,52,52,9
1,19,21,57,13,26,8
1,13,6,271,11,28,2
6,10,1,51,80,22,2
7,8,1,25,36,48,1
2,39,1,1,18,12,8
0,6,1,50,4,20,18
2,3,9,80,36,57,2
5,26,2,86,3,30,1
12,19,1,45,1,115,0
1,5,0,3,14,11,5
0,22,2,104,38,29,8
1,23,7,146,106,77,1
7,9,2,8,5,26,1
4,3,5,64,1,18,0
2,1,3,23,46,38,1
0,11,2,135,37,15,10
1,9,1,35,37,88,3
0,51,2,41,3,9,1
15,14,1,6,1,35,0
5,2,1,17,49,50,2
2,0,4,64,15,21,14
0,5,1,131,1,2,3
6,42,15,51,0,18,2
23,8,5,72,22,44,2
8,13,1,35,27,49,2
2,65,23,121,3,6,10
2,5,50,10,1,3,4
4,1,4,165,7,8,0
7,12,2,30,74,16,0
1,90,11,51,59,11,0
0,9,43,83,5,9,9
2,2,3,23,0,2,5
2,2,0,12,11,36,2
9,11,103,29,18,13,2
7,43,10,17,8,20,0
1,15,6,7,1,12,4
2,1,3,3,1,26,21
1,22,2,57,6,2,4
7,14,10,20,6,22,1
15,2,26,118,16,3,2
3,20,70,27,13,45,5
2,10,31,111,1,16,6
2,6,4,10,28,22,2
3,6,7,3,89,22,2
11,37,39,32,21,14,1
2,4,25,67,2,49,1
1,58,3,18,104,3,5
0,30,92,108,5,7,2
4,3,17,22,18,80,1
3,5,50,26,4,16,3
3,40,5,13,1,18,1
0,45,75,143,29,28,9
13,8,37,49,44,10,12
18,4,11,79,24,57,2
6,28,0,77,3,8,1
0,17,2,11,4,1,0
1,4,1,52,103,82,4
0,3,12,128,61,18,2
5,3,46,18,5,11,0
11,9,14,90,28,4,2
1,36,14,112,34,10,2
1,2,3,10,1,7,8
0,35,2,14,20,25,10
7,39,13,43,11,12,2
11,2,15,8,25,16,1
1,1,118,15,54,4,1
1,54,44,3,12,23,9
0,14,9,43,0,35,15
5,27,120,69,1,25,4
22,33,8,30,56,6,2
6,13,1,25,45,16,0
3,55,6,123,3,36,9
1,6,5,46,21,5,4
2,1,13,67,5,3,1
6,18,76,45,24,9,0
2,11,57,12,7,2,1
2,12,25,2,0,11,10
2,56,2,25,1,53,9
3,41,151,41,46,13,1
15,6,5,4,33,12,2
5,1,55,125,3,14,1
1,0,193,15,2,9,3
2,5,14,56,12,13,13
2,42,2,54,16,31,2
6,5,98,46,1,30,1
2,31,13,35,1,11,0
1,28,37,3,2,3,2
0,19,4,92,41,39,3
1,16,13,26,12,5,2
10,14,23,22,2,33,2
3,6,6,108,2,8,1
2,27,35,14,1,13,4
1,4,49,28,36,8,16
3,18,25,34,3,22,4
9,3,2,88,22,7,2
8,5,59,16,2,2,1
1,34,36,165,13,19,4
0,14,2,7,35,15,7
1,9,110,1,17,7,2
7,30,57,43,6,2,1
13,13,8,147,0,60,2
1,1,1,13,6,20,1
0,1,26,16,47,33,10
2,12,87,24,14,5,10
10,27,9,125,4,10,2
12,18,38,12,37,8,1
2,3,74,64,37,61,2
10,68,8,5,8,16,8
4,12,7,206,3,3,7
7,7,122,102,0,16,1
1,2,73,27,23,6,0
1,1,32,19,19,45,2
1,1,9,17,12,8,12
7,19,2,11,1,3,5
9,5,26,43,18,16,0
10,54,8,41,24,17,1
1,31,0,59,25,45,4
0,3,13,11,17,4,7
1,23,71,22,7,9,11
8,12,7,45,4,5,3
9,2,1,10,25,43,1
3,2,31,20,13,9,2
1,2,11,46,15,2,2
2,27,2,2,6,6,1
2,19,119,130,27,2,1
11,44,15,69,14,3,1
3,2,24,60,2,51,8
1,1,10,19,2,33,2
0,1,16,34,64,3,7
8,2,1,4,27,18,3
16,0,72,45,2,21,1
2,50,22,132,0,7,2
1,36,73,7,6,42,4
1,7,9,17,45,5,10
1,24,78,29,5,2,2
9,4,7,56,1,46,0
9,4,38,71,2,6,1
2,82,3,6,2,19,1
1,17,21,137,32,37,11
0,2,73,115,25,30,2
14,7,10,6,0,5,0
12,2,2,28,9,52,0
2,75,0,37,36,4,4
1,10,69,38,14,7,9
3,2,76,6,2,22,3
4,4,5,76,35,18,1
4,44,1,6,9,18,0
2,25,3,107,22,4,1
2,4,39,16,8,30,7
1,0,19,32,1,5,9
11,28,2,52,1,6,3
4,21,34,84,10,1,1
1,4,19,21,10,16,0
1,2,38,24,4,75,1
0,2,4,34,3,6,3
9,3,7,140,9,47,1
7,57,29,39,33,5,2
2,9,91,88,6,8,0
1,3,18,31,2,12,1
0,1,8,21,0,22,11
12,18,55,109,3,44,4
6,19,23,19,28,6,0
3,11,7,14,22,10,0
0,15,3,31,4,4,1
2,1,58,33,12,28,7
9,82,10,17,20,36,2
7,14,36,29,18,11,0
2,3,22,4,2,21,2
2,2,2,36,2,17,6
0,7,18,13,2,5,11
8,46,89,34,6,33,14
11,12,6,13,13,12,3
2,1,15,35,4,10,0
2,5,50,59,1,7,0
1,28,26,62,10,35,5
1,53,25,54,33,12,8
11,9,14,33,24,3,3
2,3,1,10,1,30,1
1,30,45,5,3,18,1
0,22,22,13,13,3,8
4,35,13,28,47,8,12
15,2,4,25,4,3,1
3,4,15,13,2,5,2
2,2,3,16,2,13,1
0,20,3,30,56,22,16
4,13,60,97,18,5,25
13,2,15,7,1,6,1
2,9,17,67,2,20,2
0,20,25,69,21,17,0
0,4,4,21,32,10,9
2,1,1,15,4,93,9
8,36,69,15,1,8,0
3,17,62,45,1,14,3
1,58,8,42,16,19,2
1,12,23,22,18,2,1
1,1,71,75,5,21,6
7,11,31,17,1,4,1
9,23,15,3,2,10,0
1,22,38,45,13,16,1
0,2,8,7,22,1,1
7,2,27,33,1,15,10
16,21,8,25,0,23,2
8,52,28,7,34,2,1
2,6,2,43,17,2,1
0,63,36,27,2,7,2
1,23,30,74,0,21,22
5,2,4,39,0,9,4
13,9,14,13,17,0,1
3,2,12,1,37,9,1
1,5,20,63,4,6,1
2,11,3,17,2,6,17
4,12,1,9,1,6,3
7,1,5,21,30,13,1
0,1,30,15,21,2,1
1,36,23,38,5,2,1
2,102,13,10,1,14,14
2,4,1,140,4,7,3
15,4,18,37,22,11,1
6,17,39,64,5,4,5
2,49,4,6,2,6,2
0,28,2,11,1,30,1
1,14,3,114,4,13,2
3,1,13,9,22,3,0
5,12,12,125,4,3,4
1,2,38,35,1,16,2
2,0,10,54,1,9,6
1,28,4,45,0,22,3
11,24,3,65,17,5,0
4,22,33,31,83,2,1
1,5,13,123,10,25,0
1,2,1,47,1,11,4
2,11,1,16,37,1,9
9,27,49,96,14,2,1
15,5,9,68,4,1,2
3,14,4,91,1,3,1
2,1,7,5,9,24,2
2,9,13,16,43,13,11
6,5,4,85,16,14,1
21,0,12,13,2,5,2
12,6,30,79,1,25,1
2,3,17,9,10,32,3
1,6,17,21,25,7,11
2,34,7,45,6,8,3
4,9,3,5,2,10,3
1,1,1,5,2,25,2
1,22,14,55,22,9,3
12,3,15,36,7,14,3
48,0,20,66,14,2,2
49,8,4,3,1,33,1
4,2,22,78,9,3,2
1,34,43,22,48,1,3
3,15,6,79,16,21,1
21,9,55,11,1,5,2
19,2,10,4,2,35,2
1,25,2,97,30,6,0
23,7,40,36,37,10,3
11,1,72,35,5,0,2
7,13,23,11,1,32,1
66,37,49,60,1,14,2
13,3,32,95,18,1,0
1,3,3,22,34,10,7
40,15,1,5,5,3,3
37,39,57,1,2,18,5
4,4,15,95,2,4,2
52,75,12,9,28,12,1
139,14,28,13,34,7,1
6,21,12,21,4,16,1
24,31,14,73,1,35,5
5,13,3,17,17,3,9
0,8,14,4,56,2,3
8,3,15,45,8,10,1
122,40,4,20,1,18,1
70,4,80,62,1,8,2
34,1,9,9,8,8,10
41,37,50,64,30,4,2
6,14,11,11,11,21,1
0,20,43,124,3,3,1
2,10,10,6,1,46,5
160,25,20,93,14,4,8
108,20,9,8,22,11,2
4,4,6,76,2,11,2
2,1,4,17,2,15,0
8,2,1,4,1,20,2
58,13,3,7,21,3,6
63,14,64,39,9,18,2
5,3,37,22,2,7,1
2,3,21,3,0,4,2
25,2,5,125,1,1,6
110,15,1,10,35,3,8
71,24,26,3,32,7,4
17,5,17,15,6,45,1
13,13,5,1,0,4,2
121,38,41,30,35,23,0
4,11,23,60,12,3,2
19,1,5,48,4,12,12
178,1,3,5,0,6,2
12,2,62,35,1,1,1
59,36,11,84,24,16,0
17,50,5,59,27,8,2
134,5,3,37,2,39,17
23,13,2,6,0,5,5
5,19,24,56,3,6,2
123,18,60,18,38,9,1
30,2,36,20,23,3,2
99,9,4,16,2,7,10
19,1,4,27,3,22,2
9,1,4,32,12,5,2
63,52,5,4,5,25,2
23,8,34,1,14,15,0
20,12,14,116,3,1,6
15,18,3,43,5,2,6
45,38,8,71,31,13,1
5,9,18,26,5,5,1
3,7,25,55,4,15,2
5,2,13,75,1,12,6
37,6,38,34,3,2,2
97,21,19,8,28,6,0
7,9,15,3,6,42,2
3,3,37,5,7,5,2
14,47,3,43,2,5,9
32,7,18,5,1,1,9
98,1,21,6,13,0,3
13,13,24,121,29,13,1
1,5,18,43,3,14,0
77,1,16,10,1,7,1
38,48,14,4,23,3,8
51,5,6,61,28,9,2
4,17,2,36,3,2,0
27,1,22,61,2,25,1
29,2,10,28,2,13,2
3,23,12,2,6,18,10
68,36,7,50,16,6,3
9,3,23,34,13,21,2
14,1,17,93,3,13,2
2,38,14,9,2,3,4
20,5,3,67,16,1,15
16,43,12,102,15,12,4
8,9,35,9,1,32,0
3,1,6,46,1,3,2
5,10,18,13,11,6,0
17,31,16,58,24,2,2
39,2,10,7,18,34,2
16,2,35,2,2,51,11
3,18,9,163,2,12,2
1,20,4,27,6,2,0
69,5,0,86,9,1,9
18,1,19,33,7,6,5
31,27,46,69,2,29,1
14,3,2,98,2,18,1
1,34,15,21,19,1,1
3,1,47,23,19,18,5
6,2,28,8,21,9,4
60,4,7,112,1,1,1
6,13,7,18,4,3,1
28,6,4,49,45,6,1
57,4,4,26,16,34,3
8,10,0,93,2,6,7
38,22,13,54,2,4,3
5,18,51,38,7,17,1
5,4,4,12,40,22,1
33,2,6,37,9,15,1
25,20,13,89,1,4,13
23,16,1,12,2,3,5
10,11,13,144,17,10,2
6,2,1,27,7,18,1
19,1,5,53,8,2,0
15,41,6,10,2,29,7
3,23,27,27,2,8,4
12,2,12,88,17,44,1
15,2,4,55,34,26,0
32,9,8,7,4,3,2
2,21,10,60,2,19,16
0,55,8,81,1,62,4
20,4,8,14,18,10,1
17,1,6,142,21,3,0
35,3,58,22,4,6,1
11,19,8,111,2,7,8
21,35,2,7,9,16,19
10,5,18,155,6,19,3
13,9,25,19,6,5,2
18,3,3,263,3,2,0
2,12,21,11,1,3,2
25,5,18,5,2,10,8
20,4,39,27,16,16,3
2,40,7,8,26,2,0
43,20,2,98,3,4,1
18,4,16,8,0,22,3
5,2,10,37,7,19,10
10,2,10,107,13,22,2
8,4,10,26,21,1,0
5,3,30,41,3,2,0
25,8,3,30,9,25,3
95,17,19,134,9,3,14
8,4,6,47,54,45,2
9,2,4,32,7,5,1
8,47,18,20,1,21,2
3,5,5,104,0,3,0
34,32,18,29,8,12,5
7,5,4,54,37,6,3
21,0,7,80,14,37,1
33,10,3,21,1,5,1
28,68,1,43,1,6,1
3,11,59,11,15,1,7
7,2,10,126,33,8,7
26,16,34,13,4,2,3
42,11,5,3,1,20,1
7,5,13,107,2,19,1
35,3,12,22,18,10,15
11,2,12,29,20,3,10
1,38,7,63,4,8,1
4,26,6,16,2,11,0
5,4,22,49,1,10,12
19,16,3,9,32,8,16
7,11,19,40,6,19,3
1,4,15,23,1,2,0
17,27,10,16,0,2,2
8,3,3,16,14,13,2
5,5,7,92,22,3,11
11,11,12,34,7,28,4
14,23,50,45,0,29,2
3,2,18,6,17,6,2
2,24,2,66,45,2,1
41,8,11,5,17,17,5
5,5,17,55,1,3,2
1,3,8,15,2,4,2
41,0,18,46,10,23,1
25,13,24,39,26,2,2
7,1,24,49,2,10,16
2,40,4,13,0,10,7
17,16,10,14,2,7,2
5,2,35,3,9,26,2
28,0,9,3,26,14,3
13,10,6,222,14,3,16
4,41,5,11,2,27,5
2,4,15,18,2,2,2
1,1,38,35,32,17,0
20,6,4,35,27,10,0
16,24,15,48,1,8,5
55,20,31,31,1,41,10
4,4,19,21,11,2,2
4,20,6,115,6,4,1
3,3,33,26,1,4,1
27,9,6,7,2,39,8
6,5,46,126,1,6,6
4,25,12,89,13,4,3
42,5,12,6,28,13,1
6,5,18,9,8,23,3
4,42,1,16,0,10,2
5,6,1,15,4,4,1
3,0,41,80,25,22,2
9,7,13,10,8,2,1
28,22,53,9,5,8,2
10,53,10,85,1,12,1
1,8,1,40,1,13,6
2,1,7,54,14,13,4
15,24,8,4,32,7,2
26,29,59,26,5,25,0
6,7,10,56,2,5,2
3,3,52,4,2,3,10
2,5,14,16,35,1,5
17,2,1,112,13,18,1
8,0,6,13,1,14,2
18,16,2,35,1,1,0
19,2,32,4,2,1,2
5,10,33,78,29,7,3
6,16,14,25,20,53,2
26,9,2,68,4,22,2
5,7,3,37,0,3,2
7,4,33,10,8,1,2
7,0,44,50,12,21,7
21,37,6,11,7,13,1
15,15,28,3,1,3,1
3,25,41,25,2,33,1
7,1,6,76,3,4,2
10,1,25,149,19,2,13
7,30,2,4,35,1,2
2,40,33,7,3,12,2
2,7,21,59,0,3,2
1,1,2,70,17,1,7
17,3,4,6,13,7,7
24,45,1,14,1,35,2
3,11,38,54,2,2,1
12,2,40,14,10,5,0
6,2,5,21,17,2,7
39,28,9,30,19,12,10
13,52,14,65,1,34,1
6,5,8,15,3,19,1
1,18,12,23,12,2,0
1,3,19,55,45,2,0
41,9,9,5,6,29,6
10,6,3,54,1,12,1
1,1,21,153,3,2,3
53,1,8,5,19,14,1
6,12,13,8,18,35,1
2,43,20,63,2,6,3
1,8,4,24,0,9,9
0,3,0,49,22,2,1
18,0,17,76,44,8,1
27,26,4,46,3,32,3
9,4,2,5,1,7,7
2,2,7,78,2,8,14
3,0,58,21,28,0,3
4,3,10,102,23,1,1
28,72,1,6,1,9,1
2,14,46,9,0,28,1
1,3,18,2,0,9,6
12,1,18,92,19,2,7
86,3,7,33,26,18,2
7,45,2,26,2,22,0
1,8,13,32,10,8,0
10,6,30,50,21,8,5
2,1,5,12,4,6,3
17,6,2,19,6,9,1
22,18,59,73,4,6,2
3,34,20,21,27,4,2
5,4,4,57,55,5,0
1,0,0,33,33,5,9
63,29,23,38,3,2,3
11,24,26,42,2,45,0
10,7,2,23,14,4,0
10,7,4,13,60,11,8
28,1,1,2,7,10,17
4,4,5,26,2,17,5
1,37,12,36,38,31,2
0,7,18,20,10,4,2
16,44,1,5,4,0,1
15,19,6,14,4,4,10
1,2,12,59,1,20,3
13,3,7,27,20,9,1
4,32,13,4,5,15,2
20,3,3,2,2,2,5
35,10,15,19,2,23,9
7,31,5,31,1,13,5
1,16,46,9,15,1,0
0,3,10,35,21,1,1
15,6,33,76,5,19,1
7,8,18,15,2,16,14
27,4,5,9,0,11,4
8,4,6,5,1,2,3
13,5,2,3,6,6,1
1,3,1,10,12,6,0
11,12,35,11,8,11,8
11,3,11,29,3,7,2
12,22,3,4,15,1,1
8,6,18,4,30,4,2
4,0,6,22,12,12,6
2,36,17,9,2,4,3
26,10,4,5,2,21,9
9,0,1,2,15,4,3
4,1,24,3,3,2,2
2,12,14,25,7,3,1
13,55,10,7,3,11,0
2,17,10,2,12,9,10
41,1,5,2,45,3,3
3,22,3,9,7,10,1
1,14,12,14,1,8,2
1,42,40,1,1,4,5
3,8,10,2,14,5,13
14,2,2,1,52,2,3
26,9,3,14,5,3,0
16,31,26,16,2,2,1
13,10,4,5,1,14,2
0,2,17,0,20,3,14
34,0,28,3,40,2,5
9,57,3,9,3,3,2
18,11,15,31,5,8,2
14,6,4,3,6,4,2
6,6,24,1,29,4,1
9,2,3,1,4,2,2
3,55,34,16,3,2,0
1,8,9,27,3,5,1
20,6,3,5,1,7,0
4,2,1,1,6,4,10
4,1,5,1,31,5,11
3,7,32,7,4,1,1
9,16,5,18,1,2,0
9,19,10,4,41,11,0
2,2,5,2,10,12,3
3,1,18,2,14,3,3
10,24,14,5,1,3,0
1,10,1,25,1,3,2
3,6,0,2,12,6,0
17,1,8,1,16,8,3
54,4,11,1,7,7,5
5,32,13,9,2,0,2
10,29,2,20,0,1,0
19,2,11,7,104,15,2
6,2,37,2,17,15,5
2,3,18,2,0,2,4
7,3,2,5,26,1,0
3,2,3,16,4,6,1
7,1,26,3,39,15,1
24,9,11,1,7,14,1
20,12,3,1,3,2,8
2,26,1,34,2,11,4
30,3,9,7,13,4,1
3,2,46,1,31,9,1
21,1,6,1,14,5,0
6,5,6,2,1,0,1
1,10,5,11,8,1,1
20,3,4,7,32,3,1
12,1,18,3,21,14,4
21,1,10,1,1,8,10
5,25,3,2,1,2,6
2,10,0,7,11,0,10
11,2,8,19,29,3,2
25,1,11,6,3,11,1
4,13,4,3,2,3,1
2,20,1,0,4,1,1
13,1,2,8,38,3,8
15,20,35,15,13,6,5
2,16,51,3,2,5,2
2,2,10,1,0,3,2
1,0,1,2,3,1,2
52,3,6,14,37,2,7
52,121,2,13,50,3,2
5,16,8,1,11,13,2
3,45,1,1,20,11,1
16,12,2,1,7,3,1
5,10,2,6,17,0,3
4,2,1,20,1,1,2
5,35,6,5,1,14,2
2,3,3,1,4,16,1
2,29,1,1,22,3,12
3,9,0,12,3,3,13
19,57,2,17,2,16,2
14,75,9,2,1,31,0
10,4,21,2,19,5,0
3,27,3,7,11,3,2
14,9,2,30,3,6,16
10,9,21,14,1,12,12
2,92,6,3,0,12,2
2,37,12,0,20,2,0
14,3,2,8,11,4,4
14,76,11,20,2,0,13
5,32,20,7,1,27,2
0,13,18,1,15,3,1
16,50,22,3,16,5,3
39,4,6,7,2,18,1
3,1,13,17,0,2,7
3,37,20,7,2,6,1
4,32,4,2,4,5,1
9,21,3,0,2,1,1
21,8,12,9,4,1,4
17,6,3,21,2,11,11
4,6,30,5,3,8,4
1,3,1,1,21,7,3
41,21,12,2,31,1,2
11,32,5,1,7,2,1
12,13,15,38,2,2,2
3,1,1,22,3,10,4
3,1,3,1,17,2,1
14,1,4,1,32,6,2
8,0,18,14,4,1,1
10,9,18,23,0,3,6
1,3,5,4,2,5,6
36,0,3,11,8,5,3
19,20,4,1,19,0,0
3,7,0,27,3,2,1
2,5,49,6,2,3,5
16,1,8,2,6,7,8
8,14,21,2,33,5,1
12,2,3,1,22,2,1
6,6,21,13,3,4,2
2,8,42,9,0,1,0
24,2,11,1,1,5,8
3,2,31,0,29,9,15
9,1,8,3,40,2,2
5,13,11,13,4,0,1
2,22,34,6,2,1,0
18,4,42,2,4,5,5
20,2,13,1,36,8,6
8,1,29,17,8,1,1
35,11,8,18,2,1,1
1,12,2,1,1,4,2
21,2,6,0,9,2,5
18,0,15,2,30,5,10
38,1,29,10,5,6,2
3,8,6,28,2,1,1
6,4,12,2,0,1,0
7,0,68,0,18,0,9
17,2,28,6,21,19,13
1,10,7,18,2,5,2
5,13,1,5,1,3,0
20,1,0,2,2,1,2
29,2,60,5,20,2,2
2,1,11,3,20,8,8
0,7,2,16,1,13,1
42,13,1,25,1,2,1
17,2,7,3,12,0,1
5,0,19,1,65,1,5
12,1,16,2,18,6,13
30,15,15,13,3,12,4
16,5,8,12,1,5,0
2,2,42,1,15,2,0
2,1,3,1,16,3,1
2,0,4,14,3,2,11
1,12,2,22,2,8,4
29,10,1,2,1,5,1
34,1,22,2,24,2,2
4,1,4,5,12,2,4
39,5,5,23,3,2,10
16,20,16,5,1,9,6
36,8,12,1,15,5,2
3,1,9,2,29,2,1
2,1,10,6,4,2,1
1,1,4,22,1,6,11
21,24,9,10,5,14,2
6,13,11,2,25,3,1
3,2,21,0,10,3,0
10,0,2,10,3,1,6
3,6,7,29,1,2,14
0,21,13,4,1,1,3
6,3,20,1,28,3,2
39,0,5,3,46,1,2
9,1,0,2,5,2,2
19,9,0,3,1,7,9
7,7,3,4,10,2,4
1,10,30,1,25,6,2
1,0,12,2,6,8,1
3,1,1,14,1,2,1
1,5,1,25,2,2,5
25,17,5,5,13,1,12
63,3,17,0,15,12,4
12,1,5,7,3,2,0
1,8,2,25,2,2,1
26,21,2,13,2,1,1
45,7,13,1,27,6,15
10,2,10,0,19,5,3
2,1,4,2,3,2,0
7,2,2,16,3,1,0
29,1,0,7,7,2,4
6,18,7,2,22,0,10
7,5,2,0,5,8,2
2,2,1,6,3,11,1
17,0,5,10,2,2,1
21,9,3,5,1,0,6
2,14,12,2,32,1,6
2,2,21,2,16,9,2
4,1,2,0,2,19,2
21,2,4,16,4,3,1
14,2,4,7,42,2,2
2,12,5,2,34,5,21
1,10,2,8,4,15,4
28,1,3,1,2,6,1
56,0,25,31,0,1,2
4,14,9,8,23,3,3
16,6,0,3,21,3,6
2,2,0,0,1,12,2
43,3,51,3,0,2,1
7,23,163,24,10,1,2
8,25,16,7,13,2,1
6,10,2,3,3,0,1
2,1,1,1,1,10,2
11,1,14,5,2,7,0
24,14,5,21,4,0,5
2,15,15,6,24,2,1
19,2,40,4,9,1,10
6,1,49,1,1,13,5
23,4,136,4,1,7,1
10,15,84,18,12,3,1
3,14,5,8,26,2,1
0,2,1,1,3,2,3
24,0,4,2,0,6,12
7,3,66,1,23,9,1
6,12,68,13,32,4,1
17,11,31,13,6,3,3
27,1,28,3,3,0,15
8,2,46,2,1,0,6
2,7,110,6,5,8,1
0,26,46,29,21,9,1
3,6,3,13,5,1,2
3,2,0,2,2,0,20
26,1,18,0,0,1,8
11,1,79,10,8,10,3
9,8,8,10,25,6,1
13,6,6,2,12,2,1
57,1,7,1,2,1,0
21,0,7,1,2,2,1
2,18,68,12,13,10,2
16,15,108,9,14,5,2
21,9,5,1,4,0,1
5,2,0,0,1,0,7
2,2,3,1,1,3,11
2,2,36,11,11,19,2
2,6,41,3,21,4,2
9,6,5,2,3,1,1
36,2,2,2,1,0,2
4,0,19,59,0,1,6
1,0,46,4,25,7,2
0,13,12,29,13,4,2
12,8,3,4,2,2,1
45,1,29,2,0,1,4
4,1,83,2,15,0,23
5,1,33,14,22,7,5
1,15,3,6,4,9,2
40,4,16,2,0,2,2
9,1,1,0,0,2,2
12,1,20,4,20,1,0
2,7,55,17,3,4,10
1,14,63,6,1,8,3
31,7,18,2,0,2,2
10,2,14,2,1,0,5
2,2,4,2,15,1,10
17,0,0,5,9,7,0
8,24,21,14,1,16,1
2,14,25,2,1,1,2
1,1,12,2,1,2,13
13,2,46,2,19,1,14
14,2,16,13,24,0,1
27,6,15,1,3,7,0
5,16,22,0,3,4,0
1,1,56,1,3,1,3
26,1,4,5,28,1,15
7,7,17,23,11,1,6
13,25,33,9,1,14,2
23,3,21,3,2,5,2
4,1,28,2,6,3,2
1,0,5,3,25,2,10
11,10,1,4,3,2,1
5,18,9,4,1,1,1
4,3,18,1,3,4,0
5,1,9,2,30,2,2
6,1,3,12,27,1,4
14,14,1,12,2,1,3
49,20,6,6,2,2,2
8,1,0,1,0,10,2
2,2,27,2,18,10,2
23,1,26,2,9,2,25
32,10,8,29,2,4,24
10,15,3,4,1,10,4
3,1,6,1,1,1,1
15,1,2,0,32,1,2
10,10,7,6,31,1,2
10,28,3,18,3,4,2
1,5,21,6,1,7,0
1,2,4,2,3,8,2
5,0,8,1,24,2,0
17,4,1,1,12,1,1
25,1,4,15,0,0,8
2,3,9,1,2,4,3
2,1,7,1,6,12,1
10,1,25,1,27,2,1
17,3,6,4,12,1,3
7,14,2,15,1,2,4
2,6,0,6,2,10,0
29,0,18,1,23,13,0
9,0,12,0,24,4,1
2,3,1,1,4,1,1
10,18,1,0,2,2,7
2,8,4,15,1,9,13
10,2,11,3,21,5,3
25,0,2,2,11,2,1
5,2,2,1,1,0,5
10,17,21,11,0,2,16
9,5,10,6,8,9,3
13,1,1,1,32,11,0
24,0,0,1,10,5,0
2,3,4,3,2,1,2
18,19,2,16,0,2,14
22,5,10,7,26,4,3
42,1,22,3,35,9,1
6,1,2,2,3,3,0
8,3,2,1,1,1,0
21,26,2,15,2,10,8
45,18,7,7,16,1,2
3,2,20,1,22,21,1
1,2,3,1,1,2,1
11,4,6,0,2,1,2
21,15,12,26,4,1,15
5,4,2,18,26,0,11
6,2,7,2,3,33,0
24,2,3,1,1,23,1
2,20,1,18,7,3,1
33,18,11,6,15,3,7
26,1,5,2,37,11,3
11,0,6,1,9,14,1
4,2,3,11,2,3,1
2,20,1,13,0,2,1
12,15,0,13,25,4,8
1,2,6,1,22,9,12
7,2,14,0,3,9,1
4,3,1,15,2,2,1
12,22,0,47,2,3,3
14,8,3,5,31,1,12
2,2,3,1,20,10,4
2,1,6,1,2,8,1
3,2,10,4,1,3,4
19,17,2,18,1,0,12
18,7,11,2,28,1,7
3,2,8,1,29,1,1
0,2,2,0,2,3,1
8,2,1,7,2,0,1
8,18,0,12,15,1,7
4,6,1,3,21,1,16
2,1,7,2,3,10,5
1,0,12,6,0,9,0
2,19,1,10,2,1,0
8,30,0,2,23,2,4
10,6,2,2,30,1,13
2,1,19,0,4,3,1
1,0,22,1,1,9,1
2,15,4,0,2,5,1
6,10,1,13,32,2,3
1,1,3,9,20,1,10
2,1,7,1,2,4,2
0,0,8,2,2,9,1
3,11,2,9,21,2,0
10,12,2,23,30,0,4
