HandOpen,HandClose,Wrist Flexion,Wrist Extension,Supination,Pronation,Rest
1,19,4,0,1,13,2
2,12,4,2,1,7,2
0,6,2,1,1,2,4
1,4,1,3,2,2,9
1,4,1,1,2,1,4
2,1,0,2,2,19,4
2,1,1,0,1,55,8
1,0,4,0,2,65,12
2,0,1,0,1,36,5
2,0,2,2,2,17,4
1,2,1,5,2,6,2
5,2,2,5,2,4,1
8,2,1,5,0,2,2
7,2,1,4,1,1,1
4,1,1,4,1,9,1
2,1,0,2,1,7,2
2,2,1,3,0,3,1
1,15,2,1,1,3,3
2,17,2,1,1,3,0
5,10,4,1,0,17,1
6,4,2,0,1,24,1
4,3,2,1,2,31,1
1,1,1,3,1,20,1
1,1,1,6,3,8,0
2,1,5,3,0,5,0
1,1,4,2,1,3,2
1,1,2,2,2,18,1
1,2,1,1,2,9,0
2,1,1,1,1,5,6
0,1,2,1,1,1,12
2,1,4,1,5,1,7
1,1,1,1,5,8,4
0,2,0,0,4,2,2
0,9,4,1,3,4,1
0,2,1,1,3,6,3
2,3,2,2,2,7,4
1,4,10,1,2,5,1
2,2,2,0,1,1,1
0,1,2,1,0,2,0
2,0,1,0,2,0,1
16,2,3,2,1,11,9
3,1,1,0,0,12,6
3,5,1,0,2,25,1
22,2,1,2,0,4,2
1,1,1,0,1,1,7
9,1,1,2,2,1,15
4,1,5,1,3,17,1
2,2,4,2,1,42,0
2,2,1,1,1,6,9
1,2,0,1,0,8,2
3,1,1,2,0,13,0
1,1,2,1,1,74,8
1,7,2,0,0,3,6
33,5,1,4,6,1,1
2,2,0,1,3,7,0
3,0,5,0,2,8,1
1,1,7,6,1,2,2
1,5,3,12,8,1,2
2,6,2,1,1,2,9
4,1,1,1,0,1,11
1,1,0,1,1,0,0
127,0,1,2,0,1,0
26,2,0,2,4,1,2
4,0,1,1,5,1,31
2,0,2,0,1,4,27
1,9,2,1,1,3,1
4,4,1,2,0,1,3
2,1,9,2,3,2,2
1,2,6,1,2,1,1
2,0,1,2,1,2,5
1,2,1,1,1,1,4
3,1,5,2,1,2,20
1,2,2,0,0,2,2
1,9,0,1,2,2,1
1,25,1,0,2,1,3
1,2,0,4,3,3,5
2,2,2,2,1,12,9
0,2,2,1,1,2,2
5,1,10,0,6,1,1
2,0,1,6,1,0,4
6,14,1,2,1,6,2
18,2,0,1,1,1,2
2,2,8,1,1,2,1
0,1,5,2,2,0,7
1,2,2,1,2,4,1
1,2,2,0,0,3,3
3,0,1,1,1,5,17
2,0,2,1,6,1,4
6,1,4,0,2,2,2
1,6,3,0,3,1,4
2,1,2,2,1,0,1
2,2,0,1,0,2,6
2,1,3,1,0,29,4
1,1,0,2,6,14,1
1,10,2,1,3,2,1
0,3,2,8,1,2,3
8,0,1,3,2,1,3
2,1,2,1,0,3,2
2,0,2,1,2,0,12
1,3,4,1,0,1,0
2,3,9,1,9,0,5
1,1,1,1,6,4,1
2,2,1,1,1,1,6
2,7,1,1,3,1,2
1,14,2,0,4,0,0
1,2,13,4,2,2,2
2,2,2,2,0,0,1
2,0,1,0,1,0,15
2,5,1,0,1,0,3
0,2,1,1,1,16,11
14,2,0,2,0,3,13
8,6,6,5,2,2,4
1,3,2,2,0,1,2
2,1,1,0,0,11,2
2,0,0,0,0,5,0
3,1,3,2,0,2,7
54,0,2,1,2,2,1
3,1,1,0,0,0,2
1,0,2,2,2,2,13
1,8,7,0,2,0,5
2,5,10,2,2,0,2
0,5,0,1,1,0,1
1,2,4,1,1,1,26
1,1,2,1,1,9,9
0,1,3,1,6,33,2
3,0,2,2,2,3,12
4,51,4,0,3,2,2
1,27,2,10,2,1,8
3,1,3,3,3,2,3
1,2,2,2,2,3,2
0,2,1,1,1,7,2
5,1,2,5,1,2,3
2,1,3,8,0,0,2
1,1,1,2,1,1,9
0,10,0,2,2,1,7
8,2,1,2,1,0,2
2,1,1,2,2,1,23
1,1,3,3,4,1,3
2,1,1,1,1,2,2
0,1,1,1,0,3,6
1,2,1,1,1,2,2
9,0,1,0,0,0,2
3,15,2,2,0,1,25
2,2,1,2,0,2,4
2,0,2,1,4,4,1
2,6,5,1,2,2,0
1,1,2,1,1,3,0
2,3,5,1,0,1,14
1,0,2,1,0,0,1
0,3,0,2,3,1,6
6,1,2,0,1,0,1
8,1,8,2,0,1,0
2,10,4,9,1,6,1
0,2,2,3,1,1,6
2,1,1,2,0,0,3
2,1,0,1,1,4,1
2,0,1,1,2,0,8
1,2,1,1,1,2,31
1,1,0,1,0,0,16
1,2,1,2,0,3,3
3,2,1,4,0,1,6
2,1,1,1,0,1,1
1,5,6,0,12,8,1
2,2,5,2,5,2,21
3,0,0,1,0,1,2
13,2,1,9,1,17,0
2,0,1,3,1,1,0
0,1,2,0,2,2,35
86,3,1,2,1,2,7
40,0,1,0,4,1,14
6,1,0,2,1,2,4
2,2,6,4,1,1,1
10,1,8,2,3,2,1
2,2,2,1,2,1,0
2,1,1,1,1,0,1
1,1,0,1,2,2,12
2,0,3,1,1,0,3
2,2,2,2,1,2,2
4,3,2,2,3,1,1
5,2,2,1,1,0,4
1,0,2,1,2,1,9
1,12,2,0,1,4,4
2,2,1,1,2,0,9
0,1,3,1,0,2,6
2,1,4,1,0,18,9
2,1,2,6,2,1,1
7,4,1,1,2,2,0
9,4,0,1,0,5,14
3,1,1,4,1,2,5
1,0,2,1,2,5,1
2,1,6,2,2,2,1
4,3,2,0,1,0,8
9,1,1,0,0,0,22
1,2,3,1,2,4,3
1,4,3,1,0,36,6
1,7,1,2,1,3,2
3,2,1,1,0,1,17
1,1,4,1,2,1,5
0,1,1,1,2,2,2
0,1,0,0,1,1,2
4,0,1,5,4,2,1
8,0,2,2,5,2,3
3,0,0,0,2,0,7
2,0,3,0,1,0,5
1,0,6,0,0,2,1
2,4,1,0,2,2,18
1,7,4,14,0,1,3
1,1,0,5,3,1,25
2,0,0,1,1,1,4
3,1,3,1,0,5,1
12,0,3,0,1,12,0
2,1,0,2,2,0,3
0,0,1,1,2,3,2
1,1,5,1,2,2,24
1,2,11,3,5,2,3
1,1,2,0,0,1,0
1,1,1,2,1,1,5
3,2,1,1,1,2,5
2,2,0,3,1,1,3
1,1,0,6,0,3,2
4,1,1,1,0,2,5
1,1,3,1,0,0,4
3,3,3,0,3,2,7
6,2,1,1,3,0,7
1,0,1,1,2,1,1
1,2,2,1,0,6,1
4,0,2,1,0,2,0
6,1,2,0,1,0,3
2,2,1,0,1,4,6
2,1,2,0,2,2,7
2,2,6,6,0,1,2
2,1,2,15,6,0,47
1,2,4,1,1,1,6
3,45,3,8,2,0,3
1,18,1,10,5,1,6
1,4,1,0,2,1,0
0,2,3,1,1,5,0
4,1,10,1,1,7,6
1,2,2,0,2,1,2
8,0,2,3,1,1,10
2,2,1,0,0,2,1
1,2,2,1,2,1,2
0,1,5,2,2,2,2
3,1,3,9,1,1,0
1,2,1,10,3,1,9
1,1,1,3,1,2,13
1,4,1,0,1,2,8
1,1,2,2,6,2,0
4,1,1,2,7,0,2
4,1,7,2,1,2,2
3,0,2,2,1,1,4
1,1,1,1,0,1,0
1,1,2,2,0,1,13
1,1,0,6,0,0,18
4,0,2,51,1,0,2
1,5,1,5,3,1,13
2,2,0,2,1,1,22
1,2,0,0,2,3,3
0,1,1,1,1,1,1
1,2,2,1,1,0,6
10,5,1,1,3,4,1
3,2,4,2,2,1,0
0,1,4,0,1,1,4
1,1,2,1,1,1,4
1,1,1,2,2,1,2
4,1,1,1,1,0,1
1,2,3,0,1,1,17
0,0,1,0,0,7,6
3,1,4,1,6,1,0
4,0,5,1,1,1,3
4,1,6,6,0,1,0
2,0,1,1,1,4,34
0,4,1,1,5,4,16
1,1,1,0,3,2,5
1,1,3,0,1,1,2
2,1,6,2,2,0,2
73,1,2,1,5,1,0
27,0,1,0,4,1,6
13,4,0,1,1,2,5
2,1,3,0,1,2,3
1,2,2,0,1,1,1
1,1,1,2,4,14,1
3,2,1,0,0,4,3
2,2,8,2,0,1,10
2,3,1,0,1,1,6
1,1,4,5,1,2,0
3,1,1,4,0,1,0
2,1,2,0,5,1,0
0,2,0,2,4,1,2
0,0,2,0,2,1,15
7,1,1,2,2,1,5
4,1,1,4,2,5,1
0,2,1,9,2,1,2
3,1,1,2,1,3,3
3,4,4,1,2,2,7
12,2,2,3,1,1,5
2,0,2,2,2,1,1
2,0,1,1,1,1,5
2,2,4,0,2,1,3
1,0,4,1,2,1,2
2,2,1,2,1,1,4
2,0,8,2,2,0,16
1,1,8,1,0,0,13
0,1,2,2,1,4,11
1,11,1,0,1,3,1
3,3,4,0,1,2,2
3,1,3,2,1,0,1
3,2,1,2,1,9,1
0,1,2,3,1,2,1
6,11,1,1,2,1,13
4,2,3,0,4,0,3
2,2,1,1,2,2,1
0,0,3,1,1,2,2
1,2,1,1,3,1,0
1,3,1,2,5,2,38
0,2,2,0,2,2,4
1,1,3,3,2,4,1
13,1,13,2,2,0,4
2,0,2,0,1,4,1
0,1,2,2,2,9,2
2,0,0,1,3,2,9
4,5,3,1,5,0,1
4,1,2,1,3,1,0
1,1,1,3,1,2,12
1,2,3,1,2,1,2
4,2,2,2,1,3,2
8,1,4,1,2,1,1
1,1,2,2,0,1,1
1,1,1,1,5,2,26
2,0,2,7,4,0,12
0,0,2,5,1,1,1
30,7,4,2,1,1,1
2,2,2,0,5,7,1
8,0,3,1,1,1,1
8,0,1,1,3,0,1
1,10,2,1,2,0,1
1,3,2,1,2,0,12
2,2,7,0,2,1,12
2,0,5,1,3,1,18
1,2,3,2,1,0,2
1,7,2,3,1,0,10
5,46,3,1,1,0,2
7,14,0,1,3,2,1
4,3,1,1,1,2,5
1,1,0,1,7,1,10
2,2,1,0,4,1,3
5,1,1,0,3,2,1
13,0,13,1,0,2,0
1,1,1,1,2,0,2
2,7,2,2,2,0,0
1,2,0,13,0,6,4
0,0,3,1,0,2,16
2,0,1,1,1,1,7
1,0,7,2,1,2,3
7,1,3,1,2,1,2
6,2,0,1,2,1,15
13,5,1,0,4,1,4
2,1,4,4,6,1,7
1,2,8,1,3,1,3
0,1,6,1,0,1,1
0,1,1,0,0,9,4
5,2,0,1,1,10,5
1,2,0,2,1,1,2
2,2,5,0,1,1,6
1,2,10,0,1,1,4
2,3,3,3,1,1,4
1,2,1,1,5,1,1
4,2,0,1,4,1,8
1,1,1,0,1,0,31
5,2,11,1,1,2,3
1,2,2,1,1,1,2
1,2,0,0,0,1,4
2,0,1,2,1,3,1
61,1,1,2,1,4,16
3,1,2,1,1,3,18
1,2,3,1,3,1,1
2,0,3,1,4,2,11
1,0,1,0,6,2,18
2,2,1,2,2,0,3
0,4,0,2,2,1,1
2,2,2,5,4,2,16
2,1,9,3,9,1,5
104,2,1,0,3,1,4
39,2,3,1,1,1,2
6,1,2,1,0,2,0
2,1,2,2,0,2,0
8,1,1,0,2,0,5
5,2,2,0,2,1,9
2,1,1,1,5,1,16
2,1,2,0,5,0,2
1,1,9,0,1,1,7
2,2,6,1,0,0,1
2,2,1,2,1,0,5
4,4,1,3,3,1,3
5,3,0,1,0,1,4
3,2,1,2,1,2,0
1,0,3,1,1,1,6
0,1,0,2,4,2,4
1,0,5,2,2,1,0
9,2,1,2,2,1,24
3,4,1,2,1,0,3
2,3,1,1,2,0,7
1,1,1,2,0,0,6
1,1,6,3,0,2,5
3,2,0,1,3,1,1
1,2,1,1,0,0,1
1,2,1,2,2,8,2
0,1,1,3,2,2,2
3,1,1,2,2,0,6
4,0,4,2,2,2,6
1,1,1,0,0,1,4
4,0,1,1,2,1,2
2,1,1,0,2,2,2
1,0,2,0,4,2,13
1,1,1,2,3,2,1
0,0,1,1,5,4,16
3,3,0,1,0,3,8
5,9,1,1,1,2,12
1,2,1,2,1,0,2
1,2,1,1,18,1,1
1,0,2,2,2,0,7
1,1,1,1,1,0,15
2,4,2,1,0,1,10
1,0,1,5,1,1,3
2,2,0,7,0,2,3
6,1,3,1,0,7,2
1,0,0,2,2,1,11
2,1,1,0,2,0,20
1,2,1,0,0,1,3
0,0,1,2,1,1,2
6,0,3,1,1,0,0
3,1,2,0,3,1,2
1,2,1,0,1,1,15
3,2,2,2,2,1,2
1,0,1,1,2,1,1
3,2,1,1,2,1,4
3,1,10,1,2,9,4
2,0,2,2,2,2,2
4,0,1,1,2,0,3
2,2,5,2,0,0,5
1,0,1,1,4,0,9
4,2,0,2,0,1,5
2,2,1,2,1,2,2
1,9,1,1,1,0,0
1,1,1,2,1,0,6
5,1,2,2,0,1,5
4,3,2,0,0,2,7
1,1,2,1,7,5,10
1,2,3,1,3,4,1
0,0,2,0,1,2,8
3,42,1,1,1,0,4
1,10,0,3,2,2,10
2,3,1,5,3,3,3
1,1,4,2,0,1,1
1,2,10,2,0,0,6
1,1,1,6,0,1,1
2,1,5,2,4,2,20
0,2,5,1,2,1,2
2,2,2,0,2,0,9
0,2,0,0,2,2,11
6,1,2,0,7,1,1
3,0,2,1,2,2,1
1,1,1,0,1,2,1
1,1,2,0,2,1,15
1,0,1,2,1,1,10
0,1,2,5,1,5,0
0,0,3,1,3,2,1
7,0,1,0,2,3,0
8,2,2,2,0,3,4
10,4,1,3,2,0,1
2,4,1,2,1,2,2
2,1,6,1,1,2,1
1,0,1,1,5,2,6
2,1,1,1,2,1,6
1,2,1,2,2,1,19
2,1,2,0,0,6,8
1,1,3,1,2,5,20
2,1,1,1,1,1,18
2,2,2,3,1,1,1
2,1,1,1,1,2,2
2,2,0,1,2,1,14
4,1,2,0,1,0,3
2,15,2,0,2,1,13
0,5,2,0,4,2,2
0,1,1,0,2,0,1
4,2,2,0,3,2,3
1,0,1,6,1,0,9
0,0,2,1,5,5,7
3,0,0,1,2,2,3
8,1,2,1,2,1,1
57,1,8,1,2,2,3
29,1,2,1,1,0,2
6,2,2,1,2,1,1
3,1,0,5,4,1,4
2,2,1,6,1,0,4
2,2,1,2,1,0,13
4,3,3,1,1,1,2
3,9,2,3,1,2,8
3,2,1,2,4,1,14
1,1,0,1,2,2,1
2,2,1,1,2,0,2
2,2,2,0,0,1,1
0,1,5,1,0,0,0
2,0,3,2,2,1,0
6,1,1,0,1,1,1
15,1,1,2,2,0,1
1,1,3,2,1,2,17
1,0,7,2,0,0,16
0,5,2,1,1,2,1
1,1,1,0,1,2,5
1,1,1,0,8,6,4
2,4,11,2,2,2,9
0,1,4,2,3,1,2
3,1,1,1,1,1,5
5,3,1,2,0,2,4
5,2,0,0,0,0,0
2,0,4,2,3,4,8
0,2,3,1,1,1,8
1,1,4,0,2,1,1
4,2,2,5,1,2,1
11,2,0,2,4,2,1
3,8,2,1,4,1,18
1,3,5,1,1,1,12
2,1,3,2,1,0,8
2,0,1,0,1,3,5
4,1,1,2,1,0,1
4,0,0,2,2,1,0
2,2,5,0,4,2,16
1,1,3,2,0,2,1
2,1,0,7,0,6,1
0,1,2,2,1,4,3
2,1,12,2,2,1,2
1,2,2,1,2,1,11
1,0,1,2,2,1,5
3,1,0,2,0,1,2
11,2,2,5,2,2,8
2,5,4,2,4,0,2
2,1,2,0,2,7,2
0,1,2,0,1,2,8
6,1,6,1,1,2,11
4,1,4,0,2,2,1
1,2,0,1,1,0,9
9,2,1,1,1,0,5
3,3,5,0,3,0,0
0,3,3,0,1,1,4
6,0,1,1,2,1,18
2,0,0,1,1,1,4
1,1,1,2,5,5,0
5,3,1,1,1,2,2
1,2,2,3,5,1,34
2,1,0,0,1,0,1
1,2,2,1,1,2,3
0,2,1,1,0,1,1
5,2,2,3,0,1,2
5,5,6,1,4,1,18
2,2,16,1,3,5,3
3,1,2,1,1,1,2
3,2,2,11,2,0,0
4,43,1,5,1,1,9
1,14,11,1,1,2,3
1,6,6,0,0,2,5
1,2,2,1,0,2,14
2,0,2,1,7,1,0
1,1,1,1,1,0,6
5,0,4,3,1,1,0
1,1,3,2,1,0,5
2,2,1,0,1,1,1
0,2,1,2,1,1,0
2,1,2,1,3,0,16
1,1,1,1,1,0,3
2,1,0,1,0,1,0
1,1,0,1,2,2,1
0,1,2,1,1,0,1
12,0,2,3,0,1,13
5,9,0,1,2,1,7
1,3,6,2,2,1,5
2,2,1,3,1,1,1
1,0,1,2,0,1,4
4,1,3,2,1,3,18
4,1,1,2,6,0,20
1,4,2,2,5,1,3
1,2,6,1,1,7,14
1,8,2,1,0,4,8
9,2,0,0,2,0,1
8,0,0,0,0,3,2
1,4,1,0,9,1,5
1,0,3,2,4,1,2
0,1,0,0,1,1,7
1,3,1,1,6,1,2
2,2,2,3,0,2,4
1,2,2,1,1,1,1
2,4,4,1,0,0,11
1,7,5,1,6,2,11
2,2,1,3,2,3,5
0,4,1,2,2,1,2
2,7,2,1,1,2,2
3,3,4,2,3,2,11
0,0,3,1,1,1,17
90,2,4,1,1,1,2
27,0,1,2,3,1,3
7,2,1,1,0,1,1
1,4,1,4,1,3,4
0,6,1,1,0,1,15
3,1,5,1,1,2,16
0,1,3,2,6,1,5
5,5,2,8,10,1,4
2,1,1,3,2,2,12
4,0,3,2,11,1,1
1,7,0,1,7,0,2
1,3,2,1,13,2,1
1,4,2,1,5,3,1
1,2,1,0,5,2,1
1,0,10,2,1,2,10
7,6,5,1,3,0,6
3,5,1,2,7,0,1
1,5,1,1,8,2,0
0,1,1,2,1,7,5
1,2,2,0,8,2,17
7,2,1,0,48,1,11
3,2,0,1,6,2,3
2,2,0,4,11,0,3
1,5,1,0,3,4,7
0,4,6,1,1,1,10
2,5,4,2,29,4,2
3,1,4,1,9,1,4
1,1,1,2,4,0,4
0,4,0,8,1,2,1
2,2,0,1,8,7,4
6,3,1,1,9,3,1
5,3,2,0,5,1,6
2,3,1,2,2,0,2
1,3,1,2,5,1,2
1,1,3,1,7,1,4
1,5,1,1,1,0,7
1,8,2,0,6,2,9
2,2,1,2,3,5,3
1,0,2,0,8,1,1
3,6,8,1,10,1,3
3,4,15,0,3,1,4
4,2,2,1,22,0,8
0,0,1,2,6,2,17
1,1,0,6,13,1,3
0,6,1,4,1,1,5
2,2,3,2,3,1,2
1,1,5,1,1,1,10
0,9,1,2,24,0,3
1,1,2,1,3,0,1
2,2,2,1,16,1,0
3,1,2,2,3,2,3
1,1,8,3,13,2,1
5,1,13,4,21,6,3
1,1,1,3,4,3,3
0,7,1,0,5,0,1
1,12,2,8,6,1,2
1,6,2,6,4,2,11
2,3,1,1,9,1,3
0,1,6,1,4,2,15
1,1,1,5,14,2,4
19,1,5,1,16,2,2
2,8,6,2,5,2,6
2,3,1,0,6,1,2
1,6,2,1,19,0,4
1,1,1,1,4,1,3
2,4,0,0,1,5,1
1,0,4,2,4,5,5
1,4,1,3,22,1,3
2,24,4,2,34,0,7
3,42,1,2,13,3,1
2,5,0,8,20,1,3
3,1,1,2,9,2,2
1,2,8,0,7,2,2
1,5,2,1,0,0,2
2,9,3,2,5,2,32
2,6,2,5,55,2,5
6,6,2,1,5,0,2
1,1,5,1,2,2,1
2,10,3,1,22,1,5
6,2,1,0,3,2,17
16,8,0,0,25,1,2
4,4,2,1,10,1,2
1,0,11,2,2,1,1
0,2,0,0,7,3,32
1,0,4,2,25,1,10
0,10,1,4,9,2,3
1,4,9,1,13,1,25
14,2,2,1,3,2,2
1,7,1,1,2,1,2
1,9,0,1,5,2,2
2,6,1,1,31,2,6
0,6,6,5,3,2,6
5,8,4,2,1,1,4
2,4,2,2,22,6,2
1,1,4,0,72,1,2
1,2,2,2,23,2,21
5,5,8,0,31,1,2
4,14,4,2,5,1,2
2,13,2,1,24,1,5
9,5,1,0,3,2,2
2,7,1,1,34,8,1
4,5,1,1,20,2,3
9,7,1,1,2,0,6
2,7,2,3,5,2,1
1,2,0,0,12,1,9
2,1,27,0,4,2,2
0,6,5,1,2,2,6
60,1,2,7,21,1,4
46,1,2,4,31,0,2
13,1,8,3,3,8,0
5,2,2,1,40,1,7
2,9,0,1,16,1,10
0,3,0,0,2,1,8
2,12,0,2,11,1,2
1,3,1,1,18,2,1
1,3,18,1,2,1,2
2,3,3,2,48,3,18
1,13,6,1,61,1,2
2,6,5,9,5,1,2
1,2,2,1,3,1,0
10,1,0,2,13,1,1
3,0,3,1,5,2,0
4,8,6,1,2,1,0
6,1,6,1,0,2,1
2,0,7,1,18,0,1
0,5,2,2,31,1,1
0,3,1,50,22,3,0
8,23,1,6,8,1,2
3,2,4,1,2,5,8
1,6,12,2,1,1,3
1,3,6,0,42,5,2
1,0,8,2,9,2,1
4,0,4,2,5,1,13
1,1,3,15,11,1,2
1,3,3,31,7,2,1
1,5,2,5,4,0,6
4,3,1,1,13,1,2
1,13,2,2,2,2,4
3,4,1,1,5,0,4
1,5,2,1,14,0,1
5,6,23,1,22,1,2
2,3,4,2,2,0,2
3,1,2,1,6,1,1
2,10,7,3,15,1,0
8,1,16,1,6,3,1
2,1,2,64,9,3,1
0,0,1,10,2,6,1
0,1,3,1,4,1,2
0,6,7,5,3,0,12
10,2,3,20,12,0,2
1,1,1,7,17,1,1
1,1,0,32,2,6,0
2,4,13,31,6,2,12
8,2,2,2,8,3,5
7,17,6,13,8,0,0
2,5,2,2,21,1,0
1,1,1,22,9,1,7
1,1,8,2,2,0,8
2,0,3,2,13,1,1
1,13,7,3,16,1,1
0,6,12,2,2,11,1
1,2,7,9,6,1,1
10,4,2,30,19,2,0
5,0,0,4,3,1,2
4,2,10,2,15,2,2
0,1,33,1,1,3,1
2,0,5,9,30,3,1
1,7,9,46,18,1,0
3,1,13,15,7,6,1
3,0,1,5,10,1,5
3,1,1,2,4,2,2
0,0,0,22,1,10,5
1,9,9,137,8,1,2
1,21,6,5,15,1,1
2,32,22,15,9,8,2
2,2,7,128,2,2,2
0,2,3,13,3,1,9
1,6,1,2,6,1,1
1,7,1,0,0,1,1
4,6,14,54,17,1,0
6,5,8,30,11,1,1
1,2,30,2,8,9,1
1,0,6,91,2,5,3
0,5,0,31,3,0,0
0,3,19,57,3,3,2
3,5,4,4,26,16,1
1,6,18,1,5,2,1
1,3,41,116,2,36,2
1,7,6,5,0,5,4
3,17,10,10,11,3,1
5,2,1,2,7,22,27
1,1,50,12,2,5,4
1,10,26,98,13,36,4
1,4,3,7,2,25,0
8,6,20,2,37,9,6
5,3,20,24,4,4,1
6,5,26,23,1,15,1
2,3,9,6,18,111,3
1,4,5,151,10,39,2
4,21,22,33,4,3,2
1,5,24,4,2,76,11
0,2,22,36,13,71,3
0,1,7,10,4,22,2
5,0,50,86,1,159,0
9,6,44,8,7,37,0
3,35,14,94,10,108,1
1,27,11,20,13,6,1
7,10,53,46,6,137,1
6,7,4,7,4,19,2
1,6,2,1,7,1,0
3,2,20,69,3,142,2
0,1,8,48,8,36,1
1,52,8,62,1,84,7
9,9,57,5,16,380,1
11,3,27,2,9,25,1
67,5,22,26,6,218,1
17,2,54,33,1,62,2
2,2,12,35,2,111,0
1,1,87,24,21,100,3
1,1,11,30,9,171,1
17,1,83,65,3,88,1
47,5,9,16,2,5,1
28,60,57,3,21,92,0
24,6,5,0,8,98,2
1,2,31,37,10,57,5
1,10,150,93,3,6,2
0,5,5,9,5,190,1
1,2,1,1,18,50,1
49,23,133,87,3,287,2
19,2,7,49,2,41,2
1,1,36,4,5,84,0
1,15,136,143,2,153,2
0,7,4,9,8,88,13
4,9,85,26,27,187,2
49,2,14,25,15,245,0
13,0,30,51,2,9,2
9,9,152,112,4,85,1
7,16,21,3,2,59,0
1,14,4,2,24,251,0
0,7,9,75,14,32,0
19,2,67,59,10,22,1
45,3,10,4,1,159,1
3,1,85,51,3,8,1
40,0,36,6,1,58,1
10,1,2,112,2,164,1
0,12,56,9,1,40,0
3,6,5,3,11,23,1
35,1,59,13,3,75,0
11,14,22,105,13,21,1
2,41,181,23,7,103,3
30,15,25,2,3,117,1
6,1,8,2,2,2,0
1,3,1,1,5,132,0
5,1,135,18,14,22,1
5,2,35,3,3,98,2
9,3,130,29,1,42,2
1,19,10,3,10,13,1
17,5,5,74,18,180,1
65,20,35,50,2,10,1
59,11,101,5,11,50,1
6,1,43,1,2,49,1
3,73,40,78,1,17,2
2,13,297,8,12,10,2
1,0,10,2,6,65,2
1,19,221,37,4,29,1
34,1,91,101,0,34,2
7,9,7,5,1,106,2
8,6,19,2,20,92,2
2,3,19,39,3,5,1
0,15,110,35,13,39,1
32,24,12,4,5,105,1
8,3,137,38,6,20,0
19,9,23,18,8,18,2
12,62,25,7,11,20,1
2,2,83,125,2,104,0
8,16,10,21,1,16,0
15,54,4,8,32,7,3
47,11,8,2,8,32,3
4,7,29,7,14,24,1
1,3,9,13,3,48,1
3,18,30,2,3,16,3
25,2,23,20,3,6,1
2,28,2,3,28,173,1
18,3,42,268,5,16,1
2,16,4,10,0,18,1
2,45,47,1,6,124,3
14,4,84,69,8,88,2
6,5,9,19,8,14,2
28,2,4,121,6,13,1
32,24,9,4,1,73,6
3,7,32,4,7,26,1
5,3,32,0,25,8,2
54,4,50,91,9,59,2
6,46,6,26,0,14,0
1,8,110,110,14,164,1
3,37,7,55,2,15,0
18,25,39,22,12,99,1
14,3,4,3,13,10,0
5,7,111,18,2,3,34
8,48,25,24,5,5,12
3,7,8,4,16,37,1
6,5,75,51,12,18,3
19,14,24,15,4,29,1
2,2,23,53,1,162,3
2,45,44,6,20,42,1
84,39,4,39,9,22,2
31,4,41,69,8,228,2
2,7,23,3,9,13,2
0,59,44,155,2,51,2
1,4,2,38,1,53,1
9,2,54,49,39,19,1
40,43,5,13,6,2,2
43,61,122,8,5,58,0
50,39,9,37,7,12,2
6,7,35,2,5,22,2
5,3,2,6,26,1,3
9,1,21,29,2,87,1
0,48,19,4,1,36,1
8,14,25,19,16,41,2
2,12,13,23,2,46,1
9,33,54,2,5,83,4
17,3,23,126,14,8,5
22,0,2,27,3,66,2
2,1,95,23,2,28,1
15,41,5,79,3,27,2
22,78,2,19,11,75,2
3,8,38,2,4,23,1
1,3,13,30,2,4,0
1,1,6,17,3,5,1
0,2,20,8,5,84,2
39,34,15,6,8,74,2
30,37,15,132,3,81,0
11,139,6,22,1,73,2
2,6,1,1,0,11,3
66,9,115,75,23,120,1
28,4,7,48,29,20,1
2,41,26,3,4,13,1
5,12,14,26,1,11,2
1,6,57,2,1,25,2
20,18,26,10,4,86,2
3,2,2,96,2,5,1
2,61,119,21,11,54,0
3,37,33,13,12,6,2
1,7,15,1,2,6,2
34,10,34,67,13,56,0
14,1,68,16,2,11,0
3,29,4,10,2,79,0
1,29,1,19,12,20,0
32,9,17,3,6,91,2
34,2,44,0,1,26,4
3,3,9,153,2,39,2
0,31,21,11,17,59,0
2,10,7,5,27,9,0
34,13,50,49,6,114,1
47,21,5,96,4,26,0
3,5,32,5,17,11,0
2,49,3,4,1,74,1
21,19,13,19,0,26,2
3,6,21,13,0,11,1
70,33,40,6,11,6,1
30,21,27,2,2,2,2
15,5,5,105,3,56,1
10,3,7,3,5,29,2
1,44,2,2,2,8,3
1,18,26,23,4,1,2
30,2,15,15,1,109,1
4,2,128,9,3,35,6
20,55,3,2,13,7,2
2,31,15,7,2,33,3
17,7,44,9,2,22,2
4,25,50,26,19,7,1
2,3,43,10,4,118,1
2,21,4,25,1,6,1
2,24,5,86,0,30,1
4,2,117,16,2,46,0
17,23,6,64,4,4,0
2,3,30,5,22,18,0
36,37,12,2,24,100,1
4,6,45,64,4,72,4
13,5,98,8,1,17,2
28,3,24,53,3,27,2
3,45,3,12,7,29,1
1,20,39,2,6,30,1
89,1,28,1,3,26,1
21,6,20,1,15,18,1
1,13,82,16,4,18,1
5,3,29,36,1,41,1
3,9,5,44,7,18,5
1,7,8,17,12,45,3
5,1,18,1,7,37,1
33,18,37,73,2,15,1
6,8,29,8,1,14,2
1,9,2,24,6,38,1
2,1,30,66,4,45,0
6,55,28,10,0,12,0
1,6,21,33,10,13,0
18,35,17,13,5,21,1
3,14,7,5,2,17,1
0,11,31,4,5,13,1
0,2,24,2,4,22,2
16,12,21,1,2,44,2
10,8,42,8,25,101,0
9,5,57,77,1,149,1
24,1,17,53,5,19,5
15,3,13,8,1,160,1
6,29,25,3,1,13,2
3,7,33,4,7,48,0
25,1,41,1,3,13,30
45,45,15,17,2,4,7
12,31,5,10,19,41,4
18,4,79,1,9,9,2
21,3,12,1,1,2,0
1,9,20,9,2,6,1
2,5,4,5,5,38,1
34,8,1,14,2,13,0
20,6,5,73,10,23,2
12,1,50,9,12,26,1
4,37,56,0,2,16,3
2,8,72,7,5,10,3
1,11,5,86,0,22,2
2,5,14,9,6,9,1
6,5,17,2,4,24,1
29,19,7,1,2,8,1
4,6,6,104,15,50,1
1,9,38,14,9,4,1
1,2,43,2,0,89,0
1,2,11,2,10,48,3
8,15,17,10,3,36,1
18,32,7,41,13,30,1
11,9,27,29,4,9,2
9,7,8,20,2,55,1
1,18,5,2,0,10,1
2,9,20,2,2,15,7
51,10,63,34,9,38,3
32,1,32,6,5,70,0
1,44,33,17,2,17,1
17,11,118,25,21,9,1
3,3,10,22,31,17,2
4,3,3,89,2,183,1
7,11,230,10,1,6,6
14,11,8,32,4,19,0
2,3,71,49,9,42,1
11,45,31,13,2,8,0
5,10,8,3,1,3,1
2,11,23,1,0,1,2
22,9,19,31,17,109,2
2,50,46,4,8,18,0
5,4,15,6,1,13,2
59,59,28,60,2,35,2
9,6,1,4,2,224,0
1,28,40,7,2,16,1
5,20,141,61,1,73,1
4,4,50,13,2,109,1
26,11,4,2,14,6,2
2,15,33,2,7,35,3
2,1,21,30,11,11,0
2,37,8,14,4,41,0
31,7,71,35,1,11,2
23,2,13,2,0,33,0
2,18,11,43,6,6,2
1,6,18,16,12,1,1
18,13,27,6,2,79,0
4,7,17,26,7,78,0
21,50,3,3,1,7,2
8,10,42,35,0,3,1
1,13,7,12,1,11,1
23,35,21,3,9,4,2
8,14,13,35,15,26,0
11,3,57,26,2,41,1
16,1,13,8,5,79,2
5,11,8,6,7,5,2
2,49,2,55,0,3,0
7,4,12,24,20,7,2
10,2,22,9,13,70,0
0,24,27,1,4,21,1
1,10,20,36,10,100,1
3,2,23,46,11,9,2
32,5,53,14,3,11,2
21,24,101,47,0,14,1
3,2,33,6,15,33,1
1,17,14,20,7,28,1
23,3,9,8,5,15,2
17,10,2,108,5,56,2
6,17,1,8,1,5,2
1,3,80,23,1,42,0
1,1,12,22,9,3,2
12,4,31,3,2,76,1
11,3,32,12,13,19,1
1,40,25,2,0,10,0
46,19,10,7,4,21,1
6,19,37,113,3,33,1
14,3,8,3,1,121,0
14,2,13,0,27,22,4
6,22,6,0,7,6,2
3,6,7,143,5,53,1
2,3,12,12,2,3,5
18,5,19,6,3,22,0
40,2,9,59,0,22,3
6,62,26,23,12,3,1
2,18,9,4,3,75,1
31,3,25,2,0,12,2
41,6,25,55,7,22,4
5,2,6,10,2,6,1
0,5,32,8,11,24,2
85,2,13,8,18,64,1
49,8,23,13,1,5,0
7,16,2,4,2,19,5
9,6,23,5,3,19,1
7,1,21,0,1,19,4
2,46,23,128,3,2,2
17,9,12,9,1,94,1
7,3,6,46,11,11,2
3,16,32,8,4,3,1
20,14,30,13,3,10,0
1,3,50,3,5,17,2
61,10,10,39,3,45,0
5,11,61,10,0,47,34
15,0,7,5,7,12,6
4,3,24,24,13,9,8
7,3,115,49,1,89,3
7,23,6,75,1,12,2
13,10,14,20,2,8,2
4,14,62,2,6,42,1
3,5,6,1,12,3,1
14,1,32,4,2,10,0
4,20,25,17,1,4,0
4,28,2,22,7,11,1
30,3,27,18,18,137,1
11,23,38,2,2,4,0
7,2,3,6,11,85,8
2,13,6,11,2,32,3
12,23,29,15,0,9,1
20,2,13,2,1,37,2
1,3,5,101,5,66,1
2,23,18,19,7,51,1
0,4,11,6,4,35,0
3,18,44,3,8,5,1
3,6,33,0,10,40,2
3,15,23,68,2,68,1
4,3,10,26,1,4,0
18,35,66,3,1,14,1
12,13,4,2,27,56,1
1,2,11,34,5,21,1
7,9,109,17,2,33,1
7,32,4,12,2,7,0
1,3,20,1,18,3,2
1,62,26,86,2,2,3
15,4,30,13,1,48,2
5,1,2,43,1,70,2
24,11,20,11,13,10,1
3,18,21,1,5,13,1
20,2,24,23,8,23,3
7,2,39,37,3,51,2
5,9,5,24,0,7,2
2,18,59,2,0,13,0
36,11,6,72,16,97,8
16,3,19,19,1,6,1
3,46,84,13,1,2,2
12,24,5,14,5,15,2
0,7,24,5,13,42,0
20,1,2,3,3,7,2
1,55,48,26,2,5,2
1,31,12,5,1,117,1
1,2,19,26,9,8,1
8,2,50,4,17,17,1
35,8,4,1,9,70,2
8,29,17,24,1,121,3
9,3,21,6,2,4,3
2,15,14,1,14,4,1
0,27,56,1,8,10,2
14,1,11,52,3,27,0
25,1,36,23,2,28,0
6,22,25,4,4,8,2
3,2,2,40,16,2,6
2,11,27,5,4,8,1
1,3,37,1,2,162,1
30,9,9,1,35,11,1
4,2,29,50,6,26,2
2,3,4,45,1,68,1
1,27,2,10,21,5,2
6,13,46,18,4,35,1
12,16,12,3,3,5,5
2,6,3,1,2,54,2
33,0,31,4,14,17,1
3,68,18,53,10,16,1
0,6,47,7,1,10,1
39,3,18,15,2,43,3
30,19,34,11,3,26,2
5,5,10,12,24,2,3
1,13,5,41,2,33,1
13,8,36,2,6,39,0
11,4,6,0,11,17,1
1,3,43,22,3,69,0
13,1,15,24,4,3,1
1,33,29,8,1,2,1
1,8,10,6,3,70,2
6,4,1,28,2,57,0
33,13,46,10,4,15,6
8,9,22,1,24,3,4
3,2,8,18,5,0,1
2,25,86,2,1,13,2
2,21,5,56,1,72,1
79,11,65,10,1,29,2
80,2,9,19,5,1,5
13,1,6,2,3,3,6
3,0,32,3,4,42,2
5,44,27,1,0,2,1
7,16,8,59,3,41,1
48,2,7,39,9,9,2
6,5,17,6,4,54,1
1,5,3,0,8,35,0
1,8,23,42,2,18,1
9,10,3,32,6,11,1
17,4,59,7,9,9,2
11,16,17,7,2,21,1
3,23,45,8,22,1,1
1,2,14,6,2,31,1
8,11,8,6,6,33,5
10,4,11,64,2,32,2
1,26,54,17,2,10,2
5,5,13,14,1,4,2
2,2,17,0,10,25,2
2,0,77,27,10,52,1
0,1,4,4,1,14,2
52,13,29,1,1,29,4
12,9,13,21,20,84,33
16,18,30,10,10,5,6
2,1,3,3,1,7,2
2,1,56,1,1,52,2
10,1,8,0,4,18,0
13,53,2,37,1,50,1
1,4,27,14,1,11,0
13,1,31,45,2,2,1
6,8,6,13,7,81,1
2,5,19,5,2,14,0
13,2,51,10,4,2,1
4,8,6,15,1,50,0
3,14,11,7,4,25,4
2,23,31,19,2,4,0
1,3,8,12,3,2,2
26,6,24,28,8,11,1
37,4,28,5,3,89,1
2,2,14,9,21,17,2
2,7,11,41,3,7,1
2,1,7,25,2,2,1
2,19,20,3,1,42,0
3,13,22,2,16,99,5
4,9,10,0,3,8,2
16,2,6,26,5,14,0
1,0,115,4,6,4,0
3,11,5,54,2,26,2
13,3,6,10,1,60,1
11,3,41,12,2,7,2
15,11,1,14,7,12,1
2,8,45,5,4,3,0
2,41,21,15,5,23,1
63,10,24,8,2,80,1
6,5,2,3,0,19,5
10,22,32,32,9,10,1
24,4,35,16,21,15,1
2,5,6,2,3,25,4
0,6,18,1,1,68,3
0,4,18,17,3,37,1
23,1,33,11,1,4,1
5,4,46,20,13,29,1
0,24,4,7,3,4,2
4,3,16,0,1,64,0
50,1,16,26,0,7,2
8,7,32,12,16,82,0
3,7,21,15,3,7,1
6,3,4,7,2,33,11
1,3,11,1,7,23,0
7,13,29,18,4,13,2
21,19,24,8,6,24,1
1,15,19,25,1,15,1
6,4,25,4,16,4,2
1,7,7,13,2,42,1
4,5,2,8,5,17,2
13,1,28,10,4,2,0
4,32,26,81,19,21,2
1,7,33,31,4,25,2
1,3,2,2,10,30,6
21,2,25,1,5,5,2
5,8,18,2,1,1,1
2,8,57,5,0,28,3
2,2,4,3,8,23,1
9,20,37,33,1,11,2
5,3,5,9,13,55,1
0,3,22,11,4,20,2
1,12,8,7,3,26,0
20,4,3,13,9,75,1
19,15,26,4,2,160,2
8,2,4,2,5,5,1
1,1,4,22,3,71,1
4,17,23,8,2,11,11
1,7,64,22,1,125,2
7,2,7,21,7,6,1
31,2,18,1,7,46,1
12,23,4,21,6,41,3
2,1,20,1,9,44,1
1,5,35,2,2,10,1
64,3,2,73,5,25,2
39,2,27,19,14,20,1
9,63,15,7,7,52,2
15,5,20,2,1,15,0
1,3,2,23,22,53,2
1,10,3,4,4,20,1
27,1,20,47,5,6,1
5,1,13,4,13,4,3
2,1,2,30,3,15,2
2,30,41,3,3,29,0
4,2,34,11,4,23,0
5,21,115,14,4,36,2
6,6,16,17,2,62,1
25,2,3,5,7,4,2
6,9,20,9,23,19,1
32,7,30,1,1,18,2
2,2,10,3,9,15,1
0,25,14,61,4,47,1
8,9,37,9,7,22,2
2,1,34,1,16,12,1
7,2,2,10,2,66,0
1,15,46,52,2,8,2
10,5,5,17,2,26,1
8,1,31,2,6,47,1
9,11,6,39,2,113,2
3,2,6,11,2,4,0
14,17,38,6,7,19,1
8,9,7,25,31,32,2
36,3,35,45,6,8,0
31,2,27,9,2,115,1
6,15,22,2,12,12,3
1,19,19,1,8,2,3
23,0,110,52,2,13,24
4,16,28,4,1,69,16
16,11,23,6,20,50,1
2,5,36,13,6,24,3
1,9,4,4,0,4,1
5,2,8,11,0,25,1
16,2,6,22,2,67,0
17,3,8,10,32,20,2
1,1,38,2,8,11,0
1,51,18,27,2,68,2
0,3,6,43,2,8,2
3,1,7,3,3,6,0
21,2,10,2,3,64,1
2,11,3,6,8,4,2
22,1,155,22,3,5,5
4,14,6,20,9,7,5
0,9,15,4,4,33,2
14,3,13,5,4,9,0
11,1,53,2,2,78,2
58,5,6,4,2,7,17
4,6,14,27,1,39,3
1,3,42,45,2,28,2
17,47,43,4,20,3,1
2,33,26,13,25,124,1
2,8,11,2,3,26,2
4,32,20,38,1,50,1
33,3,6,5,0,14,1
3,3,0,17,0,12,2
6,1,19,38,2,53,1
2,48,34,27,4,89,2
6,6,59,6,13,54,2
12,7,12,2,15,9,2
3,11,2,5,2,15,2
1,8,39,36,11,20,2
2,6,19,6,5,1,1
2,1,23,1,89,22,1
3,43,10,4,15,9,0
4,5,3,10,2,24,1
17,4,10,73,2,1,1
2,3,24,8,4,60,2
7,1,8,20,12,179,0
3,5,13,58,5,6,1
0,6,40,14,3,25,1
77,2,22,11,3,28,2
15,0,75,15,1,64,8
3,11,8,9,2,10,1
0,0,14,61,17,79,1
2,7,6,14,21,9,0
2,20,17,4,19,33,2
22,6,23,2,29,2,1
23,11,19,0,2,50,4
1,0,19,29,28,40,1
17,40,29,42,5,23,11
3,11,123,5,6,65,2
0,3,7,0,10,9,0
69,9,18,28,16,8,2
10,3,14,56,21,69,1
1,19,54,8,9,95,0
3,1,21,70,1,7,2
3,1,6,4,1,17,1
0,49,32,43,2,60,11
27,7,31,12,34,11,3
8,2,25,4,47,25,2
1,4,2,13,5,21,1
2,2,8,26,6,32,1
2,2,71,9,8,10,1
2,7,25,17,4,71,3
109,3,33,9,18,30,1
23,4,18,1,1,69,1
10,10,3,39,26,7,2
5,1,7,35,17,28,3
8,8,68,3,79,126,2
60,3,10,3,6,21,1
4,0,10,16,1,62,0
10,13,22,22,7,7,0
9,14,5,9,4,4,0
30,9,14,1,21,18,4
7,4,11,7,49,71,4
7,7,3,14,32,7,1
1,7,2,15,4,18,2
2,0,12,12,0,43,2
2,4,23,7,1,79,5
1,9,15,10,38,21,3
28,29,9,11,38,4,2
17,2,8,33,24,50,4
10,3,24,10,13,52,4
2,8,9,31,2,3,1
2,3,4,5,16,3,3
36,9,6,12,12,67,2
7,6,75,18,2,13,0
18,21,4,2,27,19,1
2,3,26,1,62,5,1
5,7,24,15,12,3,1
1,10,7,3,23,36,2
6,1,38,6,1,23,2
4,2,6,10,2,11,3
4,24,29,34,38,19,2
4,8,5,21,18,8,1
9,2,23,9,65,6,0
16,2,5,3,6,10,0
6,40,29,2,2,6,2
4,4,21,30,66,97,4
31,4,35,2,11,9,1
4,3,76,15,157,33,2
1,3,5,11,19,25,2
2,2,31,4,1,21,1
14,3,1,23,44,14,2
17,10,19,3,14,2,5
6,2,44,81,24,0,31
2,0,12,9,25,41,3
2,8,41,18,42,25,2
18,4,7,5,19,2,2
4,0,4,14,19,18,2
1,9,14,10,15,87,4
36,10,30,13,9,25,3
7,13,7,2,34,9,2
3,5,1,0,30,24,3
20,1,38,1,91,5,1
2,1,28,46,29,8,6
1,25,1,8,17,56,1
3,3,2,6,29,58,0
0,15,18,4,17,49,0
5,12,33,13,55,7,1
27,26,3,23,20,10,0
7,11,9,6,148,100,2
2,3,2,35,12,16,1
2,15,1,4,27,14,2
2,9,0,16,32,2,0
14,2,13,12,47,159,1
2,11,11,6,188,35,1
22,38,8,4,23,44,2
2,4,20,8,22,8,2
2,1,12,33,14,9,2
3,4,2,5,21,33,3
54,1,2,4,38,33,7
9,5,4,4,21,23,3
6,17,9,3,55,14,1
5,45,1,3,7,10,0
1,5,3,7,18,11,1
0,7,5,3,26,8,2
9,1,5,15,82,11,1
12,7,4,5,28,129,2
5,26,3,3,30,4,0
7,6,2,23,32,12,0
2,30,4,8,5,57,10
0,3,3,2,10,4,1
36,1,6,0,43,31,1
3,33,2,15,12,5,1
8,5,1,7,4,13,0
12,3,10,2,9,2,1
2,7,0,3,59,49,1
30,2,2,35,8,6,2
7,1,4,4,5,1,0
1,8,5,8,4,14,0
21,2,6,9,18,15,0
8,3,2,5,23,1,4
3,4,8,1,2,2,1
0,4,31,2,25,12,2
1,2,3,2,7,2,0
2,32,1,1,46,33,5
5,4,3,1,4,3,1
3,6,4,5,44,2,2
17,10,2,6,35,2,2
14,1,2,4,8,13,2
3,24,10,1,7,1,0
2,2,33,2,9,2,1
10,52,5,15,35,5,5
89,8,9,1,7,2,1
25,2,2,6,1,25,1
2,2,2,2,1,9,1
16,11,0,3,41,37,1
3,4,1,2,10,6,1
2,9,1,1,7,4,2
42,4,2,2,2,0,1
11,1,4,0,40,10,0
4,18,1,5,4,4,0
0,1,0,3,11,11,1
1,4,0,2,14,6,4
2,2,1,3,5,1,2
7,29,0,7,8,6,3
23,9,30,18,8,2,1
7,11,46,2,4,1,2
2,1,4,3,9,2,2
2,5,3,0,3,1,2
17,2,1,9,5,6,0
27,28,0,4,14,2,2
3,13,2,13,19,1,2
1,2,2,5,6,2,2
6,17,2,4,11,1,0
16,4,1,7,16,6,0
4,3,9,15,11,3,1
23,8,19,2,4,10,2
4,6,11,1,2,1,3
16,1,2,1,2,2,1
4,1,1,2,7,10,2
0,37,1,18,30,6,2
26,4,4,3,2,4,1
11,10,17,1,3,0,1
5,1,8,1,6,17,2
9,3,2,1,53,54,1
4,4,1,2,5,6,3
9,1,1,29,4,2,2
5,17,2,2,6,5,5
1,1,1,2,38,2,5
16,4,3,2,24,0,1
7,70,1,1,5,3,0
28,5,0,1,3,3,2
1,1,2,2,22,2,1
2,1,31,3,30,0,1
12,11,33,2,2,32,1
5,0,3,2,1,3,1
2,0,26,1,4,1,1
17,1,2,1,4,5,0
5,9,2,1,4,40,0
1,7,4,2,34,4,2
1,3,14,0,4,2,2
21,3,0,2,18,1,9
2,19,7,0,7,1,29
3,4,2,1,5,2,8
11,14,1,2,13,7,2
11,2,1,1,6,6,0
3,1,2,1,14,23,2
2,43,2,6,3,2,0
30,25,2,2,1,2,1
33,10,16,0,18,5,0
5,6,3,3,50,1,0
2,6,2,1,7,2,0
6,5,0,6,2,21,4
2,3,0,3,6,2,3
1,3,0,4,14,1,1
5,1,1,2,1,54,1
0,11,2,1,18,10,2
15,2,1,1,3,1,0
10,4,1,5,45,5,1
34,2,0,2,6,1,1
3,6,1,2,1,2,9
3,37,2,2,0,1,1
15,3,13,2,10,2,2
22,10,2,3,4,2,0
2,3,0,13,15,1,1
7,4,1,1,6,2,2
1,2,2,1,2,1,2
11,1,1,1,12,2,4
7,8,2,2,15,7,2
3,2,6,1,6,2,2
1,0,12,1,4,1,1
7,4,1,1,3,1,0
27,2,2,2,14,1,0
23,13,2,1,12,4,6
25,3,1,3,4,1,2
28,3,11,0,8,2,3
3,3,0,0,13,4,12
2,2,1,9,2,1,1
3,6,13,2,6,1,1
31,4,5,0,16,1,2
4,3,2,1,7,0,1
1,0,2,0,16,1,1
18,2,4,11,2,31,1
3,0,8,21,7,4,2
19,0,9,4,14,1,2
5,4,4,0,5,15,3
3,14,2,3,5,3,2
0,4,2,1,1,1,0
26,2,4,2,10,7,1
64,1,1,1,23,5,1
13,0,2,1,7,2,1
7,1,3,1,7,6,1
60,1,3,1,9,25,3
6,7,2,1,4,3,1
6,27,1,1,12,6,0
15,10,8,1,19,2,2
2,1,4,5,5,1,0
0,2,0,5,7,3,0
26,4,4,2,14,2,3
6,11,4,2,4,1,2
12,4,5,1,16,3,2
8,3,3,3,5,14,1
2,2,0,19,18,7,0
1,1,4,2,6,1,6
2,2,0,1,2,2,9
68,5,2,0,11,2,1
5,30,1,1,1,2,2
12,7,5,20,38,0,1
2,1,1,3,21,5,9
10,1,4,1,3,18,3
6,2,2,0,6,3,1
9,21,6,1,1,11,2
1,1,2,3,7,3,0
2,9,3,0,3,1,3
31,22,2,2,3,2,7
5,2,2,21,8,2,1
1,2,1,2,12,3,0
1,1,5,2,3,1,3
35,1,6,1,7,7,1
8,67,3,11,2,22,1
2,8,1,3,5,2,2
7,6,2,1,43,8,0
4,2,7,1,9,1,1
0,4,4,0,1,1,0
1,3,3,1,8,3,0
30,1,9,1,2,4,0
22,4,4,6,5,5,2
6,0,3,2,19,3,0
3,18,2,11,3,3,0
1,10,0,1,6,3,7
0,1,0,1,6,1,5
19,0,1,7,18,0,4
31,6,2,2,3,7,2
13,3,5,3,4,13,0
0,13,2,1,13,4,0
7,0,7,1,5,0,0
2,1,1,1,2,5,0
12,6,2,0,20,3,6
7,3,1,4,4,2,7
7,7,2,2,1,0,1
3,1,2,3,1,9,2
8,1,10,2,7,43,0
20,3,2,0,8,8,1
6,2,2,2,4,0,1
5,4,3,14,7,2,2
4,1,1,7,2,4,1
2,2,1,1,1,5,2
35,3,1,1,8,4,1
4,2,1,1,4,7,0
0,6,1,3,4,2,3
0,5,2,2,3,2,25
3,36,0,0,5,1,16
4,7,2,8,5,5,9
1,3,1,4,8,3,3
3,0,2,2,13,1,1
8,8,4,1,9,1,2
19,3,0,1,10,0,2
3,2,2,2,3,0,0
2,0,2,0,1,0,1
14,2,0,6,4,4,0
3,1,10,4,26,21,0
1,5,6,1,6,3,2
1,1,2,1,1,0,2
4,0,1,0,3,4,2
24,1,9,2,16,9,0
9,1,3,1,3,2,2
2,8,1,1,15,2,5
3,7,4,8,5,2,2
2,1,2,0,4,13,2
2,2,8,2,1,2,1
2,0,1,1,2,2,2
1,2,0,1,1,15,2
14,1,1,1,12,3,1
2,1,1,1,6,1,2
11,5,6,2,27,1,2
3,2,1,4,3,2,1
1,3,0,2,0,2,2
0,3,2,2,5,11,1
11,2,6,1,9,9,1
7,1,2,1,5,3,0
6,1,2,6,5,1,2
2,0,3,1,4,1,2
2,1,1,8,1,1,1
3,11,7,4,22,9,1
11,2,2,2,3,2,0
3,5,3,1,1,0,1
1,2,5,2,6,12,0
2,7,2,2,1,2,1
1,4,2,0,4,2,0
81,2,0,5,0,0,0
56,1,5,3,10,0,1
6,6,6,5,6,0,1
2,2,2,2,8,12,3
10,7,2,2,2,2,5
7,1,4,7,2,2,3
2,1,5,4,5,0,1
1,0,3,0,21,3,3
0,4,2,0,6,1,12
2,4,0,1,2,4,3
16,2,1,0,15,1,0
2,1,3,0,4,2,2
2,0,7,10,2,2,1
1,3,2,5,5,5,10
2,10,0,4,5,4,2
1,2,2,0,17,2,2
5,2,8,0,41,2,1
2,3,3,1,6,2,0
12,1,0,0,6,0,6
16,0,0,2,2,0,6
3,0,2,15,8,2,1
1,0,6,2,3,19,1
0,2,1,2,4,12,2
0,7,1,1,4,2,1
1,2,0,6,2,2,1
11,2,1,7,2,4,5
2,2,2,2,16,0,2
2,0,1,0,2,1,2
7,3,3,1,1,2,2
5,0,1,2,3,15,5
1,1,0,10,2,2,1
1,2,1,6,1,2,0
0,14,1,4,29,1,1
1,2,1,2,9,26,0
0,2,2,1,2,2,2
2,2,6,0,3,3,0
1,3,2,0,10,2,0
1,8,0,2,3,1,8
0,2,2,0,27,1,1
14,0,6,2,2,5,1
4,0,2,9,2,1,0
8,0,1,6,1,1,11
0,1,0,2,6,12,3
0,8,1,0,17,3,1
3,6,0,3,2,1,1
1,8,1,5,0,1,4
5,2,1,1,6,2,3
8,1,1,2,2,2,1
11,0,2,1,4,1,1
1,1,3,2,2,0,2
1,3,2,1,0,28,6
1,3,0,2,29,3,1
2,3,0,0,5,5,1
9,2,4,2,1,3,1
2,3,1,4,16,2,1
8,9,2,3,3,2,1
6,2,3,0,8,1,1
4,0,2,4,13,7,0
1,2,1,1,2,4,1
1,2,6,0,1,1,2
2,1,1,6,14,1,2
1,1,1,2,6,2,1
4,1,4,0,3,2,1
4,1,2,0,5,5,1
2,14,4,1,25,4,1
0,3,2,6,6,4,1
1,3,2,2,2,4,2
14,2,1,3,6,1,5
3,1,1,1,2,9,2
2,32,1,0,0,10,32
2,24,1,1,3,3,11
1,9,1,1,6,2,4
1,3,1,13,10,1,1
2,0,1,6,2,1,0
15,0,1,2,0,2,2
2,2,5,2,0,5,3
6,6,9,2,3,6,1
5,5,1,0,7,4,3
4,2,10,2,2,0,2
1,2,1,1,2,1,2
3,2,1,0,11,4,1
2,1,3,9,7,3,3
3,17,2,2,1,2,7
4,4,1,2,1,0,3
1,0,0,1,10,1,2
2,9,5,1,21,0,0
1,1,4,0,4,2,3
4,1,3,2,2,1,2
3,0,0,12,2,1,1
1,8,1,2,4,0,1
10,1,2,1,3,9,0
1,1,2,3,4,2,16
2,2,5,2,2,2,3
4,5,1,1,8,0,2
2,2,1,0,2,1,0
4,10,6,0,4,0,0
1,2,2,5,63,19,2
2,2,1,7,5,3,1
6,1,9,6,2,2,1
1,1,3,2,2,1,2
2,1,3,0,2,0,1
4,1,2,0,8,3,1
5,1,1,9,7,1,6
2,1,1,1,2,2,2
2,0,4,2,1,2,0
9,4,0,2,1,8,0
77,8,4,5,2,1,1
22,1,5,13,19,0,0
4,3,3,2,1,1,2
5,4,1,2,1,3,1
0,0,1,2,24,4,1
0,1,4,16,3,1,0
0,1,2,1,10,2,5
16,1,1,1,2,2,2
3,2,6,2,1,7,1
0,0,3,1,18,9,2
2,1,3,4,5,8,2
3,0,1,4,8,2,0
2,2,1,2,1,1,2
1,23,6,5,2,0,2
2,2,3,2,2,3,5
2,1,1,3,1,6,5
7,1,0,1,8,2,2
9,2,1,3,16,3,0
13,1,5,8,5,2,1
6,0,1,2,7,1,3
1,2,3,4,2,2,3
0,3,3,6,10,1,1
2,1,1,0,7,0,0
1,2,7,1,3,2,1
3,1,1,1,7,1,1
4,2,0,7,5,8,4
5,0,8,3,8,2,0
3,1,6,0,7,12,2
2,6,2,12,5,2,1
3,3,8,5,3,5,4
2,2,2,3,19,4,1
1,3,0,1,3,0,1
0,2,2,0,8,3,2
2,12,1,3,4,1,1
4,2,1,2,4,9,1
2,0,0,0,2,1,1
2,0,8,2,1,3,2
4,1,9,4,3,1,0
1,1,2,14,18,0,1
2,1,1,2,9,3,1
6,1,1,4,1,1,5
10,6,2,2,14,1,4
3,15,1,2,2,2,2
1,2,2,1,9,1,0
1,1,3,1,21,3,1
3,0,1,1,1,5,9
1,1,2,2,8,0,3
1,3,2,13,1,3,1
3,2,3,0,2,13,0
12,2,2,0,6,3,4
3,3,2,0,10,1,2
1,1,2,1,1,6,2
2,7,0,1,1,1,0
5,5,2,18,4,12,3
15,4,4,2,11,2,1
1,2,1,1,1,1,1
1,1,1,3,6,4,1
1,0,2,1,15,3,5
2,0,6,1,3,2,1
3,6,1,0,9,1,2
11,5,3,5,5,9,4
2,0,3,11,6,5,1
3,1,1,1,7,2,1
1,1,1,4,0,2,1
1,1,5,2,3,24,0
1,0,3,3,11,10,2
1,0,0,0,1,0,2
2,11,1,0,1,2,3
0,2,2,0,23,1,0
7,5,1,2,4,1,1
3,55,2,14,2,8,1
2,22,3,3,2,12,23
4,1,3,2,10,3,21
3,3,0,2,4,0,3
5,1,2,0,13,0,1
1,1,1,1,3,4,1
2,0,1,0,11,1,2
2,5,4,1,14,2,1
0,5,2,1,1,1,1
7,1,1,19,3,1,2
19,2,0,3,1,2,2
2,1,0,0,13,7,2
2,1,4,0,3,3,5
14,1,2,1,3,0,2
5,5,1,4,2,1,1
2,2,2,4,17,2,1
0,9,0,8,4,1,0
6,2,6,3,1,11,3
4,2,5,0,1,4,1
4,1,2,0,1,0,2
1,1,0,5,32,2,0
5,11,0,1,3,2,1
5,13,0,1,0,1,2
2,2,6,2,1,13,2
0,3,2,2,16,14,1
4,1,0,2,1,3,3
1,2,3,4,1,3,1
3,1,5,2,1,5,1
3,1,2,0,12,0,0
1,1,1,5,9,2,1
3,0,1,9,5,1,1
2,2,0,4,2,1,8
3,1,6,1,14,4,3
4,0,12,1,0,2,1
1,18,2,0,3,1,0
0,5,1,2,8,0,1
85,3,2,9,11,8,0
24,2,2,10,5,3,2
5,0,4,2,12,2,2
18,6,0,0,1,2,3
6,7,0,5,1,3,1
2,8,2,3,18,6,2
1,1,0,4,16,5,1
1,1,2,2,1,4,8
1,4,3,0,1,1,2
1,2,2,8,14,2,1
17,1,1,4,2,5,0
3,2,1,1,1,2,2
1,4,1,0,6,2,1
1,1,2,1,5,1,1
2,0,1,2,7,4,0
18,1,1,3,2,3,1
3,13,1,5,2,2,1
1,5,1,2,8,1,2
1,1,2,2,2,4,0
2,1,1,2,6,2,2
1,2,2,4,0,0,3
24,2,0,2,18,4,0
7,7,0,1,6,1,0
2,1,5,0,13,11,2
0,1,2,1,2,2,2
3,0,0,0,1,1,2
5,3,6,0,3,1,2
5,2,9,6,2,2,0
12,1,1,1,0,3,1
1,0,3,1,8,12,2
1,2,1,0,11,3,2
0,1,1,1,1,1,2
1,1,2,1,1,2,1
2,1,2,0,3,1,1
0,1,1,7,4,3,2
2,1,0,3,1,1,0
6,3,1,1,10,13,2
3,2,0,7,15,2,0
3,1,2,2,1,1,0
2,1,2,0,1,1,1
1,1,6,1,3,9,1
2,4,3,1,0,3,0
2,8,2,9,3,10,3
3,8,1,6,0,2,2
2,1,3,1,9,2,3
2,0,7,2,13,2,6
4,1,3,2,12,1,1
2,3,1,0,7,0,0
1,3,1,2,3,1,2
1,0,1,1,2,0,2
8,1,0,10,1,1,2
4,1,2,4,5,2,0
0,1,2,0,14,2,2
7,2,0,3,14,9,0
3,1,11,1,1,2,1
1,1,0,0,2,1,2
2,2,1,0,8,0,1
5,3,2,0,5,3,0
1,2,7,5,4,3,0
4,2,2,1,7,1,1
1,0,1,0,1,8,6
5,3,7,5,0,3,4
3,6,15,13,1,1,2
2,6,0,2,0,2,1
1,6,1,0,1,13,0
9,3,1,1,4,2,2
7,2,3,1,4,5,1
0,1,1,0,1,6,1
0,2,1,9,7,1,0
2,3,13,18,18,8,5
4,2,3,2,2,1,2
5,22,1,1,0,2,0
2,26,2,0,9,1,0
1,2,3,1,3,1,1
5,3,3,2,2,1,31
15,2,2,3,5,4,14
1,3,2,7,2,17,2
0,6,2,1,1,3,2
4,3,2,1,12,2,3
0,1,0,13,1,1,1
1,0,1,4,8,6,4
3,1,2,2,3,2,1
2,1,7,0,2,1,2
3,1,9,1,14,2,0
1,3,4,2,2,4,1
1,1,0,1,6,6,2
1,0,2,5,2,12,1
1,0,3,2,1,1,0
6,2,3,10,3,1,1
6,5,1,1,3,4,1
6,5,0,1,1,3,5
2,1,4,0,12,1,2
1,3,4,3,19,1,2
1,2,6,2,8,3,0
6,7,0,1,3,0,1
6,3,1,1,0,1,3
1,0,2,2,1,1,1
1,6,3,10,2,0,1
0,1,0,3,10,4,2
13,1,2,2,2,1,2
5,2,1,1,6,18,1
0,1,4,8,2,3,1
0,4,9,3,1,1,2
5,2,4,1,2,0,2
1,1,0,2,11,1,0
2,2,1,2,24,1,1
83,2,2,2,2,1,1
31,17,6,9,0,1,3
8,1,6,12,2,0,3
2,2,0,2,1,2,1
3,1,2,0,4,1,1
2,2,1,4,30,2,0
0,4,5,1,4,11,1
3,1,3,1,1,1,1
2,3,2,7,6,1,1
0,1,2,15,7,29,1
2,2,0,2,9,2,0
18,3,1,2,5,0,3
4,1,3,11,2,2,2
2,4,1,1,9,2,1
1,1,0,0,1,2,0
0,3,0,4,6,10,1
5,9,1,2,17,1,2
7,2,3,4,2,2,0
10,0,9,3,1,1,4
2,4,0,2,31,6,1
2,1,1,1,2,8,0
0,1,1,0,2,5,0
0,2,1,1,1,7,2
0,3,5,15,4,2,1
1,1,1,11,6,1,4
2,2,8,2,4,5,1
2,1,1,1,1,4,2
3,0,1,0,4,1,0
1,3,5,0,1,1,0
9,8,1,2,0,1,2
3,4,1,20,0,5,1
0,2,1,2,21,5,1
12,4,1,1,4,0,0
4,2,3,2,6,4,9
2,1,9,6,4,2,5
2,2,7,2,20,2,2
0,7,0,1,2,5,1
0,2,1,1,1,8,1
1,0,0,2,2,17,1
8,6,3,4,0,2,0
2,3,2,2,10,3,6
2,2,5,0,22,1,0
4,1,2,2,1,3,0
2,0,2,12,2,2,0
2,0,0,6,5,1,1
2,0,6,5,4,2,2
1,3,1,2,2,2,4
2,0,1,2,2,2,3
1,6,4,0,10,3,1
11,3,0,0,4,1,1
1,3,1,1,22,2,0
3,0,3,20,3,13,9
0,2,7,5,5,7,3
0,2,1,2,2,1,0
5,1,2,1,3,1,8
3,1,2,2,1,1,2
4,1,6,2,9,0,1
16,1,0,4,10,2,2
2,4,0,1,3,1,2
3,3,0,0,2,2,1
2,0,2,9,8,1,0
0,1,3,4,1,3,1
0,1,3,2,1,1,0
1,7,3,1,3,0,1
0,5,1,3,5,1,1
2,0,0,2,8,1,1
1,0,1,1,2,1,0
1,1,4,1,3,1,2
1,3,2,2,7,0,3
0,1,1,18,20,17,1
4,4,1,7,2,2,0
0,2,3,3,1,3,2
1,2,2,1,3,5,2
2,1,2,2,0,2,1
0,55,0,1,25,1,1
2,10,0,2,4,1,7
10,1,2,11,2,3,10
5,2,2,2,6,3,26
3,4,2,2,6,4,2
1,5,0,4,3,1,1
8,2,0,3,1,0,0
5,1,2,0,4,2,3
1,2,1,4,5,7,9
1,5,1,1,12,2,3
1,1,1,0,2,1,1
4,1,2,1,3,6,2
6,1,1,1,2,1,1
1,8,2,8,13,1,1
2,7,1,2,2,9,2
0,4,1,2,15,7,1
7,5,2,4,1,1,1
9,1,1,3,12,8,2
1,2,8,5,2,12,2
1,0,4,1,2,1,3
0,1,0,2,7,0,0
1,4,0,1,1,14,0
1,1,7,0,1,3,6
13,1,1,21,0,1,3
9,1,1,2,0,1,2
2,1,1,1,5,0,6
0,3,3,10,7,0,4
1,3,2,2,31,1,2
2,0,0,1,3,11,2
0,12,2,0,1,4,5
2,5,0,2,5,2,1
1,2,0,2,4,0,2
30,2,0,15,23,3,3
59,1,2,7,11,1,2
16,2,6,2,5,2,1
2,1,3,5,1,5,2
1,1,1,4,1,10,1
1,10,1,6,9,0,1
0,3,1,9,13,1,0
2,1,1,3,9,20,1
2,1,3,2,7,4,0
2,0,7,0,2,1,5
10,4,2,2,0,2,9
2,5,1,2,11,0,2
1,2,3,1,1,1,1
2,6,5,10,2,3,3
0,3,2,0,0,17,2
5,3,2,2,6,3,3
15,2,0,2,4,1,0
21,2,0,0,0,3,0
2,8,5,4,1,1,0
3,3,3,2,5,3,1
2,2,1,2,32,2,1
6,4,1,3,2,0,0
2,0,2,11,0,12,1
3,1,3,3,1,13,3
3,4,1,1,8,1,6
4,7,3,1,5,1,1
1,4,0,1,1,0,2
2,1,1,1,7,5,2
2,1,2,8,13,6,1
13,3,2,9,2,3,0
2,2,5,3,1,2,1
2,14,2,1,2,10,1
4,3,2,1,1,2,2
1,2,0,3,1,1,1
2,1,2,2,11,1,1
6,2,1,1,9,2,0
6,2,2,15,2,1,0
4,0,1,4,4,6,1
2,1,0,4,16,1,1
3,2,5,2,1,6,1
4,3,15,2,0,2,4
0,9,2,0,1,1,8
1,3,1,32,1,2,0
1,2,2,9,9,6,1
1,1,2,4,2,3,0
2,1,4,3,4,1,5
11,1,4,2,1,15,2
5,0,1,0,6,2,2
2,2,0,1,0,2,0
0,5,3,3,3,1,2
4,2,3,5,21,2,2
3,4,0,2,5,1,1
2,2,1,1,0,3,2
16,1,1,7,2,16,1
1,2,1,4,7,2,0
1,0,3,1,2,1,2
3,1,10,3,2,26,1
1,8,2,0,9,2,2
4,2,1,2,0,5,2
1,2,1,2,15,1,0
2,3,3,0,12,1,2
1,1,7,16,4,1,2
6,2,2,10,4,1,5
3,1,3,5,6,2,0
1,2,1,1,1,2,1
2,1,1,2,4,3,2
4,1,1,1,8,2,0
2,0,1,1,6,10,2
6,5,1,2,0,3,1
2,3,2,1,0,1,2
2,0,1,3,3,7,2
10,1,0,2,2,4,2
6,7,5,1,6,2,1
3,1,12,0,2,2,1
0,2,2,0,10,1,2
1,9,2,7,2,8,2
1,37,0,7,3,2,2
15,13,3,11,0,0,1
5,6,0,0,9,1,1
0,3,0,2,1,2,3
1,1,1,0,2,0,21
1,2,5,0,6,1,7
0,1,5,1,13,0,6
1,2,0,1,1,16,8
0,14,1,0,6,1,1
1,4,2,5,15,5,1
7,1,1,6,5,3,0
5,0,6,2,2,1,0
1,5,2,1,0,0,2
13,3,0,0,5,8,1
2,1,1,10,13,4,5
7,0,5,9,2,1,2
6,3,6,2,2,1,3
2,0,5,2,2,0,2
0,3,1,6,14,3,2
2,1,0,16,8,1,0
1,3,1,5,2,2,1
2,1,0,1,1,1,8
4,4,9,1,0,4,7
4,5,5,1,5,8,1
7,1,2,6,12,1,0
2,2,1,8,6,1,0
0,1,2,2,5,0,0
4,6,1,2,2,0,1
1,3,7,0,2,12,2
15,1,6,2,11,7,4
64,2,0,0,1,2,2
15,2,12,2,9,0,0
6,8,3,3,1,21,1
1,3,2,2,34,5,1
1,0,2,1,6,0,2
1,1,1,1,0,2,2
7,1,1,4,4,1,1
19,4,11,2,9,8,2
3,3,9,2,3,3,1
2,6,1,5,3,1,0
1,1,1,46,3,3,1
2,1,4,10,0,2,1
1,5,1,2,1,0,2
5,2,1,2,22,2,0
2,0,10,2,3,3,3
5,14,2,15,3,3,0
2,1,2,10,1,4,2
1,0,1,4,9,2,2
8,5,3,1,34,2,1
3,4,10,5,3,1,6
1,2,2,3,1,3,2
0,0,0,1,2,1,1
2,1,7,0,3,1,0
2,3,2,8,1,14,1
2,14,2,23,0,4,1
1,2,3,9,0,0,5
1,0,2,1,22,5,2
5,0,1,0,7,1,0
9,1,2,1,5,3,1
4,0,2,1,1,1,1
1,5,1,0,0,4,0
2,6,6,9,20,2,0
1,2,3,2,8,1,1
0,3,1,3,3,1,3
0,1,5,1,15,9,6
2,1,3,2,3,0,3
8,2,1,1,12,7,1
3,0,3,1,2,13,0
3,2,2,0,2,3,1
1,1,0,7,2,3,2
1,3,1,6,1,7,0
1,4,1,2,15,2,1
4,2,1,0,2,1,3
4,5,3,1,1,0,4
1,3,2,0,0,2,1
11,1,1,24,20,27,1
3,3,3,25,23,6,2
2,1,5,2,3,1,0
0,2,3,3,3,1,0
2,6,1,2,1,1,2
1,3,1,4,30,0,4
4,3,1,2,9,2,11
2,1,0,2,9,11,2
1,2,9,1,1,3,1
4,0,27,1,4,5,1
3,3,1,1,1,1,0
5,8,13,0,1,2,1
0,2,1,0,1,5,2
0,2,5,2,40,2,4
1,1,0,10,14,1,1
4,0,8,8,9,3,3
3,11,3,16,11,0,1
2,1,1,11,4,2,0
0,1,2,2,3,9,2
0,1,2,0,23,5,1
0,8,12,2,3,2,1
1,3,8,1,2,0,1
0,2,1,7,52,2,11
3,3,2,9,6,26,10
2,3,31,2,18,5,0
0,2,5,1,48,0,0
11,1,3,1,19,1,2
2,2,17,0,9,0,0
1,1,2,7,5,0,1
4,4,2,2,14,13,1
9,2,8,0,2,10,3
1,3,0,11,2,2,6
1,48,12,1,23,0,1
0,17,11,1,23,0,1
1,6,16,8,2,3,2
0,2,1,1,5,3,5
11,3,4,2,3,1,2
5,2,27,14,5,1,26
1,0,28,3,14,0,4
2,1,19,9,21,7,1
1,9,3,48,9,4,4
2,5,1,2,4,0,3
4,2,28,2,20,9,0
4,0,23,7,24,3,1
2,2,7,1,17,4,2
5,0,49,1,2,5,2
1,4,37,16,11,3,2
1,2,9,72,1,4,2
1,2,12,3,2,1,2
2,1,35,1,11,0,3
0,1,78,2,6,9,1
4,2,9,4,53,3,1
19,22,1,44,54,2,0
3,6,34,41,11,11,1
2,2,99,63,2,3,2
0,1,13,3,1,1,1
0,8,43,61,2,7,0
2,1,62,66,41,2,1
4,2,4,6,10,1,0
6,3,34,3,5,4,2
2,2,41,0,3,29,1
5,2,34,0,19,5,4
66,1,3,1,19,3,2
15,2,11,1,2,6,1
4,3,54,14,0,1,0
1,1,9,22,2,1,0
2,1,2,1,10,2,2
3,8,89,2,2,2,1
11,1,58,114,53,1,2
3,1,4,7,48,3,3
1,8,38,22,3,9,1
3,2,45,0,3,2,4
2,2,54,132,2,1,1
3,2,3,16,15,3,3
2,6,7,17,9,2,5
1,2,2,78,1,17,2
1,1,76,5,43,3,1
12,1,60,10,8,1,1
1,1,4,86,1,11,2
14,1,19,41,30,19,3
2,1,9,16,7,73,5
1,0,16,4,0,101,2
2,8,51,11,18,9,0
1,2,115,0,20,61,2
0,0,40,102,3,7,1
11,7,81,5,1,28,4
8,1,49,19,2,38,2
2,6,3,50,1,84,1
1,3,95,55,34,132,1
1,1,22,27,19,17,1
9,1,13,1,13,26,2
12,2,91,37,4,100,1
2,1,5,25,27,20,0
1,9,6,61,9,215,1
0,29,108,59,3,28,2
0,4,25,20,31,25,0
2,1,50,10,8,206,4
2,1,10,47,32,35,1
2,0,36,17,11,2,1
1,1,49,0,3,62,0
0,1,14,241,1,120,1
9,79,0,60,22,138,3
2,14,89,21,22,24,3
6,2,62,39,2,52,1
6,7,10,42,1,154,1
2,0,35,51,22,18,0
3,1,97,12,15,429,2
1,15,25,15,21,13,1
0,4,76,130,2,212,1
1,2,28,16,1,72,2
0,8,41,0,19,5,7
10,51,98,77,12,5,3
2,5,27,94,19,32,1
3,2,41,25,14,273,4
4,3,18,38,3,20,0
3,13,3,4,0,3,1
2,40,47,99,2,273,1
0,2,81,8,4,25,0
1,7,44,8,3,4,1
0,0,2,119,8,222,1
3,0,55,144,18,58,1
7,2,35,84,3,3,0
2,47,108,66,7,33,4
9,4,121,80,28,221,1
3,23,32,126,6,93,4
1,16,3,30,1,16,1
2,4,8,6,26,364,1
2,4,113,36,17,23,1
6,21,13,2,2,17,3
6,2,1,89,16,94,2
2,0,41,43,4,110,0
0,23,27,53,10,93,1
5,3,93,19,8,108,5
3,13,15,50,2,161,2
3,10,119,83,5,19,0
1,0,4,6,13,49,1
2,47,11,2,23,354,3
1,30,80,214,3,78,2
1,7,4,44,0,4,1
2,3,13,10,3,61,6
8,1,150,7,7,75,7
0,11,25,14,16,72,2
2,11,1,17,3,12,0
4,5,3,86,25,58,2
4,19,38,6,18,265,2
2,6,57,1,2,18,0
0,1,13,84,1,177,26
1,6,14,44,2,23,4
3,65,22,4,25,121,13
16,24,31,212,12,76,2
5,2,38,27,1,10,2
5,0,20,6,1,56,2
1,5,9,2,0,106,1
1,42,62,36,28,31,1
0,3,11,46,14,52,1
12,14,20,10,18,3,1
2,60,55,4,1,69,1
2,6,28,44,36,43,1
1,31,17,41,20,76,3
1,21,36,111,4,9,1
8,1,44,83,8,23,5
2,29,37,109,6,19,3
1,27,19,3,5,191,1
5,6,7,5,24,50,0
6,2,8,179,5,52,0
2,19,77,24,3,53,1
3,8,12,3,6,32,1
0,40,16,53,0,44,4
85,8,7,3,6,33,3
22,3,6,19,23,53,3
3,71,24,105,16,124,1
3,31,34,7,2,36,1
9,3,43,2,2,155,0
2,1,9,61,13,71,2
8,1,27,27,13,81,1
1,26,65,14,4,53,8
1,27,52,150,5,78,5
2,24,18,30,11,60,0
0,14,3,4,9,174,1
4,17,32,33,1,7,1
2,92,15,11,10,244,1
1,6,129,10,3,29,5
0,16,20,118,17,4,1
0,4,29,87,9,2,1
1,2,31,74,5,67,2
9,21,122,5,1,174,8
4,1,57,1,9,9,5
5,57,37,37,3,4,2
0,15,3,50,1,17,0
1,20,8,25,20,40,1
2,6,42,8,3,39,2
1,13,52,11,1,13,4
16,20,42,19,6,37,2
3,3,6,44,25,29,0
2,13,30,53,7,10,1
1,2,143,6,22,27,3
1,72,6,14,2,84,1
3,6,1,14,2,5,0
0,1,21,37,18,116,1
1,21,53,64,6,10,0
13,53,43,6,4,25,0
2,15,9,33,18,9,0
2,22,2,75,1,115,1
0,14,67,31,2,8,0
2,2,25,37,11,2,1
0,8,26,32,1,157,3
1,7,1,15,4,27,0
2,13,69,47,5,61,2
8,2,30,4,2,68,2
1,7,2,1,0,4,1
1,32,24,15,18,11,2
1,4,76,33,17,42,1
3,18,33,22,1,27,1
2,3,2,3,8,1,3
0,8,5,9,18,53,1
1,0,47,9,1,31,1
11,58,15,71,17,40,1
4,27,9,7,7,3,1
8,6,17,16,4,53,0
1,2,30,11,1,3,0
0,27,47,104,25,38,0
9,21,38,78,8,41,1
5,18,10,56,2,31,3
2,12,12,11,2,52,0
5,21,3,1,6,30,2
1,5,73,15,2,11,1
0,1,56,54,2,17,1
2,10,50,33,3,1,3
6,24,2,30,1,3,3
20,25,39,1,0,81,1
3,38,12,1,5,42,2
1,8,8,53,21,71,2
7,2,23,65,4,10,0
3,52,22,17,6,11,1
1,16,6,10,8,24,1
0,8,9,129,6,106,1
7,2,1,10,4,6,0
18,9,59,36,6,18,2
4,47,53,8,1,80,2
1,4,22,1,36,151,4
1,2,37,1,20,13,3
0,14,45,153,6,3,1
1,28,41,10,1,63,1
6,3,47,34,1,8,0
3,1,6,73,1,103,2
3,1,81,14,13,10,2
5,33,22,2,6,13,10
3,10,93,27,5,1,2
2,3,7,50,1,3,2
1,3,63,28,1,141,2
2,9,46,5,0,18,0
2,6,74,6,0,18,4
0,5,61,201,2,13,2
1,28,41,29,2,125,1
18,2,12,2,13,10,25
68,60,30,34,5,94,12
7,21,14,37,2,51,1
21,6,34,7,0,23,3
4,1,6,3,5,35,2
2,0,8,216,8,34,2
30,3,73,8,4,5,1
26,6,15,27,8,49,2
2,55,51,4,2,31,0
4,3,18,99,2,8,1
5,3,13,24,2,8,1
2,17,91,40,11,24,2
30,3,5,31,5,89,5
11,1,31,4,21,38,3
1,27,28,11,6,5,1
2,2,21,21,2,18,1
0,90,4,91,2,34,3
15,5,3,4,21,31,1
84,20,27,11,17,23,2
26,41,117,4,2,39,2
4,10,164,42,5,51,2
2,2,19,72,7,14,0
2,4,42,12,4,72,1
34,17,24,54,2,13,0
109,1,11,75,26,39,1
4,87,14,6,2,27,2
1,24,29,61,0,178,0
1,2,24,10,2,11,4
23,89,20,11,3,35,0
51,12,83,4,2,74,2
25,12,23,90,5,27,0
2,7,19,40,9,69,1
20,8,10,2,6,17,5
3,29,33,4,6,30,9
32,3,53,33,9,43,2
22,49,29,4,12,23,2
7,14,18,7,6,29,0
2,1,21,57,11,34,0
33,8,25,29,3,27,1
16,2,5,9,3,6,0
0,3,65,27,5,2,0
64,21,11,25,5,1,2
122,9,19,15,5,82,1
4,5,67,13,10,22,1
2,4,23,3,14,2,5
2,37,2,23,23,53,3
2,6,45,27,3,10,1
0,24,7,125,4,5,2
2,22,59,33,2,69,1
4,13,24,15,2,44,1
2,17,29,8,0,74,1
13,4,28,30,4,4,1
10,2,45,3,7,3,0
6,26,96,27,8,110,0
7,5,9,21,2,14,3
82,5,28,65,9,11,1
12,40,65,21,8,13,2
9,4,33,49,9,8,0
16,18,10,5,1,81,1
5,11,3,28,3,17,1
4,23,22,6,4,9,3
42,4,60,2,2,66,8
6,11,13,0,17,40,3
8,4,3,57,2,6,0
34,11,51,9,1,8,1
14,8,10,106,15,50,5
1,3,17,20,4,8,1
7,11,2,2,4,1,1
31,4,56,4,2,61,2
35,0,34,58,0,11,2
3,51,43,5,12,17,1
4,46,8,31,1,23,1
5,9,32,2,6,1,0
7,55,15,2,4,35,1
61,12,14,26,1,38,1
84,2,9,50,7,6,1
4,16,78,31,7,95,4
2,12,9,3,19,10,2
2,13,8,0,16,35,1
25,3,28,2,0,8,1
4,8,17,75,0,5,8
9,10,39,25,7,2,2
1,14,15,1,6,105,2
2,8,28,51,2,41,0
24,1,43,82,2,3,1
7,6,23,5,4,93,0
2,30,54,17,3,38,0
0,16,7,6,1,4,2
55,9,14,33,12,2,1
25,5,21,4,3,14,1
21,2,52,44,1,20,1
1,4,7,9,0,46,3
1,6,45,29,13,4,0
27,6,11,16,3,41,1
9,1,14,11,1,5,0
3,10,63,20,3,2,1
2,10,15,0,3,33,2
59,7,49,50,0,71,2
12,20,14,33,2,4,1
47,8,12,3,5,50,1
11,20,31,41,1,7,0
1,4,9,50,5,12,0
4,2,9,4,7,40,1
21,1,20,2,1,3,1
3,25,18,57,1,32,3
4,1,45,37,24,63,0
3,5,12,4,10,8,0
1,5,50,27,1,41,1
4,2,9,4,0,3,0
18,1,13,18,6,3,29
15,0,24,80,11,54,5
2,26,2,7,5,18,2
0,14,40,52,1,24,2
0,22,25,6,1,21,1
124,50,11,4,29,2,1
40,5,18,31,3,61,0
18,3,2,3,1,30,1
42,2,11,12,1,7,1
10,14,52,43,3,59,6
24,11,8,8,2,27,3
5,2,14,0,10,31,1
11,5,66,106,5,8,1
2,1,8,4,2,16,1
16,0,4,10,7,3,2
13,0,4,74,27,71,2
17,88,73,5,2,25,2
2,25,13,3,6,2,0
0,1,6,78,14,11,1
5,6,13,28,3,34,5
80,0,17,3,2,34,3
6,7,2,36,2,7,1
4,14,29,2,8,56,2
1,5,7,54,8,23,2
0,13,1,17,10,23,1
13,10,16,6,6,42,3
11,1,7,20,2,1,0
2,23,34,1,1,56,2
19,2,29,27,69,21,0
28,17,53,5,18,11,1
3,3,5,33,1,32,2
5,2,43,12,10,18,2
3,5,46,1,6,9,1
37,19,10,37,0,10,4
10,9,10,7,4,77,2
55,6,32,11,1,14,1
4,13,4,1,23,25,1
2,1,56,72,4,44,1
9,2,3,7,2,11,1
2,33,13,0,5,5,0
9,42,78,56,2,95,4
17,4,5,3,3,45,3
8,1,5,22,5,3,0
1,37,58,74,5,70,1
9,24,13,7,0,30,1
2,3,10,13,15,3,3
12,2,21,4,2,33,0
8,3,35,0,8,14,2
5,6,7,62,6,3,1
1,6,59,13,25,62,1
4,3,18,35,6,55,0
1,6,31,3,2,18,0
1,13,17,12,20,49,1
14,21,14,50,17,2,1
28,1,3,11,1,46,1
15,5,2,53,5,3,1
8,10,98,7,2,140,5
1,18,6,94,14,6,7
33,66,5,64,1,14,1
8,45,23,5,4,77,2
21,7,9,1,1,16,1
2,7,4,7,0,3,2
21,6,29,22,0,15,1
4,32,31,64,2,60,7
28,5,16,10,17,24,2
3,1,4,2,3,15,1
7,6,91,12,2,36,0
6,41,11,12,8,3,1
2,4,68,5,15,20,2
2,1,4,2,11,40,2
9,9,9,140,1,2,0
3,1,62,6,2,1,0
7,2,24,29,25,0,2
5,49,9,11,7,75,1
0,16,7,11,2,9,5
3,2,7,97,7,20,0
6,0,35,43,4,19,0
15,38,3,4,0,11,1
2,12,58,35,4,5,4
5,1,11,20,3,16,2
3,5,3,17,6,22,1
14,2,45,21,2,17,1
2,11,77,2,5,0,1
37,2,9,21,4,65,2
5,2,49,69,8,125,1
1,2,4,6,2,15,1
48,4,14,16,2,12,2
7,9,22,7,5,44,2
3,2,31,43,7,3,1
3,30,9,5,19,82,3
2,3,7,36,11,8,1
9,34,14,35,2,18,0
2,12,5,3,2,38,3
2,1,33,3,15,8,0
6,1,5,0,3,5,3
18,20,19,66,27,35,0
37,13,10,29,6,66,1
3,8,45,12,7,17,3
2,2,3,73,4,72,1
16,2,1,5,6,6,4
1,15,26,48,2,51,2
9,5,91,58,0,8,2
54,35,13,31,0,9,1
56,29,20,1,9,31,2
5,5,15,0,5,9,4
26,2,7,2,4,59,6
13,3,2,8,1,10,2
2,4,65,47,9,4,1
1,1,10,25,25,30,0
0,17,34,39,5,26,28
51,5,31,30,6,14,9
55,35,9,14,3,53,11
6,4,51,11,2,2,2
2,6,9,2,2,1,1
10,3,13,147,0,7,4
1,1,1,86,12,55,4
5,7,0,6,14,4,2
8,58,18,1,3,10,0
3,3,7,29,17,17,2
8,14,17,45,4,17,0
1,8,18,10,6,26,3
45,2,13,1,1,2,8
9,0,7,108,10,58,2
12,21,41,36,3,71,1
49,9,7,3,15,10,1
6,14,3,2,1,13,1
2,4,2,52,1,3,2
1,9,54,8,3,18,1
3,21,66,15,0,21,1
1,2,5,22,3,28,1
4,1,19,39,2,3,2
13,11,21,4,1,76,2
6,2,11,35,11,14,1
2,4,29,2,3,86,2
7,42,39,1,1,17,1
12,28,8,27,1,17,0
2,3,4,3,1,3,5
1,3,8,26,11,2,5
11,10,43,61,6,84,3
63,5,13,3,1,14,2
8,5,3,30,3,8,4
8,17,2,71,1,11,10
2,9,6,5,10,32,2
2,1,43,4,11,2,1
20,45,10,32,5,0,2
2,2,19,22,5,140,2
25,0,26,24,0,21,1
10,3,4,15,7,4,1
6,3,0,15,1,22,2
24,19,10,13,0,5,4
10,24,35,4,2,32,2
4,7,20,15,1,3,0
5,9,6,125,4,49,1
7,2,10,13,11,33,0
19,30,6,7,9,3,2
7,11,12,2,5,1,6
3,46,9,34,2,50,2
9,6,14,10,2,33,2
4,31,3,4,1,57,1
2,4,19,8,1,5,0
1,17,56,39,1,48,1
28,23,6,16,19,5,0
3,2,21,19,2,37,1
4,0,10,3,3,31,4
16,28,30,79,1,78,3
7,5,17,49,2,6,0
1,13,1,4,15,0,0
0,17,55,21,3,2,0
9,36,8,5,8,4,3
15,5,40,65,4,76,2
58,2,29,23,2,22,1
9,10,10,5,5,1,1
4,4,91,34,7,67,0
18,1,18,13,6,63,5
2,20,3,56,1,5,1
2,52,53,3,4,24,1
1,8,34,3,1,19,1
9,5,25,39,17,29,0
3,14,16,10,36,44,0
5,12,1,23,7,21,0
12,5,26,7,1,5,1
3,6,6,53,6,2,3
2,7,5,5,7,60,3
13,12,31,3,0,20,1
8,2,17,70,15,14,0
28,13,1,8,4,2,1
7,17,3,8,2,62,0
0,2,8,22,0,18,15
51,2,5,6,2,38,2
45,9,9,8,0,3,1
7,3,22,105,2,0,1
2,1,70,6,28,14,1
1,27,5,47,17,6,3
12,2,3,2,2,3,3
7,15,10,2,7,4,5
8,29,25,1,5,94,3
6,2,8,41,1,20,2
23,18,42,17,2,1,0
5,6,3,101,1,6,1
1,9,12,3,1,20,1
11,6,5,73,9,32,2
58,13,16,8,28,3,0
22,8,12,2,3,8,2
23,2,8,1,1,37,2
5,5,10,43,10,24,1
5,12,1,21,9,1,2
10,9,45,42,2,49,4
17,2,38,4,1,7,2
1,1,16,8,1,6,0
2,2,5,11,2,8,1
31,1,7,41,4,16,1
4,25,9,27,1,14,0
0,18,5,4,4,15,3
8,12,4,78,8,9,1
3,42,36,7,3,2,6
15,6,6,51,3,2,2
20,3,6,5,38,62,2
1,4,12,31,7,18,21
2,3,7,2,3,4,11
38,4,9,64,2,65,4
30,31,7,10,4,16,2
4,13,50,3,2,31,1
12,1,4,24,2,38,3
2,4,3,3,0,5,0
0,6,9,13,15,16,1
7,4,24,59,20,12,1
4,52,8,3,2,5,1
8,5,22,2,2,14,0
1,42,6,37,5,3,1
4,3,9,4,2,41,3
3,16,30,24,19,19,1
12,11,3,27,2,15,2
23,0,11,2,4,3,2
5,16,12,76,3,1,2
1,3,28,14,17,9,0
3,11,8,2,3,128,1
1,2,1,10,1,17,4
8,21,9,5,22,3,4
61,4,3,28,4,14,1
4,16,41,2,3,11,2
5,7,31,9,6,2,0
8,22,12,1,8,4,5
2,6,24,3,1,36,2
14,0,6,21,0,12,2
2,23,24,17,8,5,1
3,8,27,2,1,1,1
1,21,52,79,1,14,2
18,5,13,24,6,28,4
28,2,4,2,3,32,5
4,1,15,1,2,16,2
25,8,24,73,1,8,1
3,29,8,11,15,8,0
21,18,7,14,20,80,2
2,36,16,8,1,46,2
1,14,4,6,2,6,1
13,2,23,63,3,6,1
13,26,5,35,11,25,0
0,15,28,2,11,5,4
18,9,10,2,1,3,8
16,1,12,0,5,15,1
2,7,1,11,4,25,2
16,10,17,39,3,10,0
6,1,3,10,4,21,2
9,26,35,1,9,9,3
2,20,15,6,7,37,2
2,10,3,5,2,5,2
5,8,1,55,5,50,0
20,2,43,4,2,2,5
11,1,7,111,1,31,2
0,16,3,6,3,82,2
15,10,34,44,7,6,0
1,6,34,15,1,3,2
12,0,4,10,1,2,1
4,8,11,2,7,16,1
3,15,5,104,2,104,4
8,2,19,64,0,5,2
23,37,5,6,0,18,0
22,9,17,35,29,3,1
7,11,2,4,2,19,0
15,6,9,2,1,47,3
5,1,4,62,22,3,1
1,5,4,34,8,2,1
2,6,61,22,5,40,1
13,2,11,3,2,38,3
1,38,1,47,0,29,2
5,4,21,9,23,6,2
3,18,9,3,7,36,1
19,4,36,9,8,4,0
25,11,37,15,2,46,1
5,2,3,3,1,7,2
11,13,33,42,1,21,0
1,24,3,25,2,4,3
11,4,10,8,14,1,8
5,14,22,7,2,3,3
2,3,25,8,6,23,1
4,37,5,11,8,5,1
11,3,29,9,1,78,2
24,4,2,2,6,15,1
85,26,15,10,3,22,0
18,2,1,56,1,14,1
19,21,10,34,0,69,1
4,6,27,4,13,31,3
18,18,14,1,4,2,2
16,5,2,1,4,19,2
2,5,1,33,3,12,1
8,3,61,29,7,1,2
3,8,24,9,3,57,2
11,2,3,2,5,7,1
14,3,1,30,3,4,0
5,1,50,6,11,1,0
5,19,6,1,3,47,2
2,6,3,5,0,9,1
4,2,0,52,3,1,2
14,0,42,54,2,27,2
9,7,5,5,18,37,1
2,61,6,6,8,9,5
2,11,27,15,6,16,0
2,3,33,31,2,3,1
23,7,26,52,7,47,1
11,2,3,4,4,3,1
2,2,5,10,1,41,3
1,2,4,18,0,19,2
6,0,27,6,12,118,1
29,5,13,42,4,3,3
2,21,37,3,3,21,1
10,2,10,16,1,14,1
4,14,2,14,0,7,21
9,10,11,15,4,28,7
4,6,18,2,7,13,2
10,5,4,36,8,20,1
6,10,24,10,0,17,1
7,48,2,51,1,9,3
15,5,16,7,1,50,7
3,3,7,1,1,9,6
2,1,27,1,29,48,1
1,9,17,95,5,12,0
7,15,3,11,0,51,1
2,1,2,14,4,23,0
24,5,50,15,3,58,2
2,15,12,2,15,7,1
7,4,9,0,25,2,5
2,2,54,187,4,35,5
8,1,4,13,7,18,2
18,16,3,1,2,73,1
2,1,5,2,2,5,1
2,35,22,2,8,26,2
12,10,2,13,8,20,0
4,1,6,21,3,32,1
40,31,29,3,7,6,3
22,30,6,4,19,4,1
2,6,17,7,33,39,0
1,8,1,11,6,12,1
1,2,8,12,5,24,1
2,10,13,6,20,135,2
26,21,7,3,3,5,0
10,25,2,3,16,1,1
20,2,31,11,2,7,0
2,1,9,5,25,28,1
25,3,2,4,18,30,1
9,9,5,3,14,1,0
23,16,4,3,9,20,1
5,1,1,14,14,90,4
2,19,3,13,8,8,1
0,19,4,2,5,24,1
4,14,2,16,28,2,5
2,1,11,2,7,2,3
6,2,10,7,36,2,0
7,34,0,40,2,53,0
1,10,1,6,34,4,1
6,3,39,3,17,1,2
4,37,19,9,2,56,0
9,8,2,14,1,14,2
21,3,2,7,2,29,1
1,1,4,17,7,7,1
20,2,45,11,36,2,4
3,21,2,2,4,10,2
16,12,65,0,19,36,1
4,0,4,1,2,18,0
17,16,1,6,30,12,2
25,16,23,10,42,30,12
8,2,15,29,4,7,2
1,0,21,3,17,15,1
1,17,2,5,7,3,2
0,8,60,1,21,14,2
52,3,130,6,4,23,4
4,25,13,22,23,9,1
38,3,35,6,10,6,1
5,31,3,11,1,1,2
2,8,26,2,0,1,1
1,48,4,5,13,1,1
3,9,4,5,11,6,5
9,3,1,2,42,14,0
29,5,0,1,57,3,2
2,4,1,3,20,3,1
2,19,0,1,2,24,0
20,2,11,1,2,3,1
70,9,1,2,11,0,1
37,3,2,8,20,2,0
13,2,9,10,8,17,6
9,28,1,2,16,4,3
15,3,1,5,96,1,1
3,2,43,13,6,2,1
3,27,4,7,23,9,1
17,10,2,2,127,12,1
21,0,3,17,6,2,1
17,21,2,5,1,41,2
11,4,4,2,81,10,0
4,32,3,13,16,2,3
1,49,1,10,62,24,2
2,4,0,9,13,4,0
5,1,16,3,12,0,7
5,2,58,6,1,1,2
28,8,5,15,78,13,1
8,3,1,4,103,3,2
1,2,1,1,41,5,2
1,0,10,2,52,2,2
25,9,2,3,4,1,2
5,1,19,2,19,4,2
5,29,2,0,11,6,0
2,2,1,1,133,2,0
1,2,2,0,5,0,3
7,54,1,6,104,1,2
13,5,19,0,4,1,3
17,1,32,1,44,46,2
3,0,3,0,59,16,0
7,8,1,0,4,46,2
2,17,2,1,4,4,2
1,5,0,0,10,1,0
6,2,1,1,18,8,5
18,5,25,2,45,2,2
2,35,40,1,8,1,1
1,2,6,0,16,0,3
6,11,3,1,26,1,1
11,1,3,0,5,1,0
57,8,1,1,4,3,21
16,13,2,0,3,1,16
1,3,16,6,67,13,6
8,4,85,5,9,2,1
10,8,13,2,2,2,0
2,1,0,1,15,0,4
21,23,1,1,16,2,2
6,4,1,3,9,0,0
13,2,4,1,6,6,3
14,4,4,2,9,119,1
7,7,3,1,9,6,1
3,28,4,5,23,3,2
1,29,2,2,14,1,2
4,14,2,1,6,0,0
32,13,3,7,42,1,1
9,7,1,7,4,6,2
8,2,0,2,37,8,1
24,1,1,1,4,15,6
6,21,5,1,1,7,1
3,1,4,13,14,1,2
2,18,7,9,26,3,1
2,9,5,3,5,2,1
17,9,3,2,2,2,1
14,8,1,1,10,1,2
15,1,4,3,16,5,3
2,3,7,4,35,2,1
8,0,3,4,3,2,1
23,0,2,1,0,0,1
2,2,1,1,19,3,2
1,49,0,1,10,3,3
32,23,2,5,17,12,1
12,5,1,2,10,2,1
1,29,6,2,3,1,1
0,21,8,1,24,37,0
2,3,10,2,5,7,2
3,10,22,5,1,1,1
10,62,2,2,16,1,0
4,8,15,1,10,1,1
2,2,37,0,4,2,1
18,0,4,10,8,1,2
26,1,1,2,1,11,1
3,9,1,1,3,5,1
2,2,0,2,2,3,0
6,24,5,1,18,4,1
16,4,1,9,22,8,1
2,15,3,22,28,4,1
6,34,1,4,23,14,2
62,16,6,0,4,4,1
4,3,4,1,22,1,5
4,3,7,1,3,2,2
3,1,1,1,7,4,0
1,53,2,2,31,1,1
1,28,1,3,2,5,3
0,10,1,2,21,3,1
15,0,15,1,26,2,1
3,7,7,0,4,6,0
4,18,2,2,2,3,0
9,3,6,0,25,3,7
9,2,3,1,14,3,3
2,4,4,11,2,0,2
70,9,10,2,1,2,1
42,6,3,0,1,9,2
5,5,5,0,25,3,1
5,2,1,1,3,3,2
7,10,0,6,4,17,0
12,8,0,2,33,4,2
6,2,7,4,6,2,6
2,14,17,0,6,0,1
3,11,2,1,20,7,0
2,6,6,2,23,7,0
3,3,5,1,4,7,2
17,3,6,2,2,2,1
27,2,1,3,2,13,3
4,1,14,3,4,5,4
13,16,10,3,11,1,0
1,3,1,4,5,2,1
4,2,0,1,4,0,2
35,7,5,2,0,20,1
4,2,8,1,26,5,4
4,16,7,2,17,1,1
8,6,2,1,12,39,3
7,2,4,4,16,25,2
10,6,2,2,11,2,0
1,5,4,9,1,1,1
2,3,11,4,1,0,1
23,2,9,1,17,5,3
3,3,3,2,10,7,1
1,2,4,1,17,3,1
24,1,2,1,3,2,7
9,17,1,3,43,1,1
3,38,1,3,16,8,1
8,3,8,2,6,2,3
16,6,3,2,7,4,0
5,1,0,1,3,2,1
18,14,4,6,18,1,0
3,2,6,6,5,2,3
5,7,1,1,4,0,2
2,1,3,1,23,4,1
14,2,2,3,3,1,2
9,11,2,32,12,2,1
2,3,18,4,9,1,2
1,5,2,1,2,1,2
2,20,1,3,4,7,1
4,17,2,1,1,3,1
16,1,1,1,6,1,0
5,2,2,1,18,5,9
14,12,2,15,14,5,2
10,10,10,5,11,1,2
2,10,3,2,15,6,1
2,6,1,1,2,12,34
16,44,1,21,3,2,10
4,20,1,9,40,0,2
1,11,7,1,4,27,2
14,16,29,1,3,6,5
49,3,1,0,2,4,3
11,7,2,0,0,1,1
42,7,16,0,31,1,1
5,15,4,2,13,2,2
2,4,2,4,4,4,10
5,25,3,11,1,1,4
10,2,2,1,2,0,2
2,64,12,1,23,3,2
3,8,13,1,8,16,2
10,17,2,7,1,2,1
20,3,1,9,16,1,1
4,18,1,6,1,2,3
14,25,5,2,27,0,3
5,2,21,1,27,2,1
15,7,4,1,3,3,0
8,38,1,1,3,4,1
2,7,3,19,9,4,1
2,60,4,3,2,2,4
15,77,12,0,2,1,3
27,16,4,0,13,3,0
5,21,1,22,5,2,8
1,34,7,20,26,1,2
15,62,2,3,10,1,1
7,6,1,1,5,2,0
1,1,3,0,11,6,0
2,39,3,2,11,4,1
0,19,2,2,3,1,3
0,37,1,1,2,3,2
0,1,11,0,0,0,1
32,5,3,9,11,2,1
19,2,1,2,4,2,1
1,12,3,2,1,15,4
2,34,4,0,2,2,2
13,15,4,1,32,25,1
0,6,2,2,6,4,0
2,4,1,1,2,2,0
33,2,1,1,21,0,7
3,74,1,20,4,0,4
2,12,6,11,25,4,4
13,20,5,2,6,4,2
3,5,0,1,21,1,1
8,24,1,3,3,0,2
5,18,2,2,15,7,1
3,13,1,0,8,2,0
93,20,5,1,11,19,1
27,3,5,0,23,3,0
4,19,2,32,4,1,0
12,2,0,12,3,0,2
5,1,3,1,3,1,5
36,4,6,1,1,1,3
2,5,2,0,19,6,2
3,38,8,1,9,7,0
18,4,2,1,16,5,1
5,1,1,3,2,1,0
5,4,2,14,1,1,1
18,10,7,1,31,2,1
10,3,7,1,2,0,5
0,28,0,7,53,3,6
13,8,3,1,5,3,1
20,1,2,0,4,2,1
6,22,0,0,1,0,10
4,16,0,0,11,13,1
3,20,5,8,27,43,1
18,9,1,9,5,3,3
5,27,0,2,7,2,1
3,2,2,1,1,0,1
14,1,0,1,2,1,1
5,10,3,1,1,3,2
1,17,3,7,19,14,2
2,4,1,30,18,1,5
2,3,2,3,4,0,5
22,0,2,1,0,4,1
4,14,2,2,0,1,2
14,15,0,10,3,3,1
5,2,6,1,15,1,1
2,4,3,1,9,16,0
5,3,1,9,18,12,0
2,3,15,30,3,3,3
5,1,5,2,9,1,5
13,11,2,1,6,0,0
22,6,1,1,2,2,2
9,2,0,4,1,6,0
1,2,1,2,27,27,1
4,11,2,1,12,5,2
50,20,1,0,3,1,1
9,5,2,7,9,1,1
6,3,10,2,2,43,3
2,22,6,7,1,5,1
1,3,1,2,21,1,1
1,12,0,0,5,2,1
16,26,2,1,4,2,1
7,15,1,1,2,4,0
2,8,2,21,10,1,1
8,1,20,3,1,2,0
10,0,2,0,12,1,8
4,4,14,24,33,0,2
3,7,3,5,8,2,0
0,17,2,2,15,1,1
0,16,2,1,17,2,0
22,2,2,22,10,4,2
5,5,9,8,3,18,1
2,2,8,2,0,3,3
11,10,8,1,1,1,1
23,7,3,1,17,1,28
5,2,2,1,8,4,10
6,11,2,2,4,3,2
2,3,4,2,8,2,0
14,4,7,2,4,1,5
4,8,5,13,16,1,3
6,4,1,2,5,0,2
2,10,1,1,26,2,1
2,8,7,2,4,19,1
2,2,1,3,10,22,1
0,1,1,4,22,3,2
11,7,20,9,6,1,2
6,6,2,6,2,24,6
10,16,1,2,17,24,8
5,13,1,0,7,3,1
5,2,1,1,2,0,1
2,9,3,4,6,2,0
3,10,18,2,8,0,0
4,5,15,2,2,1,0
3,2,0,1,1,4,0
9,9,0,1,8,0,2
6,2,1,4,2,1,1
1,9,2,1,16,6,3
6,3,8,1,3,5,1
5,6,12,29,2,4,1
5,1,3,7,3,8,1
15,14,3,2,6,4,1
3,2,5,1,2,1,0
1,18,1,0,3,0,5
3,3,5,1,3,2,3
6,9,11,1,40,2,1
2,10,3,1,4,1,0
0,14,3,4,6,13,0
0,3,2,4,5,13,5
6,11,2,2,3,6,8
13,10,8,0,3,1,1
3,2,8,2,1,0,0
0,3,1,10,6,1,0
4,1,5,10,10,0,1
2,5,2,1,3,5,0
0,9,15,1,22,5,2
16,17,2,2,3,2,1
66,8,1,3,3,6,2
16,5,0,1,8,2,1
2,5,4,7,6,1,2
8,0,3,9,5,4,7
3,5,1,3,1,1,1
4,5,2,2,3,0,1
1,10,7,1,6,7,1
0,5,4,2,8,2,1
3,2,2,4,6,2,9
2,28,3,26,2,2,6
1,7,1,5,7,1,0
1,6,15,0,2,2,2
3,1,1,2,12,1,0
6,7,6,1,5,1,1
4,15,1,1,37,7,2
7,4,4,0,9,5,2
1,1,1,15,18,35,1
4,2,3,11,5,5,0
2,2,7,0,6,2,0
0,2,7,2,3,1,1
0,2,3,3,3,1,2
5,1,8,0,12,0,2
13,10,2,1,0,1,0
3,4,3,22,2,1,2
0,8,1,5,12,8,2
0,1,1,2,2,0,1
2,1,2,12,2,4,0
3,2,2,1,8,18,3
1,3,0,0,2,3,0
6,18,0,1,13,2,1
2,8,1,1,7,0,3
0,2,1,5,6,5,1
2,2,2,56,4,2,1
0,0,5,5,13,1,2
12,5,9,0,15,1,1
11,3,12,0,22,8,1
1,1,5,2,5,3,2
2,6,5,3,0,2,4
1,3,0,31,11,6,2
2,21,9,3,10,19,1
0,3,5,2,7,3,1
14,16,1,0,12,1,1
1,2,1,1,1,3,0
1,1,1,1,2,3,3
1,3,1,21,11,1,0
4,2,1,12,2,1,1
4,29,5,1,2,3,1
3,17,2,1,1,1,0
0,5,13,0,37,0,1
1,15,8,21,7,1,2
2,5,2,6,2,7,1
2,5,4,2,21,1,1
7,1,2,1,15,3,1
8,1,1,6,10,18,1
1,6,2,17,10,15,1
2,8,1,2,15,7,0
1,27,7,1,2,2,1
2,3,4,1,8,1,4
8,2,14,10,3,2,13
11,3,2,12,3,0,2
2,3,4,2,22,6,0
6,10,5,3,2,1,2
2,5,8,3,17,2,2
4,2,2,15,3,3,0
1,7,1,3,4,3,9
1,10,3,1,9,1,6
17,0,1,32,7,1,1
2,1,1,7,1,6,27
0,1,1,2,7,2,5
1,6,14,10,17,15,0
13,9,3,11,13,7,2
7,5,15,5,6,20,2
3,0,0,1,1,1,3
6,1,1,1,1,4,3
1,3,3,0,1,1,1
1,3,1,0,12,2,1
6,11,2,40,13,2,2
6,4,2,33,13,5,2
1,1,20,2,7,3,4
7,1,2,1,0,2,1
3,1,2,1,11,5,1
7,11,20,1,4,10,0
2,6,4,18,10,3,0
3,2,2,5,22,1,2
1,4,1,2,3,3,7
1,4,3,2,9,6,1
1,4,15,1,2,2,2
1,0,6,1,1,0,1
10,0,3,1,19,2,1
15,16,1,1,2,4,4
1,8,1,7,2,5,2
1,5,5,3,4,3,1
0,4,0,7,6,7,1
1,1,5,1,36,1,8
1,0,2,14,3,2,7
2,9,11,3,7,20,0
0,7,7,2,5,10,3
13,3,1,13,8,5,2
11,4,2,17,16,3,2
1,1,4,2,9,0,1
0,2,2,0,4,2,2
1,1,12,5,7,12,0
1,9,2,2,11,1,1
2,1,1,1,12,7,3
26,1,2,14,6,5,5
66,1,10,14,2,9,2
10,1,7,2,5,2,2
9,7,8,1,3,1,1
5,8,1,11,12,1,1
3,1,3,0,8,2,1
1,3,2,2,5,1,2
1,5,2,0,1,2,2
2,17,5,0,23,6,2
25,3,3,5,7,4,2
4,4,0,0,20,16,3
2,1,2,2,3,6,1
0,0,1,10,22,3,0
3,14,18,4,1,3,1
7,3,4,1,12,0,2
5,0,1,1,3,1,0
0,2,3,18,9,55,0
9,8,10,5,4,3,6
2,2,3,0,5,0,3
1,3,1,2,7,2,1
0,2,2,1,3,1,1
1,4,8,1,3,4,2
2,8,3,1,0,5,1
6,2,1,25,11,2,6
1,2,0,7,18,1,2
0,1,6,2,14,5,1
1,1,2,5,6,4,0
1,1,5,3,24,1,1
9,2,4,1,8,2,1
3,0,7,2,4,10,0
3,2,4,16,4,9,2
1,6,5,3,7,3,5
3,6,4,2,5,1,1
5,2,3,1,5,2,2
2,6,1,1,7,1,2
1,6,1,10,2,0,4
9,2,4,17,1,4,0
4,1,1,0,7,3,3
2,2,8,1,5,0,3
3,0,9,14,7,1,0
3,1,3,26,30,36,1
2,2,2,5,23,4,0
0,1,11,1,4,1,2
1,2,3,1,1,2,1
1,13,9,0,7,2,3
2,9,3,1,22,5,1
3,1,7,27,14,1,1
1,2,2,5,14,2,0
1,44,5,11,11,1,1
1,34,1,4,2,0,1
6,2,2,2,1,4,0
1,0,7,1,2,21,1
2,2,4,1,61,5,1
1,6,0,1,5,0,1
3,21,2,1,2,2,5
18,30,0,2,20,1,13
4,3,2,10,2,7,2
3,5,20,16,5,1,1
1,1,9,2,5,2,1
1,3,1,15,6,0,2
14,2,2,1,1,4,2
1,2,5,0,1,6,1
4,2,2,1,11,3,3
14,3,2,12,11,0,1
2,3,3,1,9,12,2
0,2,1,2,5,1,2
6,4,0,1,8,1,2
0,1,1,7,2,1,1
1,1,0,1,8,2,3
5,5,1,0,10,2,1
19,0,8,17,3,4,1
4,0,3,5,0,2,24
1,1,12,10,3,2,18
1,3,3,2,5,1,3
0,15,1,17,10,5,1
4,2,4,7,18,21,2
4,0,2,1,5,5,2
3,1,3,1,4,2,1
1,1,0,1,5,1,2
2,3,3,0,12,10,1
1,5,0,37,5,1,2
2,8,2,26,21,15,1
12,1,3,3,6,1,1
6,0,1,15,3,0,0
2,1,2,3,2,2,10
2,7,1,1,2,1,2
2,7,2,0,10,1,1
5,3,7,12,5,0,0
2,6,10,1,16,2,1
2,0,0,1,2,20,2
1,1,1,1,5,8,5
0,1,8,9,12,3,2
16,8,3,7,11,0,1
5,4,3,1,1,1,0
1,2,2,3,18,1,1
1,7,1,50,17,0,2
0,3,2,4,10,1,3
2,1,3,1,4,10,2
2,1,3,0,1,2,0
1,2,1,0,13,3,1
2,0,2,6,18,2,1
7,4,7,2,4,1,1
18,9,11,6,2,0,4
1,4,3,14,1,3,0
1,1,4,6,3,1,6
1,0,2,2,1,1,3
75,3,1,1,19,5,1
44,6,0,11,18,2,2
9,2,2,3,11,1,2
5,2,6,4,2,2,2
5,2,1,2,20,1,2
1,5,6,2,29,5,2
0,8,2,3,5,11,3
0,5,8,1,13,2,3
11,2,6,0,10,2,1
12,4,3,1,2,0,1
4,4,6,1,3,2,2
1,5,17,3,25,1,3
1,1,6,2,2,0,10
1,2,5,2,5,0,1
12,0,8,7,2,1,1
3,8,3,9,6,1,0
1,2,8,2,4,6,1
3,0,8,1,1,4,0
1,5,2,1,7,1,0
1,1,0,1,33,0,1
1,0,4,20,3,2,2
3,1,7,9,5,3,3
18,2,1,9,4,0,2
3,4,2,2,24,6,3
1,1,1,2,18,2,1
0,3,5,6,3,10,0
1,1,11,19,2,1,4
24,4,10,8,10,2,9
3,3,2,1,8,1,1
1,1,0,1,17,0,0
0,0,2,1,4,2,0
3,4,2,2,8,9,2
1,5,5,6,3,2,5
0,3,0,6,2,2,1
4,2,0,3,6,0,2
17,2,11,2,1,1,1
9,3,8,1,2,2,2
3,3,2,6,5,6,8
2,0,14,2,16,1,2
1,1,1,46,9,1,1
2,2,3,2,15,1,0
2,2,3,1,2,3,6
1,5,0,1,1,4,2
0,3,1,1,1,7,2
1,2,1,0,4,1,2
2,0,2,15,11,1,1
16,1,16,5,2,2,0
2,2,3,2,29,2,0
2,0,2,1,14,12,2
0,20,0,3,1,7,1
1,28,9,14,33,3,1
1,6,6,10,2,0,2
1,8,2,2,10,2,1
6,2,1,1,3,3,2
2,1,0,0,12,2,0
12,1,8,24,2,1,1
13,1,1,4,1,1,5
0,2,4,1,4,0,4
1,4,4,0,5,28,2
2,1,0,30,1,2,0
1,1,10,3,10,1,2
8,1,0,0,2,1,0
12,7,3,4,4,1,0
6,6,3,8,3,0,1
1,14,1,4,15,13,1
0,2,1,3,2,1,3
0,1,3,9,19,1,3
0,0,0,2,7,23,1
0,20,2,1,1,7,0
1,8,11,2,33,6,0
3,1,2,1,5,1,6
1,1,15,20,1,0,4
5,0,2,10,1,1,0
24,0,9,2,26,0,20
4,2,1,4,18,1,20
1,6,3,1,3,1,7
1,3,2,1,4,1,2
0,1,4,4,18,9,1
1,2,10,1,27,3,0
2,8,1,1,3,1,2
2,3,2,1,5,0,12
0,3,2,1,18,4,2
1,1,5,13,28,0,0
1,2,2,3,2,2,2
2,0,0,1,4,2,1
14,1,1,8,5,0,2
5,0,0,9,5,1,1
1,1,2,20,4,7,5
5,3,0,2,9,10,1
3,4,1,6,3,3,0
2,2,0,8,1,1,2
2,5,3,1,2,13,1
2,2,4,1,1,3,1
2,2,8,0,7,14,1
1,2,3,2,6,2,1
1,3,0,17,1,0,1
4,0,2,3,9,0,2
22,2,1,0,9,1,1
5,0,3,0,3,3,1
2,1,0,26,4,2,0
1,1,1,4,3,1,1
0,0,3,9,19,5,2
2,2,0,0,2,5,0
3,2,2,0,4,3,3
12,6,0,3,0,1,1
36,2,1,1,2,0,3
11,1,20,5,18,0,1
16,3,2,4,14,4,0
7,1,1,1,4,7,1
1,0,2,0,3,2,2
2,4,0,4,3,1,6
2,5,1,3,8,1,1
1,6,1,1,28,3,1
1,2,1,3,20,73,0
6,1,2,2,3,4,2
7,1,15,8,3,2,1
2,2,2,29,16,1,2
1,3,1,3,2,0,1
1,1,0,1,8,6,0
1,5,1,0,8,1,7
4,2,2,1,5,2,2
11,2,0,25,25,1,1
6,2,1,14,4,1,0
1,1,1,2,9,2,2
2,2,19,3,2,6,1
2,3,4,5,2,2,1
2,5,2,2,5,1,0
0,4,1,0,11,1,1
17,3,6,1,2,0,1
4,12,8,16,8,1,3
2,1,3,14,5,1,2
0,0,1,1,15,2,2
0,3,2,0,2,1,1
1,4,0,0,1,0,1
1,1,1,14,3,0,1
1,2,0,16,18,2,1
5,2,3,1,5,2,0
7,3,2,1,37,1,2
4,1,2,2,10,1,5
2,6,2,2,10,0,1
2,5,2,5,26,7,2
1,2,0,4,4,1,1
1,2,0,22,6,0,1
15,1,1,2,3,0,1
10,11,2,2,6,3,0
3,2,8,1,6,2,1
1,2,7,1,4,15,2
5,1,1,1,20,5,1
15,6,5,5,2,1,2
1,2,1,2,6,5,6
1,10,2,13,3,7,3
0,2,7,4,3,2,1
0,8,3,1,28,2,0
2,5,6,2,9,1,4
4,3,2,22,7,0,1
1,2,1,3,7,2,1
2,4,1,1,14,0,1
24,35,2,2,5,1,2
1,19,12,24,3,7,0
1,3,1,2,5,11,0
0,1,2,5,1,1,1
0,1,0,14,19,1,2
1,6,1,3,6,1,0
10,2,0,4,2,0,0
6,2,2,4,4,16,1
1,4,11,0,2,5,4
1,3,3,28,19,4,1
2,0,1,16,6,1,2
1,1,2,2,20,0,1
0,0,5,0,27,2,1
0,0,2,6,25,9,3
11,2,7,3,2,1,1
18,5,12,1,2,18,2
1,2,2,0,1,2,2
1,1,1,5,16,1,1
2,1,2,6,6,1,2
4,0,2,1,2,0,8
1,1,1,18,3,0,2
2,1,2,7,8,0,0
3,2,2,3,27,3,1
4,3,3,8,3,3,1
7,1,7,14,13,1,1
1,1,1,3,2,0,36
1,2,0,1,5,1,9
1,6,0,3,11,1,2
2,2,1,7,16,2,1
2,6,0,7,8,2,0
3,2,7,53,6,1,0
0,0,6,5,14,5,4
1,0,0,0,4,1,2
1,2,4,1,2,2,2
6,8,4,1,3,17,5
21,3,2,0,17,1,1
3,2,3,13,12,1,1
1,1,2,15,1,1,0
3,8,1,2,20,3,7
2,6,8,1,2,6,2
0,2,6,1,17,2,1
0,1,0,1,5,0,1
3,1,4,1,1,1,1
10,1,3,2,0,12,2
1,9,1,2,38,10,0
1,2,9,18,5,1,1
0,1,1,8,15,1,1
1,1,4,3,2,0,2
1,0,1,1,9,0,3
1,2,1,39,22,0,1
8,2,3,10,2,0,0
4,13,1,0,0,2,2
86,2,4,1,13,1,1
29,2,2,1,2,5,1
6,2,2,1,8,11,1
1,7,4,1,4,2,0
1,3,4,2,4,11,1
5,0,3,4,9,4,6
12,3,2,9,1,2,3
3,1,4,2,7,1,1
1,16,2,2,1,4,0
1,2,8,1,2,2,1
8,1,2,0,9,1,2
3,3,5,3,7,0,1
0,9,2,6,4,0,0
0,10,2,3,16,2,2
0,1,2,34,6,4,3
2,0,0,4,14,2,1
11,1,1,0,7,1,1
2,6,1,1,10,1,4
21,1,1,0,8,1,2
1,1,2,2,3,0,2
3,2,6,18,1,1,1
2,0,10,12,17,1,2
0,6,1,1,5,21,1
0,5,1,5,6,1,1
10,3,1,12,2,2,1
4,2,2,2,12,1,6
1,0,3,1,1,6,3
0,1,0,20,0,1,1
2,1,4,2,3,11,1
10,3,14,2,2,7,1
12,4,1,1,1,4,5
2,1,2,6,0,2,1
0,2,2,3,7,0,0
0,1,1,1,9,1,2
1,2,1,1,11,2,2
1,2,2,11,2,2,10
1,0,0,37,1,5,3
5,6,6,4,2,2,2
8,11,1,2,12,1,0
2,6,1,3,9,0,2
3,3,2,5,12,2,1
2,2,1,2,4,2,1
1,2,2,2,2,0,1
2,1,0,3,0,2,2
2,2,2,1,0,16,5
1,1,1,0,4,2,1
0,1,1,1,2,2,1
2,4,1,26,51,2,2
2,5,2,34,3,1,1
0,1,3,2,1,7,0
14,2,5,1,4,7,0
3,2,2,0,2,3,2
3,1,1,1,4,1,2
1,0,1,1,24,1,2
4,0,1,1,2,3,6
2,45,1,11,2,2,1
1,14,7,6,51,22,3
7,4,6,3,4,4,2
18,1,5,0,5,1,1
3,4,1,0,2,0,1
1,8,2,0,18,0,1
1,3,3,25,6,2,2
1,1,2,16,2,4,5
3,1,2,15,2,2,1
0,1,0,15,20,2,1
0,1,7,1,6,0,1
1,7,7,0,2,1,0
2,2,3,1,1,0,1
1,2,7,8,8,4,0
3,1,5,11,21,1,1
4,4,0,2,2,2,1
3,1,0,26,3,4,1
7,4,3,2,3,0,1
3,3,8,4,28,2,3
0,8,2,9,1,2,1
0,0,0,1,0,3,1
3,1,0,0,7,8,0
5,0,2,1,1,7,0
4,1,2,163,2,2,9
7,2,1,20,3,5,5
1,6,4,14,9,6,2
2,8,2,3,6,1,8
6,1,1,1,1,1,32
11,1,2,1,4,2,4
0,1,0,2,3,0,0
1,2,1,2,6,7,0
9,2,4,23,9,17,1
1,2,1,31,1,3,3
2,0,11,3,5,0,3
1,1,1,6,2,0,0
1,1,5,5,3,3,0
1,1,1,2,16,25,2
0,13,1,6,2,2,0
2,3,5,7,11,1,1
11,2,2,1,3,1,0
22,2,3,2,4,0,1
2,1,1,58,4,0,2
2,2,4,23,1,5,3
1,14,3,79,3,2,1
1,2,3,16,1,7,0
2,0,1,1,0,5,0
1,4,1,2,17,6,3
0,5,1,94,34,4,5
2,1,5,10,18,0,1
1,1,1,3,3,2,2
77,1,1,0,19,3,1
35,2,10,53,4,5,1
11,1,2,39,15,1,1
4,1,1,7,32,3,1
6,1,2,5,41,1,6
3,4,0,3,19,0,0
2,7,2,29,54,5,1
1,2,4,10,6,0,2
16,1,5,48,24,4,0
12,2,3,2,20,10,0
3,0,1,26,0,1,4
0,0,4,88,50,1,3
5,1,0,42,29,1,0
0,1,2,17,9,6,0
1,2,0,0,7,10,1
0,1,4,2,4,3,0
1,2,12,0,3,0,8
3,0,3,138,40,2,1
17,7,1,112,18,2,2
2,2,0,3,26,26,0
2,2,1,201,3,4,2
0,0,5,116,5,1,1
1,1,5,4,57,10,1
1,1,4,18,18,5,1
2,1,1,1,75,3,1
6,0,1,11,9,6,2
1,2,1,266,2,5,2
0,2,7,31,6,14,1
2,1,2,3,19,2,1
3,1,1,2,34,0,1
0,6,4,47,13,0,2
1,1,1,163,22,98,2
1,0,3,6,18,8,1
3,2,2,3,9,2,0
2,2,3,35,2,18,10
2,0,9,116,42,2,2
3,1,2,9,14,7,1
8,2,4,160,26,1,2
2,5,2,33,2,48,2
4,13,2,128,1,14,1
1,3,1,9,10,77,1
1,4,1,204,40,10,2
1,1,2,13,8,1,1
12,2,12,2,11,60,1
4,2,1,13,8,38,5
1,5,2,12,6,29,1
1,2,3,47,9,7,0
2,1,8,9,45,12,1
2,1,2,3,8,0,6
2,0,1,181,1,7,2
0,1,1,9,14,23,1
3,2,6,53,7,58,0
11,0,4,75,23,48,1
3,2,2,30,9,104,1
1,3,3,1,6,270,0
1,5,1,1,9,43,1
4,2,4,1,11,143,2
3,0,2,27,5,84,1
6,37,0,59,18,109,1
1,12,15,46,14,31,0
1,12,7,8,11,14,2
1,2,10,7,3,23,0
8,0,0,1,11,17,0
13,1,2,0,35,376,5
1,5,2,74,3,16,4
1,2,2,42,3,199,2
1,1,31,4,5,143,2
3,0,5,73,8,10,2
2,1,1,9,7,86,1
1,15,1,0,4,90,7
1,8,0,3,4,57,2
1,1,10,86,4,8,1
8,2,13,9,20,13,1
2,2,3,1,4,314,1
1,1,4,3,13,30,1
7,5,3,29,15,17,1
2,1,1,44,4,142,2
5,0,3,6,3,32,4
3,8,28,1,12,43,9
1,4,3,0,2,38,1
0,1,15,109,7,169,2
7,1,9,20,17,34,0
2,1,10,19,11,211,4
2,0,54,69,1,255,3
1,13,3,13,14,215,1
4,5,5,17,9,76,32
3,7,14,0,3,218,10
4,2,4,49,2,59,4
1,0,0,11,20,82,1
1,2,1,9,20,41,1
2,3,25,9,6,106,1
2,2,16,5,1,9,1
1,6,5,21,38,47,0
9,14,14,8,17,288,2
7,3,23,49,1,28,1
2,0,3,15,2,467,1
1,6,2,1,15,31,2
1,2,19,47,3,89,1
3,0,7,19,7,7,1
1,1,4,22,17,51,2
1,2,28,41,1,13,14
6,1,12,2,24,515,3
12,2,0,38,2,15,0
1,3,2,22,2,249,2
1,1,86,58,27,78,0
1,16,35,57,6,321,2
82,2,4,5,3,114,10
33,2,49,2,2,10,2
4,0,35,27,2,80,0
5,1,18,16,1,5,2
4,0,85,96,1,94,2
3,0,6,11,2,285,3
2,39,44,0,10,80,4
1,10,48,51,1,76,2
1,2,14,9,27,5,1
1,3,12,5,3,152,6
1,2,18,22,49,29,1
0,6,28,30,9,108,1
8,0,70,75,2,75,0
2,18,47,17,1,162,2
2,8,3,1,1,8,1
1,4,2,29,28,50,1
1,3,50,27,24,38,1
6,2,18,2,3,54,0
0,1,22,22,12,51,1
4,0,26,1,22,120,2
2,3,69,25,6,29,6
0,10,8,5,2,49,2
2,11,11,57,15,63,2
2,14,88,4,7,5,4
1,2,18,18,1,77,1
13,7,2,36,3,61,1
4,2,6,4,7,253,0
1,1,50,13,2,17,1
11,41,28,3,4,179,0
2,32,9,89,2,9,4
0,7,12,12,1,97,2
1,1,89,5,3,8,0
0,0,25,1,10,119,1
1,0,1,41,14,43,2
2,2,47,25,4,128,0
0,3,46,7,12,203,2
1,2,19,39,2,10,1
7,5,28,15,12,119,0
3,29,150,5,31,41,0
1,2,8,42,9,9,5
2,16,4,51,8,7,7
8,2,1,16,1,135,1
2,2,35,11,7,75,2
1,0,124,2,7,257,1
1,1,23,4,3,12,1
1,15,35,46,0,48,1
1,35,50,34,18,75,2
23,3,53,26,15,14,1
7,12,20,2,5,91,2
1,0,32,1,2,148,0
0,1,41,2,6,14,2
0,15,4,71,2,30,1
2,11,139,6,3,37,0
1,15,22,4,15,36,1
1,8,6,25,2,50,0
4,41,66,3,4,7,1
8,29,122,7,10,1,1
3,5,39,57,4,44,1
1,7,34,16,3,247,6
0,19,66,1,16,11,4
1,3,86,16,10,122,1
0,2,9,12,1,23,1
2,56,21,22,3,3,2
15,5,72,6,2,132,0
4,2,4,43,4,54,1
2,3,91,6,19,17,5
0,9,58,79,8,31,9
11,40,5,5,5,184,0
6,52,24,24,2,14,1
2,19,101,3,1,26,2
0,2,5,0,13,153,1
2,7,2,53,3,36,5
6,25,11,24,8,60,2
5,22,83,9,2,18,0
2,2,54,1,7,20,7
1,2,4,51,2,63,1
2,9,64,5,0,33,0
1,25,120,36,2,43,3
0,4,56,9,14,83,2
2,7,6,1,3,50,2
5,40,54,2,1,186,2
4,53,13,99,18,34,0
2,14,33,16,7,5,4
1,22,47,17,8,43,3
1,26,40,1,2,149,1
1,3,4,11,5,10,1
1,18,6,9,5,7,0
18,8,14,1,6,75,22
4,2,125,157,6,10,17
2,3,35,12,7,66,3
2,1,23,1,1,32,2
2,138,6,3,6,12,0
2,14,74,2,2,57,0
16,9,4,15,4,7,1
16,2,174,19,1,46,0
2,29,63,3,1,78,5
1,6,25,1,24,3,0
0,3,16,81,14,51,1
1,6,41,4,2,87,1
1,11,11,1,4,45,3
5,27,12,39,2,4,1
6,2,50,14,27,47,2
3,13,17,38,9,23,3
0,10,9,2,3,12,3
1,18,17,26,1,40,2
1,25,38,5,9,23,1
81,3,42,24,21,14,1
36,9,52,17,3,19,1
14,8,13,38,1,9,1
2,1,28,16,10,61,4
5,19,21,2,2,4,2
2,15,52,43,1,17,5
0,14,4,34,17,33,0
8,15,20,2,10,40,0
4,2,112,13,5,3,1
6,8,8,1,13,73,3
0,22,18,41,2,46,2
1,4,36,8,6,10,1
3,5,4,2,6,32,1
1,45,107,1,11,48,0
1,4,65,80,2,30,2
8,84,23,19,6,39,2
2,8,75,6,2,2,1
3,1,13,1,4,17,3
1,46,3,0,0,128,1
5,21,152,94,10,7,4
2,2,34,8,5,100,2
1,3,22,3,2,42,3
1,5,10,92,2,6,3
4,3,55,6,6,4,3
25,25,27,5,13,78,2
5,75,48,42,4,110,6
2,8,10,45,2,5,2
1,1,33,11,27,6,2
1,6,19,1,3,25,1
1,4,31,27,1,33,3
2,14,95,17,0,17,2
2,2,25,2,2,38,3
3,55,2,1,2,9,2
12,9,81,61,1,75,0
2,0,10,6,4,8,1
0,4,47,2,13,36,3
0,8,14,81,6,45,0
2,7,38,6,2,16,1
2,33,36,4,11,9,2
6,5,21,31,4,80,3
14,17,13,16,0,21,2
2,2,14,12,2,3,1
0,26,4,46,6,106,3
1,28,41,11,0,18,5
6,10,13,3,5,29,1
9,47,9,2,2,2,1
1,6,89,1,9,1,1
0,6,7,5,3,1,4
3,2,5,35,6,97,1
11,1,125,39,7,62,0
2,11,10,14,14,6,3
1,3,7,2,1,45,9
0,66,52,5,18,5,9
1,5,17,1,1,9,1
6,55,16,23,14,118,0
3,4,18,79,7,7,0
11,0,14,6,2,19,1
4,1,141,2,9,69,7
2,5,8,18,3,8,4
2,35,2,25,0,13,2
10,20,10,3,1,4,5
2,4,69,1,1,32,3
1,3,78,0,9,63,1
5,3,16,7,5,3,1
3,2,3,14,7,42,3
6,109,94,17,3,29,2
2,8,38,16,12,66,4
1,3,46,5,11,35,2
1,1,10,1,14,2,0
4,4,74,8,1,21,5
2,63,46,19,4,96,2
0,6,9,4,14,5,1
3,0,1,2,3,30,5
0,47,30,27,27,26,3
3,14,88,9,4,118,1
8,3,22,21,9,29,2
2,0,30,3,5,4,2
1,59,8,4,6,16,4
0,11,58,39,3,23,2
25,38,52,7,1,53,6
4,23,15,4,13,12,8
6,2,14,8,4,7,3
2,51,25,2,2,3,3
0,99,24,28,6,106,2
0,7,18,42,7,9,7
8,2,80,22,3,24,4
24,2,21,0,1,4,0
1,1,9,9,10,27,2
2,0,17,11,19,9,5
7,10,4,40,1,34,3
2,31,2,9,2,36,31
2,4,52,13,3,4,11
6,4,16,1,25,10,2
3,7,11,22,2,21,2
5,2,23,11,6,56,3
2,17,22,36,6,77,1
4,26,13,3,6,42,1
5,21,13,35,3,42,1
1,2,6,31,8,47,8
0,9,2,7,2,19,8
6,45,49,1,1,31,2
8,7,18,4,10,52,1
0,2,4,44,6,19,1
7,18,22,15,18,54,0
2,28,27,5,2,7,1
0,4,47,2,8,14,3
89,4,13,3,1,91,0
24,22,5,14,2,11,2
2,3,24,17,20,5,1
1,6,11,14,6,37,2
1,0,12,6,1,3,0
0,18,52,3,2,21,1
5,17,30,25,1,1,0
22,20,45,5,10,48,4
7,9,3,8,1,35,1
6,20,65,24,9,71,1
1,2,3,14,4,3,0
5,46,42,19,2,14,1
15,2,28,0,2,6,3
1,16,10,68,2,18,2
0,5,23,17,9,59,2
1,2,4,2,2,15,2
1,1,23,9,15,9,3
28,61,32,2,2,22,1
6,56,12,20,0,30,2
2,7,28,36,1,4,1
10,1,33,10,13,50,4
2,40,19,4,6,35,3
1,2,9,28,2,12,3
11,11,10,12,3,6,3
51,23,46,1,2,26,1
6,12,11,7,15,73,0
1,3,27,45,4,8,1
1,1,45,16,0,5,0
1,7,8,10,17,72,0
116,1,13,1,1,10,1
7,36,18,3,5,16,3
1,5,8,29,4,7,11
1,16,2,15,1,32,1
0,29,3,0,0,40,0
5,16,30,45,14,44,2
1,12,6,14,12,4,1
26,20,7,1,6,26,2
21,23,23,25,2,99,2
1,2,11,46,2,9,2
19,6,13,4,20,6,2
3,4,12,40,34,16,2
0,5,6,31,2,3,1
2,11,1,4,2,4,1
0,2,38,20,1,6,1
17,1,17,3,11,38,1
16,3,4,8,1,28,2
42,2,35,4,4,31,1
6,93,55,6,1,10,1
1,7,7,21,5,26,1
36,3,30,2,6,3,1
41,31,7,57,2,23,3
4,2,1,9,2,40,3
1,10,18,3,1,12,14
22,29,85,2,4,10,2
2,5,31,0,46,37,1
24,37,4,10,5,48,1
35,26,61,16,2,10,0
8,3,9,6,24,38,6
3,21,8,14,1,24,2
1,11,5,14,3,15,2
15,1,20,0,15,1,1
4,2,8,6,2,8,1
50,1,2,23,4,15,2
9,4,12,2,2,5,1
2,17,15,1,1,3,2
0,4,6,3,2,133,1
20,8,32,35,24,5,0
14,11,16,3,3,2,0
57,32,19,12,0,35,4
5,5,19,32,5,21,0
14,2,8,16,7,6,0
1,23,18,1,2,3,1
2,2,2,4,7,24,11
1,22,18,13,2,75,10
5,11,48,64,1,10,2
0,21,9,6,17,32,1
2,16,30,55,0,9,2
48,21,3,6,1,24,1
15,21,22,1,11,62,1
2,3,18,8,3,8,2
1,2,18,18,35,6,2
11,4,10,25,5,64,1
4,33,1,14,1,4,2
3,3,10,2,0,16,1
2,2,10,75,0,7,2
19,41,21,9,4,55,0
3,4,4,2,19,4,2
18,6,26,0,4,38,1
21,7,3,1,0,18,1
5,5,35,1,20,30,0
4,8,10,75,9,26,2
1,1,2,5,6,19,19
29,10,11,5,3,55,22
12,10,39,1,2,13,6
5,8,9,72,2,26,1
3,4,1,8,7,17,3
6,0,11,16,10,37,2
36,10,5,9,3,6,1
22,19,4,29,12,40,1
70,3,28,10,6,26,2
37,75,48,8,3,9,3
10,5,24,16,4,8,1
1,43,7,5,1,2,2
4,9,2,26,0,12,2
5,2,62,1,1,38,0
93,2,6,16,1,62,2
8,39,23,40,11,55,2
2,3,8,4,5,10,2
8,5,2,2,2,47,6
2,2,4,21,23,11,3
3,2,41,11,1,22,1
5,8,5,3,2,22,0
6,45,3,38,0,3,1
7,7,22,47,19,9,2
1,10,8,32,1,49,3
5,1,1,2,16,10,1
36,1,39,5,7,80,2
20,24,6,11,2,130,4
10,31,27,67,1,39,3
0,5,2,24,10,6,1
8,2,5,25,7,84,5
4,0,48,6,3,6,1
32,29,22,2,5,11,1
2,9,2,0,5,66,0
0,3,33,24,1,61,1
6,1,2,34,0,4,3
36,2,2,8,3,65,0
3,23,33,2,8,52,1
19,0,5,2,1,8,2
4,40,31,22,0,2,3
69,40,4,3,0,29,8
16,8,2,23,0,119,2
3,3,12,5,5,5,1
10,21,29,5,36,44,1
1,3,4,1,5,5,1
2,18,40,42,2,3,1
10,10,2,3,7,79,1
17,9,5,0,3,5,4
5,12,4,9,2,11,1
4,2,19,10,6,34,2
1,4,22,20,0,24,0
1,21,8,21,4,143,1
0,3,5,2,7,4,6
5,2,3,1,1,43,2
2,2,0,82,16,43,1
3,16,16,16,11,19,1
1,37,61,2,2,23,0
4,4,4,2,1,11,0
43,0,13,19,11,47,1
40,12,2,13,9,21,1
3,6,13,9,18,3,2
1,2,39,2,0,53,6
9,15,2,3,2,76,5
18,7,20,7,9,14,1
21,6,13,4,6,7,0
2,3,5,2,1,58,1
3,19,5,17,0,15,1
6,35,21,17,8,4,2
17,2,2,21,2,0,2
7,3,50,2,18,7,1
1,11,21,41,2,1,0
3,3,2,5,1,87,1
1,32,19,38,15,53,2
20,4,8,25,2,8,9
28,42,4,9,12,2,1
3,11,18,73,3,33,0
1,3,20,5,3,16,0
7,4,11,19,1,35,0
6,15,10,53,4,10,0
1,3,31,5,13,5,1
3,0,25,1,5,46,1
5,41,12,11,2,6,1
13,16,3,8,2,4,1
10,9,62,7,15,11,2
35,8,27,6,2,41,1
25,6,7,21,1,103,1
2,1,12,6,2,41,4
8,26,27,2,2,6,3
3,5,3,1,2,3,4
17,22,35,35,9,4,1
11,4,15,5,9,19,0
2,3,3,7,2,38,1
37,4,48,21,6,3,1
32,7,6,2,12,1,1
11,14,14,53,3,21,9
6,5,8,32,2,64,5
9,2,1,6,1,4,0
5,6,11,9,4,2,2
3,66,15,1,2,41,0
1,10,22,27,1,51,0
6,1,2,3,14,54,0
3,17,12,15,2,9,3
7,5,7,15,2,10,1
10,3,35,2,3,2,1
11,2,1,13,6,23,1
76,15,3,11,1,50,1
55,17,7,1,3,10,2
5,1,14,47,2,30,0
14,28,10,16,1,51,1
7,4,37,3,6,12,2
81,5,2,4,12,57,28
9,28,7,25,2,34,14
1,23,6,2,8,3,5
41,5,1,37,4,49,2
3,3,29,14,4,14,1
0,16,43,6,4,10,0
18,3,11,2,4,3,1
26,20,3,2,3,22,1
8,19,48,10,2,66,1
2,2,8,45,16,11,0
33,8,3,11,3,3,4
27,21,6,30,2,80,2
7,5,10,11,21,10,1
19,9,6,8,9,12,0
2,4,30,20,6,3,3
8,42,3,26,1,22,2
4,31,8,10,3,19,0
2,8,3,30,1,31,5
21,10,38,12,22,6,3
9,2,11,4,1,60,1
1,0,1,2,6,6,1
1,37,47,39,5,4,2
7,45,23,28,1,14,1
18,4,2,6,7,30,1
3,4,15,3,3,14,0
0,26,9,11,1,1,3
15,14,36,14,3,25,1
13,2,6,3,3,58,1
20,14,6,5,3,3,3
3,10,1,1,4,8,1
1,17,14,1,4,62,0
10,1,20,14,3,63,6
7,29,17,21,1,33,6
5,7,5,12,12,3,2
8,7,33,2,1,32,4
20,4,34,17,22,39,2
3,2,18,9,17,34,3
1,14,13,2,1,3,0
3,32,20,47,2,69,6
8,3,3,14,17,22,3
3,3,19,2,1,6,1
20,4,19,7,12,0,3
2,10,35,7,2,8,2
29,19,12,41,5,43,5
16,8,1,27,2,62,2
8,11,51,3,9,42,2
5,35,7,6,14,2,4
2,11,26,8,8,51,6
26,2,11,5,3,3,4
6,4,36,2,1,52,1
2,2,2,24,1,55,8
1,2,0,25,8,30,2
6,38,32,5,5,5,4
11,25,12,19,5,1,3
8,3,9,2,10,2,1
23,4,2,15,3,51,3
6,2,4,10,0,65,1
1,11,25,10,13,12,0
37,3,12,35,6,2,7
10,3,13,3,2,42,2
1,3,4,2,1,23,1
31,2,19,20,2,12,4
1,23,10,2,6,6,2
7,8,31,2,2,11,1
9,10,3,10,0,41,2
1,3,0,34,19,43,2
15,5,14,4,14,9,2
19,18,15,11,3,29,1
9,9,9,0,0,2,4
3,8,3,4,0,85,1
2,15,18,27,1,19,1
6,4,44,12,23,19,3
33,30,2,28,3,6,5
3,6,1,14,1,49,6
5,6,1,2,24,5,8
6,1,14,11,4,175,1
4,28,20,5,12,7,10
3,12,14,47,1,3,1
1,7,9,11,0,72,10
8,2,53,1,12,23,1
9,1,2,2,5,9,3
25,6,24,6,11,40,1
7,18,11,36,2,24,0
1,7,17,75,2,10,1
2,9,26,6,9,54,2
31,3,3,11,19,21,0
13,63,9,1,1,8,4
3,34,9,2,1,2,2
1,7,8,6,2,14,2
2,2,25,8,15,27,3
1,1,4,35,8,3,0
23,4,3,28,1,27,1
8,11,10,4,18,49,1
0,4,29,12,2,4,3
89,27,4,49,1,24,9
13,2,2,20,1,15,2
32,31,2,5,0,72,0
6,24,19,0,17,8,3
2,4,10,12,1,8,2
3,7,27,6,15,14,3
2,3,3,43,4,8,0
17,5,8,17,2,12,1
23,21,12,10,1,23,2
3,12,32,6,1,4,3
2,2,8,1,0,33,4
2,30,6,2,10,7,1
19,20,5,10,20,29,1
9,9,27,29,2,17,0
2,3,10,2,3,25,32
1,5,2,71,5,24,19
43,17,12,5,24,22,4
49,3,6,40,3,30,3
12,60,99,15,2,3,1
5,7,8,3,8,5,3
1,3,1,9,33,93,3
2,1,23,26,4,19,3
1,12,37,8,2,8,2
9,21,12,4,3,1,4
6,0,8,1,4,58,0
12,36,27,65,1,11,1
5,19,3,5,0,3,1
4,11,5,15,2,62,0
4,17,12,3,7,59,2
3,30,20,43,4,13,1
5,55,28,11,2,10,2
14,8,8,2,3,1,4
3,6,5,18,6,35,2
20,24,25,25,2,77,2
9,4,2,18,2,20,1
9,3,18,1,3,62,2
26,16,17,68,4,24,2
6,14,16,39,3,9,1
2,6,4,4,1,9,0
13,3,1,12,1,38,1
8,2,4,5,18,29,6
13,1,4,24,36,12,2
1,0,15,53,4,16,13
3,23,20,5,1,2,2
2,16,3,9,0,2,2
0,2,3,1,0,41,1
13,2,4,13,14,35,5
50,6,8,13,6,6,3
20,23,7,50,3,89,0
2,19,58,9,22,4,5
1,11,46,3,5,69,2
3,8,7,3,3,30,2
9,32,1,14,51,7,0
2,5,6,26,10,13,10
2,16,2,6,18,26,2
10,19,1,3,4,4,5
16,3,14,1,2,19,1
5,3,26,54,26,3,6
0,11,30,8,46,3,4
35,16,3,11,5,0,1
4,20,19,7,1,0,2
9,2,7,21,13,2,3
3,4,2,2,3,17,3
3,3,18,10,3,26,1
17,9,22,5,17,11,5
2,20,3,11,7,2,1
12,6,1,70,1,18,1
2,1,24,15,1,2,0
40,26,14,1,25,2,1
21,11,2,0,4,31,1
4,18,12,7,16,12,2
19,4,17,0,0,8,4
7,6,12,19,22,3,11
4,2,5,20,6,9,5
4,19,34,5,38,12,2
2,2,12,1,3,17,2
0,45,8,1,9,1,13
0,23,10,42,8,8,10
34,3,12,14,6,28,2
10,11,44,12,3,13,6
1,1,32,1,10,17,1
8,16,10,0,5,1,8
1,4,2,3,33,28,4
18,1,9,3,5,14,2
6,17,19,2,3,3,6
4,1,8,6,25,2,3
0,25,29,8,8,1,1
2,6,29,12,2,1,1
13,15,3,11,2,2,2
10,5,1,3,6,18,5
5,2,21,34,5,1,14
0,9,4,4,38,4,2
1,18,13,22,5,2,0
38,15,17,10,4,4,5
11,10,36,5,1,3,4
6,16,5,13,14,2,3
4,1,5,4,115,8,2
1,18,3,1,5,43,3
94,6,2,22,51,4,2
65,10,3,2,14,2,2
5,2,10,10,3,2,2
8,29,7,14,3,3,1
2,11,2,3,10,1,3
15,13,2,1,116,1,15
14,7,1,0,5,2,6
4,6,0,0,5,0,1
4,10,11,2,15,1,2
15,9,7,1,16,4,11
4,2,1,11,14,2,1
1,4,10,5,1,2,5
27,3,2,2,23,1,6
2,1,2,18,46,1,2
28,24,1,6,11,2,0
4,19,22,5,6,3,5
23,0,4,7,2,1,15
4,2,4,5,31,1,12
4,0,30,1,10,2,3
6,22,4,2,83,2,10
17,5,27,13,19,2,3
6,1,14,14,24,1,40
2,12,2,2,22,2,9
0,20,20,1,13,2,4
4,46,2,1,33,12,7
8,7,3,2,10,2,2
50,2,1,26,41,3,0
6,6,2,11,7,3,0
5,1,2,1,35,2,11
9,15,7,0,31,2,1
17,53,7,2,1,0,10
3,4,2,43,97,2,1
7,1,0,11,20,3,4
40,0,2,6,7,0,2
3,10,2,3,39,4,1
28,49,2,0,13,2,1
11,13,7,1,34,8,2
3,1,11,1,5,4,2
4,1,1,0,26,1,3
1,25,0,7,20,4,2
0,5,2,56,84,3,2
6,2,0,7,71,2,8
3,33,3,1,3,1,4
2,5,2,19,55,4,3
15,2,3,3,13,3,3
4,3,5,1,12,1,2
10,8,0,21,6,4,1
11,44,0,41,30,1,1
12,3,6,5,7,2,0
12,2,2,7,166,2,7
3,49,3,9,5,3,2
8,6,17,6,10,2,0
32,27,11,4,31,1,6
7,5,2,2,45,0,13
3,10,1,19,36,28,2
10,9,14,14,23,16,4
5,20,8,3,9,2,1
8,3,14,23,11,2,4
7,2,1,10,39,9,7
9,6,1,2,4,9,5
7,4,0,7,13,9,7
3,36,2,3,53,10,2
2,2,5,4,22,2,4
2,4,2,5,3,2,3
7,1,1,32,41,3,1
34,42,14,3,8,2,3
8,3,1,1,2,1,2
4,3,19,2,22,0,0
0,14,5,0,20,2,2
12,10,2,0,5,2,2
7,29,0,0,7,7,1
11,2,0,2,96,1,3
0,13,1,14,5,0,2
7,20,0,3,5,0,1
7,2,4,1,2,16,1
18,0,14,1,26,2,1
1,15,28,2,11,1,0
1,23,3,2,14,3,0
20,2,1,1,13,0,0
9,0,2,8,9,1,1
22,1,1,3,16,2,1
11,29,23,1,15,1,1
3,9,10,2,3,2,0
15,12,3,6,9,2,1
6,4,1,3,10,0,3
11,27,0,2,5,1,3
1,4,0,0,17,8,3
6,1,0,1,3,0,2
3,30,1,1,11,2,0
58,4,1,72,10,6,1
4,14,0,10,46,1,0
11,1,2,1,9,1,1
3,6,3,1,9,3,1
3,1,27,20,15,11,4
8,5,6,1,10,2,1
41,22,3,0,5,2,4
4,10,15,0,36,2,3
3,11,5,2,4,3,2
33,2,1,14,0,0,1
24,21,6,2,29,0,2
16,9,12,1,3,1,1
23,19,5,3,12,2,0
5,7,22,19,14,3,1
24,26,1,1,3,25,0
22,3,1,0,7,7,1
2,7,3,10,5,3,3
2,14,1,2,3,1,3
9,22,6,1,9,8,2
9,2,3,0,23,2,7
11,15,2,6,7,2,1
2,9,0,45,6,0,0
1,1,1,6,30,1,0
3,12,2,2,10,2,1
3,17,5,1,2,0,1
1,2,0,1,9,1,0
16,2,3,1,15,0,2
5,35,2,2,8,1,2
2,10,2,10,16,1,5
8,3,6,3,29,5,3
10,39,1,0,6,4,2
41,14,1,1,5,0,1
9,4,2,1,5,5,0
2,7,6,1,5,1,1
22,13,3,2,1,0,0
4,15,3,12,7,1,2
11,6,0,9,12,1,1
13,10,0,1,4,0,0
3,10,1,0,7,5,2
0,3,3,1,13,9,2
14,2,15,4,15,3,26
10,4,5,10,11,8,14
2,33,0,2,19,0,2
2,13,10,2,17,3,3
36,3,3,1,13,0,3
9,1,0,13,24,2,0
4,16,1,5,3,1,0
2,4,2,4,2,1,0
0,0,0,1,84,24,2
3,1,1,1,7,3,1
24,8,3,1,1,1,0
2,33,1,3,2,3,2
8,8,5,2,35,1,4
7,5,4,2,12,3,1
4,2,2,0,2,3,1
15,15,1,2,18,2,3
7,2,2,9,4,0,2
1,44,5,2,8,0,1
6,5,11,1,1,1,2
36,2,3,0,4,2,5
9,7,0,14,3,1,1
3,20,18,3,1,0,0
18,1,1,1,2,2,1
9,47,10,17,9,21,0
5,3,1,1,3,1,1
10,1,1,1,23,5,1
1,4,3,1,9,2,2
2,32,6,1,2,1,2
14,2,9,6,14,0,2
6,5,2,4,4,0,2
5,11,2,6,5,1,1
2,21,9,6,4,4,2
5,6,2,2,17,2,1
2,1,1,1,11,3,2
42,0,9,1,3,3,2
2,22,22,0,1,2,1
2,2,3,0,15,3,1
0,5,1,6,6,2,1
0,1,4,3,12,2,1
10,32,15,1,6,3,0
2,22,2,1,9,2,6
22,9,5,0,7,1,2
17,16,1,1,10,2,1
2,3,1,0,2,2,1
6,2,4,0,19,1,1
2,33,5,9,5,2,0
3,3,1,27,0,14,4
2,14,2,3,5,3,0
2,14,16,1,5,2,1
12,1,3,2,3,2,1
26,8,10,1,8,14,0
28,47,11,23,25,2,6
2,4,6,5,4,2,4
23,0,3,8,7,2,1
1,2,0,3,11,12,2
2,58,0,1,10,7,1
2,3,2,2,2,2,1
29,9,6,2,24,0,0
4,9,2,2,2,4,0
1,4,6,0,2,1,0
18,6,3,13,47,1,2
2,12,0,4,6,2,1
1,3,1,1,9,3,1
0,1,18,1,2,2,3
2,1,5,2,2,2,2
27,47,1,1,1,0,1
3,6,0,1,4,4,1
1,3,0,0,10,2,0
128,11,2,2,2,1,0
33,1,2,10,6,17,2
6,6,2,10,14,3,0
2,5,2,3,3,2,1
4,14,2,0,9,1,2
0,2,7,0,2,0,5
4,1,3,0,12,8,0
2,20,7,39,1,2,1
16,33,1,6,17,2,2
1,14,2,3,7,0,1
1,2,2,1,21,1,1
2,1,5,2,3,1,1
19,2,2,2,27,5,1
19,9,1,7,15,2,1
3,10,1,21,0,2,4
5,5,3,3,5,1,0
3,19,0,1,2,1,0
4,2,0,0,5,0,3
1,2,1,0,12,33,3
5,42,10,7,3,50,4
16,35,2,13,1,4,0
2,10,1,1,3,1,0
21,24,1,2,0,0,0
3,3,6,1,46,2,1
4,16,12,1,4,0,1
2,1,1,24,1,3,0
5,9,2,3,9,1,0
2,1,1,1,4,1,0
1,10,7,5,5,0,0
16,9,7,2,3,1,1
9,8,2,2,10,0,2
4,2,0,2,7,0,10
19,0,1,4,3,2,4
4,7,2,20,1,3,2
1,6,9,4,22,1,1
4,2,2,2,1,13,1
5,2,0,0,4,2,1
1,8,0,0,10,4,1
6,4,0,16,3,2,1
3,3,1,10,2,1,8
1,11,1,4,10,4,0
6,12,3,1,8,3,33
1,5,0,1,2,1,3
3,2,3,5,7,8,1
2,0,11,3,3,1,2
39,4,3,0,7,2,1
4,10,0,1,3,0,5
3,17,1,11,17,1,4
22,2,0,2,3,1,2
14,1,1,14,1,2,1
5,2,0,2,5,6,3
6,2,2,0,1,2,3
4,4,7,1,3,2,1
0,1,14,0,5,1,2
9,7,3,0,2,0,1
22,3,1,4,7,1,0
2,17,1,13,2,1,9
1,4,2,6,13,4,1
2,10,1,3,17,23,1
24,6,1,2,4,3,1
15,10,10,1,6,2,1
2,3,7,0,15,1,4
21,22,2,15,2,2,1
19,7,1,5,13,1,1
2,1,1,6,8,0,1
8,2,4,3,1,2,1
1,6,0,0,7,3,0
1,4,0,1,39,5,1
1,0,1,0,15,1,2
2,4,1,0,1,0,1
3,6,3,4,3,3,8
34,2,1,16,26,1,4
6,14,0,4,5,1,1
4,1,3,5,3,14,2
1,9,2,1,1,1,1
1,2,1,2,2,6,0
8,20,1,1,1,11,1
35,1,0,1,6,1,1
2,2,0,0,2,0,5
5,2,0,1,11,2,0
14,5,0,2,8,5,0
8,25,6,2,5,7,1
1,3,3,1,1,5,2
3,1,1,2,15,6,4
45,10,4,8,19,3,1
17,4,1,3,5,1,2
2,3,4,5,1,0,1
9,4,3,1,13,6,0
2,1,0,1,1,2,2
1,2,2,4,2,1,9
7,6,1,25,10,1,3
1,2,3,4,8,2,2
16,17,1,2,1,6,2
7,12,20,0,19,5,0
1,7,2,1,2,1,1
13,4,0,4,7,1,1
17,13,1,2,5,2,1
0,6,2,1,6,18,3
16,5,3,1,4,2,3
35,1,1,4,25,2,1
85,0,2,1,2,1,1
31,0,9,0,5,3,1
15,19,4,2,1,18,2
1,9,4,5,14,3,0
7,20,3,6,25,1,1
2,5,0,2,3,0,2
1,9,1,1,2,1,1
3,3,4,0,4,1,1
4,0,3,2,8,3,1
24,2,1,1,6,1,1
3,3,5,23,11,0,2
1,2,0,2,8,1,2
10,2,3,7,6,6,2
17,2,2,6,1,2,1
29,12,4,1,6,0,0
3,11,1,2,2,2,1
1,1,1,1,30,4,0
13,2,0,1,6,0,2
12,3,2,5,11,2,1
8,8,0,11,1,0,0
2,13,2,1,4,22,1
4,13,3,0,5,4,0
13,5,6,14,5,1,3
3,1,1,4,15,0,3
1,5,1,2,2,2,5
1,25,1,0,4,1,3
14,8,1,2,13,1,0
52,3,4,2,3,0,2
12,6,2,36,16,10,2
1,28,2,7,2,3,2
2,16,8,2,0,2,1
24,1,8,1,2,2,1
2,0,4,0,10,0,2
4,29,1,1,6,3,2
17,1,1,0,3,4,1
15,30,2,2,3,6,2
6,10,1,3,2,1,0
36,2,6,6,7,0,0
4,38,1,1,12,0,3
2,20,1,0,4,1,6
3,5,2,1,15,0,6
0,11,2,27,3,2,2
15,37,0,5,18,0,1
4,5,1,2,2,13,2
4,12,2,2,10,18,0
5,21,5,0,10,2,1
8,2,1,0,9,0,1
1,0,0,6,3,1,1
4,3,3,10,2,2,5
1,2,0,3,1,0,1
1,23,5,1,11,1,33
3,65,5,9,2,0,8
2,8,2,4,1,2,6
5,5,4,1,8,1,3
1,2,1,2,7,0,0
30,5,1,0,2,0,3
22,2,0,0,4,2,3
4,42,4,2,1,1,1
2,3,3,11,1,1,2
18,3,2,7,11,4,1
2,16,1,3,9,2,2
1,11,1,1,8,1,2
6,7,1,1,2,7,4
1,10,4,2,0,1,6
11,5,6,18,2,0,3
10,63,3,2,34,1,2
3,16,0,1,9,1,0
5,7,1,0,3,13,1
3,4,1,12,15,13,3
14,6,3,5,2,2,9
14,7,5,1,8,4,11
13,4,10,6,6,2,1
15,1,3,13,4,1,1
3,1,9,6,5,1,1
1,25,1,0,17,1,2
0,2,1,1,14,1,2
2,10,4,0,8,0,1
0,2,2,1,4,5,1
7,1,1,3,2,8,2
10,1,1,8,14,7,7
4,30,3,2,7,0,2
1,6,1,1,2,2,3
1,2,0,16,14,11,1
1,5,1,1,2,5,2
16,2,3,0,4,2,1
11,9,2,6,6,2,4
2,6,7,1,2,4,1
2,2,10,19,2,0,2
2,1,0,15,1,0,1
4,33,3,2,7,2,1
4,17,2,1,0,1,1
1,1,3,2,23,2,2
6,5,0,11,2,2,0
3,3,5,1,2,1,2
1,1,2,1,5,2,3
8,8,9,1,9,0,1
6,6,4,2,1,5,1
2,6,2,0,15,2,0
2,3,1,2,2,3,3
63,3,1,1,17,2,2
49,0,2,1,3,1,0
18,1,2,39,21,2,0
1,2,6,8,6,1,0
1,5,1,1,2,1,0
16,1,0,2,2,1,2
3,8,0,0,7,0,2
2,9,2,9,4,1,1
0,3,1,2,3,5,3
0,1,3,2,0,5,2
4,6,2,4,16,0,1
2,5,1,11,2,1,2
1,2,1,1,4,9,2
2,2,1,6,8,2,0
5,5,0,1,2,2,1
2,6,3,1,27,6,3
0,1,0,1,5,5,4
1,7,3,1,6,2,3
3,1,2,1,3,4,2
1,9,2,1,17,1,0
7,3,8,1,4,1,1
18,2,2,12,6,1,0
2,9,3,21,3,1,1
2,2,2,2,4,7,2
1,2,3,1,2,2,0
6,1,2,2,3,4,1
20,1,3,1,3,0,2
2,16,1,0,0,2,1
1,3,4,13,11,0,1
2,17,10,2,13,2,1
2,1,3,2,7,5,1
27,3,1,1,3,2,0
5,8,1,0,0,1,0
2,10,5,10,0,0,3
0,4,2,11,17,1,1
3,1,4,7,3,1,1
4,2,0,2,14,1,3
2,2,2,10,4,1,2
1,3,1,4,4,0,1
2,5,0,0,1,1,2
1,1,3,1,8,9,2
2,7,1,1,11,3,0
1,2,1,14,16,1,0
5,5,2,3,16,4,1
2,5,2,1,2,4,4
1,8,1,2,7,15,7
1,3,0,1,3,3,1
7,0,2,1,8,2,0
2,1,2,0,4,1,2
0,0,1,1,4,2,0
1,27,2,8,0,1,1
7,4,4,48,21,1,2
6,9,2,3,2,1,0
0,5,2,2,0,2,2
0,2,2,0,1,0,1
2,3,0,1,6,5,1
7,1,1,1,6,3,0
9,2,2,14,5,0,2
1,1,1,3,6,0,0
2,2,0,5,2,0,7
0,4,1,4,11,6,30
0,5,0,3,2,10,6
0,2,1,2,12,2,2
4,1,1,0,2,0,1
6,6,0,2,16,2,2
2,14,0,2,13,7,4
0,10,15,0,4,2,1
3,1,6,0,9,0,2
2,2,2,32,3,0,1
0,5,0,5,4,4,2
1,9,1,5,22,1,1
20,2,2,3,4,3,1
2,2,1,1,8,1,2
1,6,1,0,8,1,1
1,19,5,0,4,3,0
1,5,5,2,7,2,6
2,1,2,0,1,1,1
1,4,13,2,0,3,1
1,1,3,21,7,2,2
6,1,1,7,4,1,4
4,1,1,2,4,0,2
2,3,9,0,3,1,0
0,3,5,4,4,8,1
1,11,1,3,5,1,2
5,2,2,2,2,1,0
5,1,2,0,0,16,1
2,3,1,2,1,23,1
0,2,1,1,6,3,3
2,2,3,2,1,1,1
2,3,18,9,7,0,1
2,5,3,26,3,0,2
2,7,2,7,10,2,1
1,2,2,1,3,6,3
7,4,5,1,3,5,2
8,1,2,1,2,6,0
3,2,1,6,1,3,0
1,1,2,14,17,2,6
0,9,2,3,16,1,0
9,3,0,1,13,8,2
3,4,1,0,7,2,1
0,6,1,4,4,8,0
0,1,5,3,1,6,0
1,2,1,4,30,2,1
0,11,1,2,3,1,1
2,1,0,0,1,2,3
1,12,2,3,13,1,1
1,3,1,4,5,2,2
80,2,14,2,8,1,1
39,2,4,1,2,2,2
11,1,3,5,16,0,1
6,5,3,11,2,6,0
1,2,0,2,10,21,0
0,2,1,1,3,2,7
1,11,1,2,2,1,16
12,7,0,11,1,1,2
9,2,2,18,4,1,1
3,5,0,1,3,1,1
0,6,1,3,1,1,1
1,16,1,0,0,1,5
1,2,0,5,3,2,9
1,0,2,1,5,5,1
8,3,2,3,3,0,1
2,2,2,1,7,4,2
1,1,0,1,5,4,4
1,10,0,2,4,2,2
1,3,0,1,1,1,2
2,2,0,2,8,0,1
1,0,0,3,7,1,1
10,2,7,2,6,1,2
5,2,9,1,33,4,2
2,0,2,0,2,1,3
2,3,2,9,1,8,1
1,2,2,0,11,2,4
0,1,2,1,2,1,1
2,5,6,0,10,0,0
4,9,1,53,4,3,2
13,2,1,8,12,9,0
2,2,2,2,9,2,2
2,4,8,2,1,0,14
1,1,1,2,1,1,4
2,0,1,1,1,0,0
12,12,2,5,3,7,2
2,4,0,0,11,31,3
1,1,0,1,5,2,1
2,3,0,2,2,3,1
0,4,1,1,11,1,2
0,2,1,0,5,0,1
1,1,1,1,3,0,1
3,1,3,0,1,1,1
22,2,1,3,7,1,2
3,5,2,3,8,2,1
6,11,1,2,4,3,0
2,2,2,2,9,2,1
1,2,2,12,3,1,2
1,2,2,6,2,4,4
2,13,2,1,5,4,3
5,2,1,1,15,2,2
4,2,0,1,6,1,1
2,4,2,5,2,6,0
0,2,1,32,3,2,1
7,2,0,4,14,0,5
13,0,13,3,5,1,2
9,1,1,2,17,3,2
2,1,5,0,3,0,1
4,6,3,2,13,1,2
0,2,1,1,1,0,0
1,1,2,12,8,1,2
9,1,2,1,1,3,1
2,6,0,9,2,2,32
1,9,1,3,9,1,16
7,3,1,0,9,4,2
3,0,1,0,12,4,1
0,2,1,1,0,0,2
0,7,2,2,3,4,1
0,10,1,0,6,2,3
2,4,1,0,6,3,4
8,2,1,1,7,1,0
3,8,7,19,14,15,0
2,2,0,1,1,2,1
1,2,3,1,0,5,1
4,5,2,1,6,1,0
10,2,0,0,2,1,1
2,1,0,5,1,2,2
4,2,3,38,11,0,1
2,14,4,6,2,0,0
1,5,1,2,7,2,7
3,1,2,0,2,1,3
5,2,2,3,13,0,1
2,2,4,5,2,25,1
2,4,2,5,12,2,2
1,2,0,1,6,1,0
1,1,0,0,1,2,1
5,0,2,6,4,1,1
6,1,7,3,2,3,2
2,3,1,1,0,1,5
1,2,0,1,1,1,2
3,4,1,1,2,0,4
6,2,2,11,29,0,3
3,3,6,3,4,10,0
5,4,0,2,1,2,1
4,3,2,3,2,0,1
1,4,0,2,11,2,0
1,3,3,22,8,8,0
2,2,2,8,8,1,2
2,1,4,1,3,1,8
5,1,1,1,15,0,3
3,5,1,0,9,0,1
6,6,1,1,5,2,0
5,0,4,1,1,2,2
2,10,1,6,22,2,2
5,8,6,31,5,0,0
2,3,2,3,7,1,0
0,1,0,2,2,2,3
75,0,0,1,15,4,2
29,0,5,0,15,1,8
3,2,1,0,10,2,2
1,1,1,0,5,1,0
11,1,0,9,9,0,0
2,4,1,17,6,2,0
0,1,7,8,13,4,1
2,1,2,1,16,1,1
1,1,3,1,2,0,2
5,10,1,2,2,6,7
1,3,8,3,2,10,0
0,0,6,1,3,6,0
0,4,2,1,1,1,0
1,1,0,1,13,1,3
1,0,2,4,2,0,1
3,2,2,3,2,0,2
10,2,1,1,8,0,2
2,2,1,1,24,1,2
0,1,9,1,2,0,0
1,10,1,2,1,1,1
8,2,3,2,49,0,1
8,1,2,2,17,1,1
2,0,4,2,7,5,2
4,2,0,43,2,2,0
2,0,1,9,1,0,0
1,1,2,2,3,15,1
0,2,2,1,4,2,0
0,8,2,2,8,0,10
2,6,0,10,2,0,2
17,2,0,2,2,3,2
4,7,1,2,6,2,0
2,1,2,2,2,0,1
1,2,2,5,1,2,1
2,13,1,9,5,6,0
2,3,12,2,3,7,0
2,0,1,1,2,2,2
2,6,1,1,6,1,0
0,1,0,2,3,2,1
3,2,0,1,11,13,3
4,1,6,2,11,5,1
4,7,2,0,2,2,1
2,4,1,1,7,0,1
2,2,1,64,7,1,1
7,1,1,6,2,0,1
24,2,14,1,2,0,1
2,1,1,0,6,2,1
1,3,2,3,15,1,3
1,0,2,2,3,1,0
2,8,3,4,5,2,4
0,4,9,0,3,2,1
6,2,7,1,2,1,0
16,0,2,0,5,0,2
1,1,2,2,3,2,0
1,17,1,2,3,11,4
2,4,2,10,1,5,1
1,2,3,6,14,0,4
12,0,3,0,19,2,1
6,1,0,1,18,0,1
1,0,0,0,8,5,1
1,1,4,1,4,0,6
0,1,3,1,1,2,5
1,4,1,1,5,1,2
1,10,3,42,2,1,2
3,4,1,7,1,3,27
2,1,2,2,2,0,13
2,6,3,2,10,0,2
3,1,1,2,4,0,5
2,2,1,2,1,1,1
1,2,0,1,4,1,1
1,5,3,2,5,3,1
2,6,3,1,0,1,2
1,13,1,0,9,1,1
2,2,2,1,9,14,10
1,0,2,4,6,4,3
4,2,1,6,5,1,2
3,2,4,5,2,3,1
1,6,2,5,1,4,4
1,2,0,2,5,1,2
3,1,0,2,12,0,2
0,2,0,1,1,2,0
2,3,1,0,2,2,0
1,1,0,6,4,1,2
4,1,2,4,8,3,0
12,2,0,2,5,9,1
13,0,0,2,26,2,6
1,0,3,10,1,0,4
1,1,1,1,4,1,2
2,3,16,1,2,0,0
1,1,5,1,12,1,2
11,2,1,41,2,1,2
4,2,1,11,6,2,0
4,4,4,0,3,1,1
11,4,1,1,19,1,3
2,5,5,1,6,0,3
2,1,1,1,0,2,2
1,3,1,3,1,1,1
4,0,2,16,26,1,1
4,1,2,5,4,15,1
2,2,9,0,3,3,0
6,1,1,0,9,2,0
2,7,4,1,2,2,3
1,13,3,1,4,1,2
1,2,0,1,3,0,2
0,1,0,2,6,0,1
2,0,1,4,6,3,2
13,0,1,28,1,1,0
48,7,13,7,15,1,0
23,2,3,1,5,11,5
2,5,3,2,3,2,1
1,1,2,0,15,3,0
8,1,1,0,6,2,2
3,7,2,3,8,0,4
0,2,6,36,9,1,0
1,6,3,8,3,1,0
0,3,0,3,2,2,0
1,1,1,1,3,0,0
4,1,2,0,3,6,2
1,2,3,11,1,6,9
3,11,12,7,13,0,2
5,2,5,1,12,0,1
0,0,4,2,6,4,1
1,0,3,0,3,5,0
0,2,1,2,1,1,2
6,6,12,0,8,8,2
9,2,16,6,10,2,1
3,1,3,4,1,1,0
1,0,2,2,17,3,2
2,1,0,8,14,2,15
2,5,4,2,12,2,4
0,2,2,1,15,6,0
0,2,7,1,2,2,1
1,0,6,1,44,3,2
32,1,9,2,4,9,2
4,7,1,6,1,4,1
2,6,2,34,2,0,0
2,1,1,17,14,1,10
2,3,0,2,24,1,1
6,1,4,2,6,5,1
5,5,2,1,2,11,1
1,2,1,41,9,2,1
1,6,1,130,11,1,1
2,4,3,8,5,1,1
1,2,3,1,23,3,1
1,0,3,2,3,1,2
1,2,0,1,13,1,2
1,1,3,1,5,3,1
19,1,1,29,0,1,0
15,2,1,73,11,0,1
0,1,4,4,8,1,0
1,8,9,2,4,8,0
0,5,1,40,10,1,1
3,2,0,59,0,1,1
0,1,1,5,2,0,4
1,2,1,1,5,1,3
2,2,2,17,1,5,2
0,1,9,27,19,2,2
2,1,3,3,5,2,0
1,3,3,45,5,2,1
5,3,5,21,2,6,2
1,1,0,1,2,2,2
0,2,0,4,1,6,4
2,1,2,85,6,2,1
2,2,4,19,7,0,1
1,1,8,3,12,7,1
11,3,2,1,3,2,0
6,6,0,6,3,1,0
6,5,0,42,6,14,1
3,1,7,6,5,3,2
3,1,14,1,1,2,1
0,2,5,1,2,19,3
2,4,1,1,21,3,2
1,0,2,0,3,1,34
1,2,6,29,1,2,14
4,1,1,116,1,3,7
3,5,1,6,9,2,1
4,1,2,6,1,2,2
5,0,1,152,15,2,2
7,4,3,5,3,25,1
2,2,0,8,23,8,0
1,2,1,20,3,2,3
1,1,2,30,9,1,3
16,5,2,2,3,12,1
12,3,2,56,9,11,0
2,0,1,34,2,4,0
0,2,8,1,1,33,2
0,3,3,59,10,11,1
3,2,1,73,1,2,1
2,2,3,7,0,2,1
2,3,8,2,0,11,5
1,0,2,53,6,33,9
6,2,2,10,0,17,5
4,3,2,37,10,40,2
1,2,1,16,2,6,2
1,1,4,79,0,42,1
1,1,2,16,4,32,1
14,7,5,6,2,2,1
6,2,2,3,8,25,1
11,3,1,1,2,28,3
1,1,7,68,0,7,2
1,2,5,32,3,21,1
7,1,2,4,1,8,1
5,2,14,171,4,41,0
2,3,9,100,12,32,4
6,4,2,4,2,4,1
1,1,0,50,1,36,0
1,1,4,47,7,59,3
0,1,2,3,15,3,2
1,2,2,1,7,86,1
3,12,6,107,1,81,1
14,0,6,15,0,21,2
2,1,1,109,10,4,3
72,5,8,9,8,281,4
21,2,19,0,16,19,0
12,7,3,21,21,4,1
3,2,2,9,4,177,2
7,3,14,182,15,42,2
2,1,3,16,2,3,6
2,2,11,1,9,2,2
0,4,53,161,18,163,1
2,1,7,11,6,70,1
2,2,4,188,11,6,0
1,2,3,11,17,137,1
8,2,4,4,6,155,3
1,1,9,47,4,6,2
1,3,8,36,19,350,1
0,0,1,26,8,197,0
1,2,0,9,2,25,1
2,6,44,1,24,143,1
2,9,26,52,9,146,1
7,4,6,4,2,10,1
2,1,10,22,1,117,4
10,2,9,69,74,5,4
8,2,20,101,9,120,1
2,1,4,23,70,160,2
2,2,2,1,27,34,1
0,2,58,166,5,47,3
10,2,12,50,14,60,1
3,1,57,6,4,94,5
5,1,2,44,28,18,1
1,0,6,26,3,98,1
1,1,35,48,44,57,2
1,2,110,8,50,51,2
1,2,7,1,15,9,1
0,1,11,0,9,10,1
2,1,36,39,40,254,1
2,4,8,23,55,10,2
12,2,1,2,45,51,0
4,3,48,3,4,80,1
4,2,15,82,2,12,2
1,0,16,22,1,119,5
2,2,7,1,23,120,0
3,1,2,22,26,29,1
1,6,66,57,35,66,0
2,6,16,6,8,264,1
3,2,9,5,2,14,0
1,4,142,28,11,75,0
1,0,4,94,4,38,3
1,2,43,7,1,63,8
5,1,139,95,34,46,3
1,0,11,10,1,7,1
2,4,2,19,79,21,0
8,2,53,35,29,177,0
3,2,113,15,23,14,1
0,1,4,40,1,168,4
1,3,52,46,2,102,1
2,2,64,9,17,54,1
1,5,13,4,59,15,2
2,4,34,167,5,22,2
1,9,162,9,0,2,1
4,3,5,19,22,15,2
1,1,32,2,11,65,1
9,1,67,2,23,5,1
2,1,83,0,5,22,2
1,2,4,5,1,197,0
1,1,1,125,0,8,2
9,19,61,8,9,124,1
5,3,35,78,56,45,1
2,2,3,45,20,9,1
2,0,3,5,2,46,1
3,2,40,4,3,67,1
1,0,50,0,1,73,36
1,4,16,184,17,78,9
5,3,3,10,9,15,2
1,1,64,1,1,40,2
1,2,137,4,44,51,11
2,2,19,22,12,32,3
3,14,23,9,3,51,1
2,2,41,6,6,4,0
3,1,74,9,13,32,3
2,0,17,13,1,28,3
3,1,13,13,20,26,1
5,5,22,28,27,38,0
0,4,55,10,7,20,2
0,4,9,24,7,33,2
1,1,6,5,2,13,1
4,2,40,23,29,55,6
6,12,233,8,17,35,3
10,3,6,25,4,33,2
1,0,37,22,6,17,0
2,2,145,11,14,15,2
2,3,18,22,9,32,2
0,17,16,7,9,37,14
0,2,39,24,11,32,1
6,1,90,2,9,56,12
15,2,15,41,3,8,1
3,2,33,26,13,18,1
2,1,73,38,1,33,0
0,7,33,2,12,35,1
1,1,9,131,3,117,0
1,2,22,5,9,4,11
7,0,61,38,3,93,1
3,1,56,23,6,25,2
0,2,21,12,7,116,0
1,2,7,7,1,91,0
2,6,20,5,2,16,0
0,3,87,23,3,11,4
2,2,29,12,4,70,7
0,2,4,1,6,62,2
74,1,2,72,2,7,2
26,3,108,52,6,132,1
7,1,10,10,12,6,1
2,1,10,10,2,13,1
2,1,17,6,17,217,4
0,2,30,29,19,9,2
2,4,13,4,1,14,1
5,7,25,29,30,36,2
2,2,13,32,17,11,2
10,1,18,40,2,152,5
2,0,39,3,9,5,1
1,10,77,6,6,99,1
8,2,8,9,16,21,2
2,2,3,6,11,11,2
1,1,75,16,1,18,0
0,1,14,6,6,75,3
8,1,25,43,12,5,1
3,3,2,20,2,2,0
2,1,83,13,12,173,0
0,6,54,40,10,7,1
0,2,42,29,10,15,5
4,6,4,3,2,232,2
2,8,1,26,7,11,2
16,3,4,28,6,15,1
3,0,21,10,14,25,6
1,1,17,1,8,95,0
0,2,53,10,13,7,2
1,3,9,2,4,15,1
0,7,36,48,0,8,2
13,2,15,9,2,42,1
9,0,21,6,42,3,1
2,1,24,0,9,42,2
2,2,50,21,1,44,1
2,2,4,6,5,13,1
1,3,34,84,13,5,2
1,3,20,6,10,1,2
1,3,26,25,8,2,5
0,0,3,20,8,10,1
10,2,18,7,26,109,0
2,2,95,27,3,5,3
1,1,34,7,7,4,1
1,0,13,2,10,2,1
2,15,6,1,7,32,0
2,4,8,9,7,66,1
3,2,2,1,5,4,1
2,0,141,3,1,102,1
3,1,10,38,3,33,0
5,6,12,22,15,30,1
1,0,3,4,0,3,1
2,1,28,2,10,69,3
0,4,24,0,7,10,7
1,7,19,46,2,26,3
1,1,2,44,43,66,0
3,0,3,16,14,14,1
1,5,76,3,1,69,0
5,2,28,4,6,11,1
2,1,16,1,40,9,0
12,1,12,20,4,21,7
2,0,22,51,2,21,2
3,7,26,5,10,10,2
32,3,4,6,1,103,2
4,4,124,5,2,44,0
1,1,29,73,1,9,2
1,2,37,7,8,61,1
1,4,12,3,5,26,1
1,1,19,52,2,6,3
0,3,47,5,2,16,6
1,1,3,18,10,19,2
2,2,32,10,12,67,2
14,4,29,5,2,20,4
6,2,13,2,1,39,21
2,0,19,29,1,40,6
1,3,6,13,2,76,13
1,11,2,2,28,6,4
2,0,4,14,4,23,2
5,1,51,18,1,51,1
2,2,35,27,1,21,1
1,1,3,16,14,37,1
1,10,1,2,5,92,4
1,6,20,69,2,7,3
14,2,11,16,10,14,2
6,1,8,16,11,7,0
1,0,13,2,10,26,2
1,1,34,2,2,56,2
13,0,9,15,4,20,10
3,14,10,2,0,2,4
2,2,13,36,16,3,1
0,0,61,12,4,6,0
9,2,25,15,10,31,1
11,5,24,1,15,32,0
11,5,2,61,2,14,2
1,2,3,16,1,72,0
2,1,20,18,0,96,3
2,1,15,6,11,6,8
1,8,36,5,9,9,3
0,19,4,21,1,116,1
1,4,10,2,10,5,1
6,7,31,8,6,9,0
3,4,13,3,1,8,2
2,2,3,40,2,1,0
1,4,13,27,4,12,0
2,1,10,3,3,181,1
2,4,21,0,5,5,3
2,5,31,48,1,6,3
5,4,9,26,1,19,2
86,2,50,2,1,8,1
27,1,4,55,26,21,1
1,1,28,10,5,153,1
1,1,47,10,19,17,2
2,6,3,3,8,7,2
11,13,6,33,0,1,3
18,1,10,6,5,20,2
2,1,42,63,2,7,2
0,2,4,4,10,89,1
0,1,1,3,1,14,2
1,7,34,12,8,23,1
4,4,13,0,2,15,2
12,14,22,79,1,14,2
1,2,30,10,3,22,0
0,3,11,29,18,11,6
1,12,44,5,13,3,1
0,7,4,44,3,0,1
1,3,9,18,2,35,1
0,20,10,1,2,14,6
9,9,3,6,9,47,2
3,4,8,6,2,6,0
11,1,24,1,1,44,1
2,21,3,17,23,184,3
10,3,9,24,4,15,1
2,2,1,4,8,20,2
1,2,29,8,9,4,2
2,9,66,7,6,88,1
1,3,8,57,12,8,1
1,1,2,18,2,23,7
1,46,13,15,2,5,2
15,4,7,23,2,3,1
2,2,9,1,2,20,1
0,1,25,1,3,3,2
2,19,2,18,5,0,0
0,9,42,4,6,26,1
0,3,21,9,7,15,6
3,0,1,17,17,43,1
1,4,60,2,6,7,2
0,1,12,19,0,39,4
1,18,17,57,10,38,10
2,12,27,18,2,5,1
1,3,3,2,15,40,2
2,4,9,1,4,8,2
5,9,19,0,0,0,2
11,3,5,16,1,57,2
1,2,65,9,9,15,2
5,7,28,31,3,3,2
1,20,7,7,17,29,1
4,7,35,4,7,18,1
1,16,31,2,24,10,0
1,3,2,7,2,52,3
3,0,23,103,1,3,0
1,0,3,9,2,30,2
1,24,36,12,1,22,0
11,23,55,6,1,15,6
1,36,10,10,0,39,2
11,4,1,5,5,6,1
1,0,9,66,4,4,1
1,4,78,41,3,17,1
0,32,35,3,7,50,1
1,4,3,1,13,17,0
0,2,25,0,9,23,1
8,2,9,45,3,3,4
2,29,23,15,13,2,4
1,12,8,11,3,1,1
1,2,2,1,1,49,0
1,2,20,7,9,35,2
0,1,3,25,3,24,11
1,30,24,3,12,36,1
1,36,11,12,3,10,0
24,4,15,1,17,36,1
10,12,28,3,3,26,5
2,1,24,28,1,4,30
1,1,4,32,5,31,22
0,46,5,5,1,6,1
1,13,6,4,7,86,3
1,5,23,1,2,10,0
4,1,2,22,9,3,1
1,2,80,24,11,164,0
1,22,21,2,2,25,6
0,7,16,12,0,16,3
4,1,2,8,21,4,1
15,47,9,2,2,47,0
2,5,3,7,18,9,1
0,4,5,6,3,21,0
1,1,19,4,10,0,0
1,3,38,70,3,31,0
1,2,9,7,13,10,6
16,2,1,6,2,21,10
12,58,1,13,17,84,1
1,9,5,0,2,7,0
2,0,25,59,1,22,1
4,30,7,8,2,13,0
2,4,1,13,3,1,2
0,1,13,12,3,19,1
2,33,17,2,4,15,5
1,18,15,4,4,8,2
0,18,2,2,4,12,2
1,8,20,33,4,1,1
2,5,3,2,2,73,1
4,7,4,3,0,7,1
10,11,17,4,10,41,2
3,3,18,45,2,10,1
49,6,14,11,1,15,5
36,123,18,9,2,49,2
5,10,4,1,25,16,1
6,21,2,6,8,3,0
7,5,4,12,3,21,2
7,2,11,2,12,4,2
0,29,16,51,3,14,1
2,3,24,6,2,37,3
4,2,3,12,13,14,0
6,14,6,13,5,2,1
5,19,3,15,2,14,6
19,2,5,6,1,24,7
1,28,62,2,2,21,4
2,14,15,27,8,6,1
2,6,4,27,8,5,1
4,1,1,19,1,12,1
1,15,15,13,14,57,1
1,22,5,5,2,13,2
1,17,32,1,8,27,7
12,23,19,2,5,1,2
4,3,4,2,2,36,0
1,40,10,1,3,22,2
0,6,8,29,4,5,2
2,1,17,30,2,2,0
13,31,1,8,0,94,2
2,19,19,1,2,63,6
0,21,3,24,19,13,3
0,2,17,23,3,8,4
0,7,15,56,3,42,1
1,3,1,15,3,35,0
4,9,18,4,1,5,1
0,5,5,5,5,26,3
0,14,2,3,1,36,17
2,30,34,2,2,30,1
2,7,60,1,0,6,2
22,13,15,21,1,49,1
5,34,2,2,8,30,3
1,1,10,64,7,12,1
4,30,12,42,12,38,5
0,3,9,4,14,13,0
2,0,23,11,2,39,1
0,21,4,2,1,26,2
15,2,7,50,2,5,1
5,12,3,3,38,9,1
2,18,20,21,4,2,2
2,15,4,2,2,9,1
1,5,0,34,5,61,1
3,2,18,24,5,14,1
19,43,10,35,10,13,1
6,48,12,3,2,2,1
3,13,16,7,6,34,0
2,3,69,21,5,20,1
1,25,16,42,13,4,3
0,3,2,6,2,98,5
0,9,2,8,3,20,6
4,28,10,4,4,93,1
3,49,10,24,2,17,2
1,5,14,4,6,13,6
0,1,39,55,6,21,1
0,0,3,5,2,6,1
1,19,2,0,0,94,2
1,27,2,1,1,8,2
4,6,3,48,3,12,0
1,3,39,17,2,2,2
2,12,5,3,19,32,1
1,17,3,5,3,7,5
25,17,5,74,2,47,2
13,4,7,14,3,26,0
1,10,1,13,4,27,2
1,12,24,6,11,75,6
0,8,109,1,3,5,4
0,8,4,2,1,4,2
6,2,4,51,0,49,1
3,4,1,17,0,7,0
1,41,12,13,1,11,2
5,6,20,2,7,28,2
2,3,8,1,11,50,1
1,10,2,41,8,7,31
1,5,9,7,1,7,22
0,21,9,1,1,39,6
3,20,15,6,1,3,3
12,37,6,5,38,47,1
12,3,1,2,7,11,0
2,1,2,28,0,62,2
0,45,39,44,2,10,2
2,20,17,7,2,10,2
2,6,3,58,1,4,1
2,3,9,8,5,10,2
10,5,3,16,6,4,1
14,12,3,16,11,33,0
3,0,2,17,2,20,4
0,8,18,1,0,6,5
1,2,11,11,7,31,3
0,10,3,29,9,2,2
1,29,3,3,3,46,2
6,4,5,0,5,8,1
6,9,5,20,3,2,1
1,5,1,2,1,65,1
2,15,39,17,3,6,1
2,3,28,32,2,6,2
4,61,5,17,5,24,0
3,9,3,2,3,17,3
1,36,12,2,4,9,6
3,9,26,11,9,57,0
4,9,9,7,28,30,1
83,14,3,9,10,8,2
27,6,2,47,2,4,2
4,3,27,9,1,23,7
3,20,4,2,9,13,7
9,2,29,23,3,12,1
2,14,4,24,1,28,1
1,7,3,2,6,55,1
4,11,30,2,2,3,3
6,13,8,38,8,10,2
2,1,20,45,7,96,2
0,17,2,9,12,15,7
1,6,3,2,1,6,3
1,18,36,6,1,23,2
25,14,6,22,2,2,0
12,11,1,4,2,16,0
2,1,8,30,4,3,1
18,4,5,2,10,99,1
5,10,2,91,19,9,2
9,17,4,9,3,1,1
1,20,12,8,1,18,1
2,3,4,3,0,21,1
1,3,2,75,6,35,1
7,17,4,24,1,4,2
3,1,49,3,4,19,2
1,1,7,0,7,60,1
21,120,13,1,2,8,2
1,7,5,13,1,19,1
1,16,21,2,1,5,1
0,2,2,69,0,59,1
2,10,1,13,3,6,3
1,2,50,7,10,16,0
8,5,19,1,6,22,1
25,12,3,1,2,4,3
2,16,17,28,2,2,3
0,3,1,3,5,18,1
70,5,2,16,12,6,1
39,18,17,43,6,13,0
5,19,19,3,6,12,3
1,3,29,20,3,8,0
2,7,10,9,2,29,0
1,24,3,2,4,44,1
1,27,16,44,2,21,0
19,24,24,4,1,10,4
34,4,17,3,8,13,0
21,15,5,36,9,5,6
2,49,15,20,1,71,7
1,4,3,2,6,9,6
4,1,15,21,2,58,1
1,7,32,13,3,6,0
3,9,40,9,2,3,2
1,17,4,26,1,17,4
5,2,3,7,0,87,1
2,1,3,35,8,8,1
9,10,46,15,5,2,3
2,20,13,4,1,23,5
2,6,4,14,15,20,5
7,9,2,8,8,6,1
19,1,3,6,2,22,1
2,21,8,18,11,33,2
10,10,12,49,1,29,0
3,2,1,17,1,2,1
1,3,4,4,2,13,1
44,29,8,1,5,1,1
26,8,5,1,1,113,6
21,9,1,29,7,29,2
3,1,13,5,15,77,2
1,14,7,6,8,14,4
4,6,45,48,5,17,2
22,19,4,5,6,24,2
22,2,0,12,3,10,2
7,4,25,4,1,54,0
31,3,7,14,1,13,1
7,7,7,3,21,66,9
7,25,3,35,5,7,3
3,33,0,15,2,21,3
1,2,21,24,3,9,2
22,8,13,3,7,29,0
17,21,11,47,12,1,1
17,38,1,9,2,12,0
17,25,56,11,0,61,1
1,6,32,4,3,40,0
1,2,7,1,10,14,41
0,1,2,16,2,33,8
45,17,8,41,10,42,2
16,2,5,23,13,39,12
3,0,1,30,4,3,1
7,9,29,6,0,18,1
4,34,12,1,0,5,1
1,8,30,1,1,42,1
8,2,3,77,16,4,2
6,2,8,10,19,24,1
31,3,5,3,4,4,0
1,4,15,10,23,2,1
4,2,16,4,6,31,5
41,8,20,2,3,5,2
55,10,2,1,7,79,1
4,17,14,70,2,8,5
2,12,14,39,2,43,0
10,43,2,3,0,41,0
33,3,4,16,2,12,1
64,6,4,8,26,2,0
15,7,1,25,12,18,6
45,24,24,3,9,1,3
3,20,6,22,7,17,0
1,3,10,9,4,44,1
4,8,2,28,1,10,3
6,32,4,30,0,1,1
28,32,0,1,2,1,2
2,29,3,8,4,50,2
28,4,6,36,3,5,1
41,2,16,6,4,23,2
4,5,22,1,9,7,3
0,3,21,7,8,3,3
23,28,2,17,3,33,1
8,2,1,6,4,2,1
3,2,3,1,6,104,0
45,0,13,2,2,4,0
9,43,23,32,12,33,1
3,19,9,6,20,3,0
2,3,13,6,4,28,0
4,0,2,1,1,13,1
48,1,11,9,2,2,2
5,22,4,3,5,97,9
15,41,6,23,5,15,2
10,6,35,17,4,25,1
21,2,6,29,0,17,1
1,4,11,3,10,85,2
1,2,3,31,6,51,2
1,20,1,2,2,19,3
13,9,1,26,2,17,1
12,3,5,2,9,1,0
3,11,23,17,1,24,0
8,6,16,46,6,24,1
4,2,2,6,0,4,1
2,20,22,2,5,14,6
27,6,28,9,9,30,2
48,8,7,1,15,47,2
4,2,1,68,10,18,1
1,1,11,12,1,21,3
13,21,3,2,12,1,2
3,9,1,2,1,11,1
1,38,1,31,11,3,4
25,7,2,14,3,15,2
5,30,64,1,1,49,2
2,12,21,8,17,8,0
18,0,10,3,2,6,2
7,1,0,46,10,60,0
11,0,1,4,2,44,3
12,25,20,54,4,4,1
17,8,2,3,3,2,1
3,10,17,6,11,12,3
4,4,13,3,2,13,3
9,7,6,6,10,4,1
2,6,31,97,13,40,0
16,10,5,22,2,32,1
27,12,1,3,2,2,2
28,28,34,1,8,2,0
6,18,19,5,2,46,0
1,9,4,1,10,34,0
54,15,11,18,31,19,2
14,1,2,4,19,2,0
2,8,24,35,2,76,1
2,8,21,3,2,5,3
16,18,2,9,5,2,1
17,28,1,0,7,43,0
2,24,4,5,2,18,7
9,45,1,49,2,23,1
16,16,12,4,13,11,1
6,2,20,17,9,14,1
3,0,9,20,3,19,3
17,1,2,1,17,3,5
4,10,8,16,2,41,1
8,1,1,37,1,5,7
1,3,3,7,9,1,3
6,2,9,10,1,46,1
3,3,14,0,1,32,0
3,24,23,9,0,2,2
33,7,4,13,13,38,1
11,19,3,22,17,11,1
1,9,26,5,3,10,1
1,7,2,13,2,50,1
8,1,1,7,3,14,1
31,2,22,6,7,0,0
20,3,11,2,6,3,0
7,80,6,7,3,71,1
16,9,7,1,18,8,1
4,5,42,118,4,7,1
25,1,10,3,9,2,1
7,17,3,0,3,0,3
3,1,0,22,25,52,10
3,11,10,12,4,95,14
4,3,2,25,0,8,1
15,17,32,27,6,3,5
2,8,2,5,2,1,2
13,23,1,8,3,9,1
18,3,5,17,4,6,1
52,29,6,17,7,147,3
25,5,31,12,15,7,1
10,7,8,2,1,40,1
1,3,7,9,1,17,2
25,1,15,3,6,11,1
12,22,12,7,6,8,2
0,10,1,3,0,8,0
30,3,0,20,11,151,1
3,5,15,31,12,6,1
1,4,47,6,3,10,2
49,26,3,1,2,79,2
23,5,2,57,2,5,4
3,21,2,13,3,24,3
1,2,16,1,4,30,1
19,2,8,2,32,24,2
7,18,8,68,9,3,1
1,3,6,6,2,9,2
1,3,9,2,0,26,2
16,57,28,18,3,5,2
5,5,1,10,3,12,0
9,16,1,1,30,3,0
21,14,2,65,13,7,0
2,4,0,9,5,5,0
6,7,29,18,1,36,2
1,0,12,1,5,6,0
29,0,17,0,6,1,4
8,22,2,30,11,1,1
1,5,2,2,4,26,0
0,6,1,56,5,5,1
10,4,9,7,29,1,1
15,6,33,13,5,13,2
3,5,5,37,2,14,3
27,4,22,10,1,2,6
3,3,3,4,2,6,1
7,7,14,32,7,1,1
1,10,35,3,12,24,1
5,5,25,1,5,22,1
12,5,6,14,28,2,0
22,2,2,1,15,26,5
18,11,2,2,2,39,7
5,4,2,60,2,2,1
1,10,8,4,2,0,1
1,13,18,1,31,9,1
4,23,2,17,20,2,2
22,19,1,6,9,10,0
32,13,42,7,2,11,4
8,1,5,26,25,1,1
2,3,2,9,12,0,1
12,4,8,2,3,0,0
6,6,1,8,9,0,1
5,12,2,7,41,0,0
8,5,0,6,8,3,0
12,8,18,10,2,4,0
2,1,35,10,2,2,0
0,1,8,26,1,16,6
31,9,2,2,0,9,3
1,110,0,0,1,2,2
14,3,0,8,17,2,2
4,5,5,5,12,0,2
18,6,20,6,5,7,13
25,1,6,0,9,22,5
4,16,9,2,13,2,4
21,3,3,11,26,1,1
6,1,0,3,6,2,2
3,12,10,5,2,0,1
8,8,2,10,2,1,2
2,37,12,5,6,2,4
2,21,45,5,1,1,2
12,11,5,2,1,1,0
14,2,0,2,2,2,0
2,14,4,0,13,1,1
1,3,9,0,7,3,3
54,3,8,37,5,1,1
30,9,5,3,2,1,0
3,10,7,0,0,0,3
3,6,11,16,10,5,13
1,3,2,5,5,2,1
6,2,3,2,6,1,0
2,14,2,29,2,0,1
6,1,3,1,1,2,1
7,49,3,23,2,1,1
2,44,20,5,12,2,0
0,6,12,19,1,1,2
7,3,4,2,7,1,2
1,1,4,55,14,1,4
1,2,16,32,2,7,2
8,31,10,26,1,36,2
39,2,16,2,2,11,1
3,7,8,0,3,0,2
1,54,1,0,9,14,1
4,9,11,17,3,9,10
29,24,6,7,9,1,2
3,10,1,1,1,4,2
5,1,17,1,13,4,2
20,2,4,3,3,2,1
8,1,6,0,1,12,2
4,5,4,24,1,8,0
74,5,15,15,21,4,1
34,3,1,9,4,7,1
15,1,1,48,1,1,1
2,3,4,3,10,3,1
5,20,24,0,19,6,0
7,1,17,1,11,1,1
10,9,2,0,1,12,10
6,5,2,11,72,2,3
22,16,6,10,18,2,2
16,13,1,2,4,22,2
1,1,1,0,11,2,1
0,7,1,1,1,2,1
2,1,0,8,6,16,2
56,19,1,29,4,23,1
13,13,1,2,2,2,4
1,14,1,9,13,1,7
1,6,7,15,2,1,2
2,3,1,40,1,10,2
34,50,1,4,27,2,1
4,4,1,0,5,23,2
10,1,5,13,2,2,0
4,25,2,1,1,2,0
1,15,2,9,1,1,0
26,3,0,33,25,6,1
28,3,2,13,26,2,1
4,2,3,4,3,1,1
2,1,0,10,1,5,5
2,40,2,7,4,1,0
3,9,1,3,22,1,1
2,7,0,5,3,2,4
0,18,0,3,0,9,2
14,11,4,38,1,5,0
8,1,30,19,1,2,0
29,14,2,5,36,4,7
5,5,2,2,11,38,2
1,2,0,5,5,4,1
16,0,1,9,8,2,3
7,9,1,15,1,1,2
3,25,0,16,2,13,0
4,5,3,4,21,10,0
1,65,1,2,11,3,2
17,9,1,11,29,2,2
22,45,1,27,2,0,1
2,20,1,10,18,0,0
2,8,0,12,5,1,2
0,1,39,2,2,0,5
1,3,50,4,5,2,0
1,9,5,1,22,2,5
12,6,1,1,1,2,2
1,20,1,14,4,1,2
7,23,0,10,2,0,2
53,1,5,2,20,1,1
17,6,35,1,17,1,1
3,28,6,1,2,5,5
6,14,1,0,1,1,1
1,1,56,0,2,0,0
9,11,35,2,40,3,3
16,44,1,14,12,4,1
3,3,2,4,9,2,0
16,1,0,2,13,10,0
9,9,1,0,11,3,1
12,5,1,1,2,2,0
9,3,10,0,13,1,4
2,3,6,0,8,2,2
15,39,1,1,4,3,3
18,42,0,1,67,0,2
4,14,0,1,22,2,3
1,39,0,1,2,1,2
23,4,1,1,19,2,2
17,21,9,1,16,1,4
5,3,4,2,27,5,16
8,1,2,3,6,1,1
2,40,0,0,9,7,2
0,5,1,1,20,3,1
2,1,11,0,11,1,1
3,5,44,2,7,1,1
14,4,8,4,4,0,0
6,5,1,1,17,0,1
1,34,2,3,44,6,0
34,3,4,2,38,5,3
7,0,0,1,6,0,1
9,4,2,0,0,6,2
1,20,1,0,16,0,1
6,2,1,1,47,0,1
15,15,20,2,10,2,1
11,16,6,12,31,3,1
0,17,1,3,38,2,2
5,8,0,2,24,1,2
8,7,1,4,11,15,1
3,28,3,1,12,3,2
1,24,1,1,73,1,5
1,29,1,0,5,7,2
10,17,1,2,19,27,0
18,23,40,1,25,4,1
8,5,9,23,14,0,0
6,2,4,5,2,1,2
1,6,2,1,45,2,2
1,2,1,2,67,3,1
4,1,0,0,12,1,1
86,24,1,2,4,3,1
12,2,0,11,21,11,2
17,4,1,12,41,4,1
5,41,32,2,12,2,1
3,3,3,0,4,1,4
55,14,0,1,67,1,2
7,15,2,2,10,6,2
4,3,0,18,47,0,3
1,1,1,4,6,1,1
3,8,2,2,23,2,1
2,36,5,1,37,5,0
5,9,1,1,15,1,8
4,6,1,2,80,5,1
2,4,1,1,12,2,2
11,19,1,17,3,1,1
4,36,1,2,24,2,0
3,6,12,2,8,16,1
1,41,6,2,34,1,0
24,6,20,2,22,2,2
10,0,4,2,29,1,1
7,12,1,0,46,9,1
6,2,11,1,27,3,2
20,5,2,22,19,1,2
1,18,1,4,4,7,1
8,15,3,3,25,2,2
10,4,2,3,11,0,1
12,15,1,1,16,15,1
9,4,1,4,2,4,0
3,4,2,1,16,2,2
1,4,3,1,16,1,0
14,2,1,2,10,2,2
2,9,10,44,10,8,1
26,16,28,5,5,0,0
6,6,2,1,1,1,9
4,27,1,1,4,1,8
9,4,2,6,15,2,2
11,2,1,2,8,5,9
1,11,14,0,16,2,5
22,31,3,0,41,5,9
6,13,0,2,4,5,2
19,30,0,5,42,1,0
4,24,0,9,3,1,1
9,26,0,4,2,1,0
2,2,5,2,8,1,3
1,1,3,1,6,0,0
2,3,1,1,10,2,8
50,2,2,2,38,1,3
14,2,2,0,14,0,3
3,14,1,0,5,2,3
2,4,5,8,4,16,2
5,2,5,11,6,3,2
13,34,6,3,2,2,0
3,17,2,2,10,2,0
2,17,0,0,24,0,0
2,2,0,1,10,1,1
41,36,0,7,6,1,6
27,5,1,20,23,0,1
4,9,12,1,6,0,1
0,8,3,0,22,8,0
5,2,1,0,14,1,1
6,29,1,1,4,7,1
1,11,30,0,3,2,3
2,15,13,2,4,1,2
1,19,0,33,12,0,0
32,6,1,3,24,9,2
19,20,0,1,3,8,3
3,1,1,2,2,5,0
5,1,3,1,12,1,2
19,14,13,2,20,1,0
21,30,1,12,1,2,3
13,1,4,6,10,1,2
1,4,3,2,12,4,2
9,1,1,1,7,2,1
23,22,8,1,2,2,1
1,5,2,1,6,4,5
1,10,0,17,7,4,2
49,1,1,6,23,4,0
5,19,2,0,9,0,2
2,5,2,0,21,2,1
4,8,1,11,4,2,5
24,37,3,18,9,0,1
13,9,4,3,3,6,0
3,3,5,0,15,9,6
12,16,1,1,8,2,2
1,4,3,9,22,5,2
8,3,6,13,5,2,1
20,31,3,2,8,3,1
2,57,2,2,1,2,0
2,5,1,13,14,1,2
1,12,0,3,5,0,1
1,10,5,2,3,0,0
13,1,2,1,3,1,1
19,9,0,1,12,2,1
4,5,3,1,7,2,2
7,12,1,1,5,1,1
8,29,5,0,0,1,0
1,2,2,2,1,1,28
3,17,2,3,19,1,2
87,1,2,0,3,4,0
50,2,19,2,4,10,8
4,8,6,6,1,2,12
2,1,3,1,23,1,1
1,5,2,1,33,0,4
20,2,0,0,2,0,2
20,2,2,1,4,2,1
3,9,2,1,20,0,2
2,28,1,20,4,0,2
5,15,5,8,4,5,4
22,29,2,3,5,1,19
11,4,2,1,1,9,2
20,3,0,1,6,4,0
8,3,1,1,18,2,2
1,7,6,1,9,2,2
0,4,6,14,2,0,1
3,29,2,5,15,2,2
7,3,1,2,40,1,2
14,37,15,1,3,1,2
17,40,5,1,21,2,0
1,30,2,13,10,4,2
0,5,1,7,19,0,3
6,2,1,2,2,1,1
3,1,16,1,2,0,1
26,5,8,1,15,15,1
7,9,2,1,2,0,20
1,3,6,0,4,2,3
1,13,22,12,3,1,1
11,24,5,4,13,14,2
5,10,2,2,10,2,1
4,2,1,1,11,1,3
5,11,1,2,7,2,1
7,6,0,2,20,1,1
12,0,2,1,4,1,1
9,9,1,0,5,2,0
3,34,2,11,6,1,4
12,1,2,3,16,0,1
11,2,5,2,15,1,1
12,7,3,0,3,0,1
11,3,9,2,21,7,3
4,3,4,1,5,8,3
1,59,1,4,2,1,5
1,4,2,2,5,1,0
1,5,2,10,2,9,1
8,42,9,4,9,2,1
3,12,6,1,2,1,4
1,6,5,1,18,2,14
4,2,0,0,3,5,9
43,21,1,1,6,2,3
2,3,2,3,17,2,2
2,3,8,31,7,2,0
1,1,3,8,11,9,1
8,8,2,1,0,3,1
37,36,10,1,2,1,1
3,9,8,20,1,0,1
13,5,1,6,13,2,2
9,1,1,1,4,1,8
3,22,0,2,4,1,1
6,38,7,1,1,1,2
2,3,2,10,14,1,1
3,1,3,2,5,0,1
2,13,2,0,9,8,8
0,9,4,1,7,20,4
5,11,1,7,1,2,1
5,16,2,10,8,0,0
0,2,0,1,4,2,2
5,39,1,1,5,1,5
26,18,1,2,1,0,7
5,20,1,8,22,4,2
2,2,12,1,11,1,2
0,17,3,1,4,1,0
0,26,6,0,4,1,3
1,24,3,3,9,1,1
38,3,1,2,23,1,0
1,1,1,3,3,2,1
8,21,2,21,16,1,2
7,29,1,3,8,1,1
18,13,1,0,13,3,2
9,4,3,0,2,2,1
3,4,1,0,5,6,2
1,6,5,0,3,2,1
30,13,6,0,2,1,0
15,3,2,3,1,2,1
4,9,1,25,1,2,1
1,19,1,4,1,1,2
25,8,1,1,2,2,1
4,2,3,0,1,0,2
11,6,3,2,6,1,3
3,18,1,1,27,29,1
2,17,1,0,2,5,1
1,31,1,1,2,2,2
9,2,2,4,10,0,1
10,6,0,8,4,1,0
5,11,0,16,15,1,2
5,2,5,6,16,1,4
4,8,5,3,5,9,1
12,17,6,0,8,4,1
9,26,4,3,2,2,2
4,2,1,5,3,1,0
1,11,1,4,6,1,1
84,51,2,2,16,1,2
29,4,0,3,0,2,1
4,1,1,0,1,1,0
4,0,3,0,4,12,0
1,6,3,1,6,4,15
1,8,1,6,2,1,7
50,3,1,2,2,0,2
5,5,8,2,10,1,1
2,5,1,0,3,14,2
4,6,3,7,8,17,4
16,4,4,13,11,2,5
4,1,1,1,2,1,14
2,5,0,0,15,0,3
15,1,1,2,4,0,3
15,1,1,0,18,3,1
1,1,2,1,9,2,1
4,1,6,0,12,1,1
1,0,2,2,2,0,4
2,2,2,1,1,2,1
9,2,6,0,12,3,4
6,1,1,2,6,1,6
1,2,1,2,11,2,1
8,15,0,1,1,5,4
3,2,3,2,6,2,2
7,3,2,11,27,26,6
20,7,0,10,1,2,2
17,1,1,2,3,4,0
4,1,1,1,6,2,1
1,2,0,11,6,1,1
4,3,1,5,3,1,2
13,6,2,1,7,0,1
4,4,2,1,2,0,6
3,1,1,1,1,1,2
0,5,2,7,2,1,1
16,6,13,26,1,1,2
2,7,3,2,8,19,0
11,3,2,0,4,4,2
15,14,2,22,2,2,0
1,0,1,2,1,0,3
14,1,8,2,7,0,0
2,9,4,1,4,7,0
18,13,2,1,24,27,6
10,20,0,1,6,7,1
19,13,1,2,1,4,0
2,3,1,1,31,4,0
1,2,1,1,7,0,0
2,22,1,0,1,0,3
3,35,2,16,3,4,4
2,2,1,2,6,1,2
32,11,1,1,5,1,2
