HandOpen,HandClose,Wrist Flexion,Wrist Extension,Supination,Pronation,Rest
1,1,1,1,3,2,7
0,5,2,1,1,2,4
2,2,1,2,3,1,2
0,2,1,1,3,5,1
1,1,1,1,2,18,2
1,2,2,7,2,11,2
1,1,1,5,2,5,0
0,1,1,4,10,4,1
0,4,2,1,7,27,2
0,0,5,3,10,22,2
1,1,3,13,9,9,0
6,2,3,12,3,9,1
4,1,1,5,3,5,2
3,2,2,3,1,2,2
1,0,3,2,0,4,4
1,2,1,2,2,0,2
1,2,2,0,2,0,0
0,1,1,2,3,1,0
2,1,0,1,1,1,0
1,2,1,2,1,2,2
1,3,0,1,5,2,1
0,1,0,0,3,1,0
1,0,1,0,19,1,1
1,0,2,1,24,1,0
1,0,4,4,11,0,2
1,3,2,1,6,1,0
1,11,1,2,5,0,0
0,11,2,0,3,2,1
0,22,1,1,4,0,2
1,25,1,2,5,1,0
2,17,2,1,2,0,1
0,9,8,1,2,2,2
0,4,6,1,1,2,1
1,1,5,3,0,1,1
1,4,2,2,9,4,1
0,1,2,1,8,2,1
2,1,2,2,3,1,2
1,1,1,2,1,1,1
0,1,3,1,10,3,4
2,29,1,2,3,2,1
0,4,3,1,3,5,0
1,7,2,10,1,1,2
1,33,0,4,6,1,1
5,4,0,1,4,1,0
1,2,0,7,1,2,0
1,9,1,6,0,2,1
1,7,0,19,1,1,1
1,3,14,2,1,1,1
2,1,2,0,15,1,1
6,1,0,2,1,4,2
2,1,2,1,2,2,1
1,2,0,3,4,0,1
0,2,0,24,8,1,2
2,2,1,2,3,1,2
1,0,2,1,5,0,1
1,1,0,6,1,0,3
0,3,0,6,1,2,1
0,2,1,3,1,0,1
1,2,0,4,21,0,1
1,8,8,1,3,2,1
1,1,1,11,18,2,0
1,0,1,1,30,1,0
1,4,1,5,6,1,2
2,4,13,4,21,0,1
8,3,1,1,5,1,1
3,1,0,1,3,2,2
4,4,1,0,2,1,0
1,2,3,2,0,0,1
1,0,2,1,4,2,1
2,2,4,2,10,2,1
4,1,0,0,4,1,1
2,27,1,1,10,1,0
2,6,7,2,1,1,0
1,1,1,2,10,0,1
0,4,2,7,1,2,1
1,2,1,2,1,0,0
1,0,2,2,2,0,3
0,1,2,11,4,3,2
1,2,1,6,8,0,2
8,18,3,4,2,1,2
2,2,1,1,2,0,1
0,3,0,18,2,0,2
1,2,2,5,0,0,1
2,11,2,3,0,2,0
3,9,0,0,1,0,1
1,2,1,4,4,1,1
2,2,1,6,18,2,2
0,2,1,3,2,4,0
2,2,2,1,3,1,2
0,5,0,2,11,1,1
1,33,1,2,6,16,2
2,6,1,0,10,1,2
1,1,1,2,1,1,1
2,10,0,0,2,0,2
2,19,1,0,41,5,1
2,2,0,4,10,3,1
3,1,0,2,5,2,0
1,11,4,2,1,1,2
0,9,5,18,9,2,3
1,3,0,4,2,1,1
0,0,1,2,13,1,1
1,2,1,1,12,2,1
1,2,2,2,2,1,0
0,8,1,3,0,2,0
1,5,1,10,1,2,0
0,1,4,1,0,0,0
1,1,2,1,2,2,2
2,1,0,1,2,10,5
8,1,0,0,7,2,0
3,19,2,13,2,0,1
1,7,2,1,6,0,1
10,8,0,8,2,6,0
1,5,1,4,3,2,1
0,6,1,13,4,0,0
2,2,0,4,2,0,0
1,18,0,2,2,2,0
2,3,2,0,5,1,3
1,1,0,7,7,1,2
1,0,6,2,4,1,2
1,1,13,1,0,1,2
1,4,1,2,1,1,0
3,2,0,1,0,0,0
2,1,1,1,1,1,1
0,0,2,0,6,2,5
1,0,3,1,6,1,2
0,1,1,0,3,1,1
1,7,1,1,29,2,1
0,1,1,1,2,1,2
0,0,1,2,2,2,0
1,2,3,7,2,3,2
1,1,3,4,6,1,1
1,1,2,2,1,1,0
1,8,1,3,4,0,0
2,3,1,2,4,1,0
1,3,0,4,9,12,1
0,5,1,2,5,1,1
1,6,1,3,6,1,1
1,1,2,3,1,14,0
1,1,4,1,8,3,2
1,29,4,2,1,1,1
1,3,0,1,5,0,1
0,2,2,1,2,1,1
1,2,7,3,3,2,0
0,5,2,2,1,1,2
1,0,1,10,1,1,0
1,11,1,6,1,2,0
2,15,16,4,4,2,1
0,1,3,4,13,1,2
1,1,1,4,7,1,2
4,1,0,5,2,0,2
0,0,9,9,1,1,1
0,23,3,2,6,9,0
1,4,2,1,1,1,0
2,1,0,1,0,1,0
1,0,2,0,9,2,2
0,2,1,4,2,0,1
2,15,1,2,1,1,2
1,9,1,0,8,4,1
1,2,1,0,6,2,1
0,1,8,1,1,2,2
2,5,2,0,8,1,1
1,7,2,3,10,1,2
0,0,1,1,1,11,2
0,0,6,0,0,2,0
1,2,3,0,3,0,1
2,1,1,0,0,1,2
0,2,0,1,5,0,1
0,10,1,0,2,1,1
1,1,1,2,2,1,0
1,3,1,2,5,0,1
1,1,1,0,2,3,4
1,1,4,4,3,1,1
1,2,0,2,0,5,2
0,2,2,1,0,1,0
2,1,2,1,4,1,1
0,5,3,2,5,8,2
1,15,1,4,6,4,1
0,3,0,1,2,2,2
0,27,2,3,2,0,1
0,8,6,1,9,2,2
0,2,3,1,2,1,1
1,2,3,13,2,1,0
2,0,7,4,1,2,1
1,2,3,0,14,3,1
1,11,1,5,6,3,1
2,3,5,12,1,1,0
0,11,7,1,1,0,1
2,0,1,2,10,1,1
1,1,0,2,24,1,2
1,2,1,1,10,0,3
3,6,4,2,2,2,1
1,1,2,0,13,2,2
1,2,1,1,3,1,0
2,2,2,1,1,2,2
0,3,1,1,6,2,1
0,2,0,1,8,1,0
1,2,2,2,1,8,3
1,0,1,3,1,2,1
0,2,3,1,7,0,1
1,6,9,2,2,1,1
0,2,1,2,5,2,0
2,2,2,0,1,2,3
4,0,1,4,4,1,2
1,8,0,2,0,0,0
1,5,1,1,1,1,2
1,9,0,4,2,1,2
0,1,2,3,1,1,1
0,4,10,3,2,6,1
2,6,4,5,0,4,0
1,11,1,1,6,1,1
0,1,0,2,2,1,1
2,1,3,2,3,2,2
2,2,4,3,4,2,0
3,1,2,8,2,1,1
4,1,7,1,3,0,1
1,9,1,2,12,2,1
1,9,2,8,2,1,0
1,2,0,1,5,3,1
1,0,1,2,3,1,2
2,6,0,2,11,1,3
1,4,1,1,4,2,1
0,2,1,8,12,1,1
1,2,2,1,17,2,2
1,4,2,0,5,0,1
0,1,2,1,1,2,0
1,0,3,0,0,2,0
0,1,1,2,3,1,2
2,0,1,1,11,0,2
2,3,9,6,1,0,1
0,1,6,3,3,2,4
1,2,2,2,9,1,4
1,2,2,1,6,2,1
0,4,2,0,6,2,0
1,3,1,2,7,3,2
1,4,1,2,4,1,5
2,2,1,2,1,0,1
1,2,2,2,3,1,1
1,1,1,1,1,1,1
1,2,1,0,17,3,1
1,0,2,2,8,3,1
6,2,0,1,1,1,1
1,1,1,1,0,0,0
2,3,0,4,2,1,1
1,2,2,2,4,1,1
0,1,8,2,1,1,1
6,2,2,5,6,2,0
2,4,0,2,2,2,1
3,1,2,3,4,2,0
1,10,1,2,2,0,2
1,17,0,0,0,1,2
2,2,5,2,2,0,2
4,0,1,2,9,0,1
2,0,0,1,16,1,1
2,5,2,1,3,1,1
2,12,1,2,1,1,1
1,2,0,6,0,2,1
1,0,1,8,7,1,4
3,1,1,2,14,2,3
2,1,7,6,14,2,0
3,2,0,1,4,1,0
2,18,2,2,1,1,2
2,3,0,5,1,0,2
1,1,1,0,0,1,2
1,3,0,0,6,0,2
1,2,2,1,4,1,0
1,0,0,1,6,1,1
8,0,1,0,3,1,0
1,0,12,1,12,2,2
0,1,2,0,4,2,1
2,1,1,0,7,2,1
2,3,2,1,2,0,0
0,4,2,2,5,1,1
0,1,5,1,14,0,1
2,1,1,3,2,2,2
2,8,2,0,2,0,2
1,4,1,2,3,0,0
2,2,1,6,3,0,1
2,22,1,2,2,3,3
1,2,0,4,0,1,2
1,2,0,9,11,0,1
0,9,1,5,2,0,0
0,27,3,3,2,0,2
3,5,1,17,1,1,1
1,2,2,4,5,2,0
4,13,1,2,1,2,1
2,1,2,5,3,4,0
0,0,2,4,2,3,0
2,0,2,3,1,3,1
1,2,1,2,6,1,2
2,7,1,1,6,2,2
0,2,2,1,3,1,2
0,3,2,2,0,2,1
1,1,2,2,2,0,1
1,1,1,1,7,2,0
1,2,1,0,4,0,0
0,4,1,1,1,1,0
0,2,0,0,1,0,0
8,0,3,0,22,2,1
3,0,5,2,6,1,2
0,6,2,1,9,1,2
1,1,2,0,4,2,2
1,0,3,2,0,1,1
2,2,3,3,5,1,0
3,0,3,2,12,3,0
1,1,0,10,2,1,1
1,1,0,6,0,0,2
0,1,2,3,8,0,1
2,5,8,8,13,0,2
3,8,7,17,6,2,1
1,2,1,1,15,1,0
1,1,0,4,4,2,2
1,9,1,9,1,2,2
0,6,2,3,2,0,2
1,3,0,3,0,1,0
1,2,4,2,3,1,1
1,1,0,2,0,3,1
2,1,2,3,1,1,1
0,2,2,0,3,1,0
0,1,1,2,1,0,1
5,1,1,1,2,2,1
1,3,0,1,0,2,3
1,1,1,0,2,2,2
1,1,2,0,1,4,0
2,1,2,0,1,5,2
1,8,1,2,8,1,2
1,9,0,2,1,4,2
2,8,2,2,1,2,3
1,1,6,1,8,2,1
1,1,0,3,5,4,0
0,2,1,15,2,2,1
2,0,1,3,2,1,2
2,0,0,0,1,1,1
1,0,6,1,20,1,1
3,11,2,2,28,0,1
1,6,2,5,12,0,2
8,1,0,1,8,9,0
2,0,1,5,2,4,0
2,0,1,1,4,2,1
3,7,0,6,8,2,1
0,2,1,4,4,1,1
1,3,2,0,2,1,0
1,1,1,1,2,2,2
1,2,3,6,0,2,0
1,1,5,2,1,1,0
1,9,10,5,5,1,2
1,40,1,6,10,6,1
0,5,2,2,2,1,3
1,2,2,1,0,2,1
1,1,1,2,2,1,1
2,2,2,3,11,0,2
1,1,2,6,12,1,1
4,1,0,6,0,1,1
9,1,0,6,3,2,2
2,4,1,2,3,5,3
0,1,2,1,2,2,0
14,3,0,1,2,0,1
2,1,2,1,3,4,0
2,2,0,2,5,8,1
1,4,1,1,12,1,1
2,0,1,3,2,4,0
1,2,2,6,1,2,1
2,1,1,3,15,2,2
3,1,1,1,5,1,2
0,11,1,1,2,2,1
1,2,0,1,2,1,1
3,1,0,1,8,3,0
2,1,3,2,4,1,1
1,2,1,6,9,2,2
2,3,0,5,4,1,1
1,3,2,1,10,2,1
1,0,1,1,20,2,2
1,1,3,1,4,5,2
4,1,4,2,1,1,0
3,0,2,3,0,1,5
1,1,2,17,4,0,5
5,1,2,6,0,0,2
0,4,0,3,1,1,0
1,14,1,2,1,0,1
0,1,4,2,1,2,1
0,3,1,1,2,2,0
2,2,0,1,5,0,1
0,1,1,0,2,1,1
0,1,0,3,1,2,1
2,14,0,1,4,2,2
1,23,2,2,2,0,1
1,1,0,1,8,1,0
6,1,1,2,3,0,4
2,1,5,2,3,1,1
2,17,1,0,3,0,1
0,6,5,0,2,2,2
0,1,0,0,2,1,0
1,2,1,2,8,7,1
1,2,2,2,1,11,2
1,6,3,2,4,1,0
9,2,1,2,15,1,2
1,0,0,0,6,1,1
1,1,1,0,2,1,1
1,2,3,1,1,3,1
0,1,4,1,4,2,1
1,1,0,0,1,2,1
12,5,1,4,0,2,2
2,2,3,7,18,4,1
2,0,2,1,22,2,1
2,1,1,1,3,1,1
2,3,1,16,4,1,1
0,1,0,3,3,4,2
2,0,3,8,3,1,0
2,1,1,2,2,2,2
2,1,4,11,4,2,1
0,1,2,2,1,2,1
1,1,0,1,5,1,2
2,2,1,2,3,1,2
1,1,2,2,2,0,0
0,1,2,2,2,0,2
0,19,3,2,5,0,1
1,1,15,2,6,5,4
2,4,3,1,14,1,1
1,2,1,2,3,0,2
0,1,0,1,5,2,2
2,6,0,3,14,2,1
1,10,1,2,2,3,0
1,3,1,0,2,1,1
0,0,0,1,6,3,1
2,2,1,1,2,15,2
1,10,1,5,24,2,0
4,21,2,3,2,1,2
7,3,12,0,3,0,1
4,6,2,4,1,1,3
2,1,2,8,9,1,2
0,1,0,4,2,2,0
2,2,2,3,2,1,2
5,5,6,4,5,8,2
2,3,4,1,37,1,2
2,2,1,3,13,0,1
1,1,2,11,3,2,1
1,1,13,8,7,6,2
2,0,3,2,10,13,1
2,1,2,1,2,1,2
1,1,1,1,1,0,0
3,5,2,1,3,2,0
1,1,6,4,2,1,1
1,1,3,1,1,3,0
1,2,2,1,2,3,5
2,2,0,1,2,0,7
1,2,1,1,1,1,0
1,1,1,0,1,1,1
1,5,7,3,12,0,1
0,2,5,1,17,0,1
2,5,0,1,2,2,1
0,2,1,1,0,0,0
1,1,0,2,8,1,1
0,0,1,1,6,1,0
1,2,0,1,4,4,2
1,3,0,0,3,1,2
1,3,4,5,2,1,2
3,4,8,1,11,11,1
1,2,2,3,4,14,1
1,9,0,2,2,1,0
2,18,2,2,8,1,1
1,1,8,0,1,2,0
1,2,1,1,5,3,2
0,2,2,10,5,1,0
1,1,1,22,2,0,1
2,0,0,9,4,0,2
0,1,2,4,2,1,1
0,12,2,1,6,1,0
4,6,1,5,6,2,1
2,1,1,11,9,1,3
0,0,5,2,2,0,1
2,0,2,1,0,0,2
2,1,1,2,2,1,2
1,1,2,2,6,1,0
1,12,0,0,3,5,1
1,15,1,1,2,3,1
1,2,4,1,2,1,1
0,0,2,1,1,1,1
1,2,1,5,1,1,1
7,5,6,1,9,1,2
1,2,6,2,5,1,0
3,0,2,2,1,2,2
1,2,0,0,1,6,4
1,2,4,2,1,3,1
1,5,1,1,8,0,1
0,1,1,2,2,1,2
1,2,1,2,2,1,2
2,1,1,1,6,7,1
2,1,0,1,7,6,4
0,17,1,1,5,9,2
0,7,10,7,2,3,1
1,1,2,1,5,11,1
2,9,0,5,2,1,2
2,3,1,11,13,0,3
3,2,1,6,1,1,0
0,6,0,3,0,0,1
1,0,0,2,1,1,0
1,2,8,5,20,1,0
1,12,4,1,2,0,2
2,5,1,0,2,2,1
2,2,0,2,3,1,2
0,1,1,9,10,1,2
0,0,0,3,18,0,1
1,2,3,0,2,0,0
1,2,13,4,11,2,0
2,8,4,15,3,2,1
2,2,1,5,1,2,2
1,2,1,1,1,1,2
3,1,6,2,1,1,1
4,13,3,3,1,0,3
0,2,0,3,1,2,0
7,1,1,2,2,0,1
3,0,2,1,7,2,1
1,2,13,0,3,2,2
1,0,1,5,1,3,0
2,1,1,5,1,1,0
0,2,8,1,8,1,1
2,10,1,1,2,3,1
1,2,1,8,17,1,1
2,1,9,2,2,2,1
0,8,4,2,1,0,1
3,0,1,2,5,4,2
1,1,2,1,0,3,1
2,2,1,2,0,21,0
1,1,2,1,16,1,2
1,0,0,2,10,16,0
2,0,1,5,2,9,2
0,11,0,2,1,2,1
0,15,3,2,0,2,1
5,1,1,7,7,7,1
1,2,1,4,5,7,4
2,1,1,5,1,1,2
1,2,3,1,0,2,2
0,0,0,3,14,3,1
1,11,0,10,27,0,2
0,8,2,11,2,1,2
2,4,0,6,2,3,2
1,3,1,2,1,3,2
1,1,0,6,2,4,0
2,1,2,4,1,3,1
1,2,4,2,1,2,0
1,0,1,2,2,7,1
1,1,2,2,2,1,1
8,10,1,2,1,2,2
2,9,2,3,2,9,0
1,3,1,2,8,20,0
1,1,0,2,3,24,1
1,0,0,3,2,23,1
1,2,0,2,1,2,1
5,0,2,0,2,18,1
4,5,18,0,13,13,1
2,2,3,0,4,22,2
1,1,3,2,1,65,0
1,0,0,1,0,6,2
0,2,0,7,1,17,0
4,2,1,2,3,12,1
0,2,1,1,7,11,0
1,2,0,1,3,9,0
4,4,1,1,1,79,2
2,1,10,1,5,4,1
0,2,0,2,5,15,1
1,6,2,3,2,15,3
2,21,1,8,2,23,2
2,4,0,5,1,23,2
1,2,2,2,1,31,1
2,0,0,2,1,16,1
2,1,0,21,17,134,0
1,2,1,2,3,4,1
0,0,19,5,1,70,1
1,1,2,8,4,14,2
0,2,0,6,8,81,1
0,1,5,0,2,26,2
0,0,0,2,4,7,2
2,2,19,1,3,2,2
0,0,4,1,2,70,1
0,2,1,3,1,20,1
2,9,1,1,0,16,1
1,2,1,3,2,87,0
2,1,14,1,3,14,1
1,0,3,1,4,16,1
1,2,2,2,7,11,4
4,0,0,2,5,9,1
1,1,2,0,2,1,1
1,2,2,1,9,87,1
1,0,1,3,1,6,1
2,8,0,2,7,54,1
2,26,1,2,2,70,2
2,2,3,1,5,31,1
2,5,0,1,7,89,2
0,9,2,1,3,38,1
1,1,2,0,2,37,1
5,1,3,1,1,19,1
2,1,1,6,5,13,2
2,1,8,6,10,127,0
2,0,3,6,1,8,1
1,1,7,10,8,33,7
5,1,7,0,2,40,3
2,4,2,5,1,110,2
1,3,1,0,22,11,0
1,5,0,8,5,55,0
1,1,0,13,1,29,1
1,6,24,2,1,58,1
1,1,2,1,2,181,0
0,0,2,2,0,18,1
6,2,1,2,3,34,0
1,1,5,1,2,31,4
0,2,6,0,6,11,2
2,0,4,1,10,58,1
1,2,0,0,1,22,1
1,0,1,1,20,5,0
2,0,3,9,2,2,3
0,1,17,4,2,37,3
2,1,1,1,3,162,1
2,2,0,0,6,45,0
1,2,2,1,1,2,1
2,2,1,1,4,55,1
2,1,1,1,0,173,2
4,4,2,9,2,73,0
1,0,6,2,6,6,0
1,2,3,0,3,2,0
2,5,1,1,1,57,1
2,11,2,2,0,43,4
1,2,4,1,6,69,2
0,9,0,1,12,20,1
1,10,1,1,0,94,2
4,4,1,6,1,82,1
4,3,0,2,1,4,1
1,2,1,11,8,142,1
0,2,13,3,7,28,1
1,9,2,2,4,311,2
2,2,1,2,1,12,0
0,4,4,1,0,20,5
1,0,9,1,2,23,2
3,1,2,1,9,28,1
1,1,2,4,4,88,2
1,1,1,2,8,140,2
0,0,2,4,2,3,1
1,1,1,2,11,19,6
2,1,2,0,20,99,2
1,1,0,1,0,35,2
2,2,0,4,3,28,1
0,6,3,2,4,47,0
0,1,0,1,2,112,2
4,1,1,2,9,36,0
6,1,1,1,19,15,2
3,6,1,1,3,156,1
1,16,0,2,3,31,1
1,2,11,0,1,27,1
1,0,1,1,3,32,3
2,6,1,2,0,59,2
2,1,1,2,2,46,2
1,0,3,0,4,65,0
1,1,5,2,3,23,2
1,2,1,1,2,7,0
2,3,0,2,2,73,0
1,1,6,1,2,26,2
4,7,2,17,0,77,1
3,2,1,2,0,27,0
1,1,10,4,0,19,2
2,4,5,3,2,31,0
1,8,1,1,2,149,1
0,2,1,9,0,11,1
0,2,1,2,6,34,2
0,0,0,13,5,168,1
2,16,2,2,2,15,2
1,8,4,2,0,99,2
1,4,14,2,5,13,1
0,1,1,2,2,51,1
2,1,2,4,4,25,1
2,2,7,1,2,34,3
5,2,6,2,0,18,2
1,2,10,3,5,86,4
0,2,10,4,6,29,0
2,1,2,2,3,4,1
2,1,0,4,6,11,1
1,1,28,1,10,3,1
1,1,6,4,1,177,0
2,7,9,2,0,70,0
0,10,0,1,13,51,2
1,2,1,3,4,161,1
2,2,2,0,2,98,3
1,0,1,1,6,13,1
1,1,11,2,2,30,2
1,1,6,1,0,76,2
8,1,15,1,1,51,2
3,5,6,2,0,39,0
1,3,8,0,1,7,0
1,7,2,4,1,86,1
2,2,5,1,0,115,0
0,1,1,2,0,13,0
8,1,16,1,0,23,1
0,1,2,1,1,32,2
0,1,30,0,2,38,1
1,2,2,0,1,160,4
0,3,3,10,1,14,1
0,7,28,2,0,36,1
0,1,21,3,2,3,1
1,4,6,3,6,13,0
0,2,2,1,2,29,0
1,9,1,17,1,4,0
3,3,44,5,2,60,3
1,18,62,1,2,15,1
2,1,32,2,6,16,2
0,3,5,1,2,78,1
2,0,0,10,2,6,2
0,2,0,1,1,102,2
0,3,18,1,3,59,0
1,2,46,1,5,31,2
1,9,6,2,3,18,1
3,3,13,3,0,12,1
1,0,10,0,51,3,2
1,1,23,2,88,136,0
1,0,13,2,6,6,1
1,10,2,1,2,18,1
1,2,0,1,6,126,0
1,4,30,1,2,70,0
2,0,4,0,2,25,2
0,2,2,1,2,4,3
1,2,31,0,3,28,1
0,2,3,3,3,6,1
0,1,35,2,3,17,2
6,2,5,6,0,163,1
6,0,13,1,3,22,2
2,10,28,3,2,52,0
2,4,17,2,2,41,1
1,0,11,0,2,10,2
1,6,15,11,8,75,1
0,12,6,0,7,72,5
2,6,27,5,12,42,4
6,0,26,1,4,14,2
1,26,8,10,2,50,2
4,39,1,18,1,50,1
9,2,29,1,2,11,3
2,85,25,1,15,27,1
2,5,5,8,4,43,0
0,1,1,3,1,66,1
1,45,34,1,12,15,2
2,4,24,6,26,15,2
2,12,19,9,1,57,3
2,6,22,3,41,118,1
0,1,12,4,7,3,0
1,11,42,22,44,1,2
3,8,3,1,5,35,1
1,3,5,6,49,18,2
1,4,40,48,6,20,2
0,7,19,11,2,27,1
1,3,2,2,35,53,2
0,4,31,14,19,5,1
2,2,12,2,20,26,2
1,4,7,0,7,29,2
2,4,6,8,8,14,1
1,1,34,127,12,15,0
2,1,2,25,29,64,0
2,3,51,3,10,5,2
0,4,101,35,8,22,2
1,3,3,112,18,15,0
3,1,64,8,8,10,1
1,1,27,3,3,53,2
4,1,5,2,27,15,1
4,1,1,1,16,35,1
3,1,13,2,6,7,0
0,0,33,68,9,55,1
2,0,29,87,4,40,0
1,25,5,14,14,41,1
17,19,48,2,9,8,2
1,32,35,4,5,35,1
1,7,3,2,4,53,0
1,1,41,1,24,19,2
1,7,34,16,4,2,1
0,1,40,1,17,7,0
2,1,8,5,22,3,2
125,41,6,38,26,9,2
12,11,104,51,14,40,1
6,8,16,4,39,19,2
2,23,0,33,24,8,0
0,38,0,15,2,33,0
2,14,16,41,30,13,0
0,8,29,106,18,25,0
2,48,9,4,69,15,2
3,4,12,3,40,5,1
1,3,2,65,61,10,1
1,18,17,12,10,49,3
1,19,63,23,16,4,2
12,7,5,37,7,28,0
3,2,12,3,21,26,0
0,5,12,51,58,17,0
0,21,40,45,25,15,1
2,1,8,31,42,41,1
1,3,17,74,23,3,1
1,2,14,11,84,15,1
22,10,18,25,15,28,0
3,14,10,1,33,18,0
24,2,8,20,8,4,0
34,12,1,10,5,42,0
6,21,17,30,83,16,1
3,29,35,8,81,5,0
10,11,12,3,10,12,3
2,22,16,76,1,4,3
64,2,18,18,1,6,1
11,19,1,60,102,21,1
12,5,1,80,30,71,0
0,70,22,44,16,23,2
16,25,12,14,4,76,1
110,2,4,141,6,9,0
9,1,19,12,62,1,0
12,26,24,156,27,1,0
2,16,18,33,20,15,1
1,8,79,93,21,14,2
2,22,16,12,12,8,3
1,7,2,83,9,6,2
4,1,3,12,69,4,0
1,216,24,34,5,14,1
1,19,20,100,1,14,1
24,8,3,24,6,2,1
14,50,4,3,60,11,2
3,4,2,67,4,16,2
2,4,66,19,59,19,0
28,2,7,115,66,17,2
8,22,1,20,4,20,0
19,14,3,55,18,6,1
10,6,125,24,33,14,2
2,2,34,70,1,36,0
1,2,30,7,37,5,3
8,27,13,41,88,3,1
20,9,19,22,36,17,0
23,17,51,34,110,12,2
10,7,7,163,8,14,0
1,18,1,32,1,73,1
35,3,6,6,54,42,0
19,4,9,16,36,13,3
28,77,53,40,19,52,0
2,5,30,3,57,3,1
1,80,11,255,6,23,2
3,11,4,40,18,8,1
2,19,31,34,22,9,2
8,2,8,5,6,2,1
5,14,3,94,12,8,0
4,13,8,25,15,19,0
22,3,15,37,15,20,2
6,5,7,40,32,5,3
34,107,62,129,2,14,1
34,12,5,42,94,11,0
8,5,8,102,18,18,0
1,33,37,54,42,13,0
39,1,27,57,34,6,1
38,50,18,4,3,30,1
3,4,28,50,42,10,0
18,15,87,39,91,4,1
12,1,16,37,41,3,0
6,7,10,56,70,26,1
52,18,50,87,53,8,1
21,17,5,6,14,83,5
1,75,10,63,5,5,1
14,6,70,39,10,1,2
1,4,14,71,9,9,0
1,1,11,8,3,48,1
28,66,2,90,1,10,2
4,27,4,120,64,1,1
28,27,62,6,22,15,1
22,8,9,11,3,53,1
8,17,32,18,0,6,2
1,1,18,42,15,21,1
71,1,42,119,10,67,2
15,68,7,53,5,9,5
27,23,20,175,12,5,1
27,26,9,61,19,6,0
33,12,6,10,42,28,1
3,14,28,46,7,9,1
4,10,11,30,61,69,1
12,15,10,47,10,7,2
0,0,68,53,0,0,2
11,26,11,108,104,7,0
22,72,2,22,7,25,1
39,4,46,79,64,5,0
6,22,73,42,15,30,1
13,8,30,2,2,4,0
1,2,9,119,40,23,1
22,14,11,62,10,4,2
3,0,28,10,12,5,1
38,36,68,36,29,17,2
25,31,3,9,35,20,2
9,35,6,4,3,34,1
69,50,21,0,12,12,2
14,4,22,347,35,4,3
3,70,66,10,14,7,0
54,14,14,168,12,50,1
9,118,29,13,32,9,0
4,4,3,1,12,33,1
19,27,25,0,7,4,1
1,93,26,103,15,24,0
13,9,45,114,19,8,2
32,4,32,45,11,28,1
24,104,22,23,65,18,1
32,6,23,29,24,13,0
10,0,37,9,3,43,1
2,34,23,266,2,9,1
65,35,15,36,79,4,2
15,35,10,22,26,17,0
20,6,42,17,4,4,1
4,22,23,110,10,57,1
2,3,12,53,35,9,2
76,55,15,5,19,19,2
18,18,0,5,24,12,0
2,8,38,54,3,5,0
0,46,68,103,33,54,2
40,50,8,80,4,14,2
33,20,1,6,19,16,1
2,3,30,270,19,5,0
18,139,29,41,20,31,1
6,28,26,6,3,34,2
23,2,2,89,67,11,1
5,9,44,15,7,1,2
12,2,18,51,17,42,0
10,1,7,80,16,15,1
96,62,15,82,46,1,1
8,9,7,6,3,1,1
28,24,6,56,23,10,3
12,14,2,6,2,0,1
3,13,13,101,33,2,1
71,0,7,13,23,95,3
72,19,7,105,7,6,1
4,25,44,110,45,13,1
25,50,18,159,8,40,2
1,19,13,26,4,36,0
15,2,44,3,39,3,1
18,61,7,61,12,18,1
2,5,10,38,20,1,0
73,88,0,53,10,29,1
20,61,44,81,37,39,0
5,5,39,47,8,12,1
2,57,39,9,23,9,2
21,17,16,45,7,7,0
67,7,13,7,5,19,2
4,45,11,42,1,5,1
38,20,20,14,2,6,1
11,3,21,9,8,29,0
39,27,15,1,9,20,0
38,3,19,171,15,31,2
10,21,7,12,26,7,0
37,9,11,3,12,13,0
36,10,0,5,42,1,2
9,82,99,127,15,24,3
0,6,16,29,11,3,1
22,42,40,32,3,28,1
13,4,3,33,39,12,0
15,17,9,37,39,1,1
0,25,30,10,10,44,2
2,11,4,101,23,14,2
49,23,52,9,13,1,2
7,9,9,61,4,18,0
37,5,7,5,16,11,0
8,65,13,70,2,11,1
4,5,21,17,28,1,1
4,3,6,166,18,1,0
22,5,21,5,34,26,1
27,75,32,1,9,21,2
25,5,5,66,10,10,1
33,13,16,23,4,3,0
41,60,4,90,9,18,2
2,29,25,151,1,30,1
31,3,13,21,5,3,0
5,16,18,23,6,60,1
2,2,12,5,3,4,1
30,31,20,85,21,33,0
26,16,71,19,10,10,0
3,3,5,21,39,20,2
4,3,20,73,9,29,2
2,3,57,14,19,8,1
15,3,3,1,1,11,1
16,13,86,126,3,13,0
2,79,52,11,45,2,2
9,27,4,156,14,32,2
1,2,3,5,17,18,2
31,2,9,23,21,3,1
17,7,45,17,5,7,1
15,30,5,9,4,5,0
16,2,12,15,19,29,2
13,2,6,90,4,22,1
3,7,29,8,1,2,2
29,15,61,11,43,8,1
5,8,3,31,52,4,1
17,1,10,1,26,12,1
54,17,11,191,3,6,2
3,64,2,12,4,13,1
1,20,51,32,5,6,2
58,4,11,53,9,34,1
30,7,7,59,18,6,1
6,2,28,54,27,5,2
17,122,19,18,13,19,2
43,5,14,36,18,5,1
6,4,43,5,10,2,0
12,18,6,1,1,20,0
3,6,19,34,3,4,1
13,18,21,39,40,10,0
7,4,31,13,11,17,1
26,2,26,53,28,12,0
9,31,2,14,14,24,0
34,15,1,10,16,17,0
38,14,18,19,21,12,1
3,2,11,27,1,30,3
6,2,14,40,13,2,3
0,6,20,90,17,4,1
21,1,1,8,31,3,0
9,127,26,22,7,15,0
11,15,2,7,1,28,1
6,4,3,0,13,6,1
50,50,16,46,20,7,2
36,20,34,26,7,6,2
3,8,4,16,3,24,1
10,43,17,2,12,82,0
7,12,3,317,15,7,2
5,1,2,41,16,3,1
2,10,15,50,33,12,0
33,13,33,3,32,10,0
8,2,8,99,3,43,1
2,27,26,13,5,2,0
51,20,7,99,47,15,2
4,62,2,29,18,2,1
70,31,20,63,8,19,1
39,6,15,8,1,25,1
5,5,9,96,13,1,0
10,2,3,84,16,25,0
1,25,1,13,13,4,1
0,42,5,92,10,1,0
38,8,45,19,16,0,1
20,4,7,25,36,4,2
9,32,11,27,4,12,1
1,21,10,20,27,12,1
21,2,2,11,26,22,2
7,20,24,59,1,23,1
18,8,25,13,28,2,0
3,32,10,124,2,32,2
10,33,1,4,5,18,0
17,9,16,69,22,2,1
3,1,2,10,10,5,1
31,26,6,32,25,2,2
3,5,26,38,17,1,0
1,32,3,4,1,0,1
49,10,27,11,3,13,0
24,86,10,1,9,26,1
26,23,5,4,25,3,2
8,1,23,22,7,17,1
26,47,5,68,2,13,1
4,24,9,64,34,28,2
12,34,21,116,11,3,2
16,1,2,4,0,16,1
2,2,24,2,1,37,0
5,23,6,32,2,11,1
4,9,7,18,1,0,1
21,3,5,40,17,1,0
3,21,13,27,3,21,1
24,29,10,36,6,8,0
4,24,2,1,52,18,1
7,3,38,1,16,13,0
6,9,4,76,3,3,2
26,1,10,207,2,4,0
2,3,37,29,1,5,0
17,109,3,6,1,5,0
2,6,9,74,2,18,1
12,10,16,6,14,11,1
25,27,9,73,67,8,1
47,3,12,77,6,2,1
9,19,17,13,24,17,0
6,6,6,25,4,27,4
3,25,6,64,2,35,0
1,19,1,11,4,4,1
39,10,1,9,12,35,0
6,4,29,8,4,14,0
1,1,2,35,1,31,1
44,32,32,59,24,3,1
7,2,36,3,7,1,5
4,76,3,0,51,21,2
2,18,14,81,16,3,1
1,11,8,14,5,20,2
8,7,3,6,6,5,2
28,10,30,101,1,13,2
15,2,26,17,1,18,1
2,8,10,3,4,15,1
4,26,9,32,2,8,2
1,52,4,34,8,7,1
39,29,25,8,64,4,0
5,4,16,73,16,5,1
17,5,9,6,17,57,1
0,19,5,2,3,4,1
32,8,6,6,1,9,2
18,20,6,65,15,25,1
2,9,1,18,3,5,1
8,17,15,74,39,5,1
11,0,25,10,24,28,1
6,2,3,78,4,10,1
4,38,42,13,5,11,1
7,11,5,4,6,1,0
6,41,10,23,18,4,0
2,6,26,31,3,4,1
14,2,18,7,7,18,0
21,11,10,1,17,1,1
22,17,0,52,17,22,0
21,38,3,137,3,27,5
2,8,13,9,1,13,1
29,20,7,11,17,5,1
6,8,7,35,4,1,1
3,12,9,5,15,49,3
63,0,22,2,14,8,3
10,23,10,18,2,1,0
2,5,9,85,18,17,1
19,1,12,5,10,7,0
10,33,6,92,20,48,1
18,15,8,69,36,5,2
3,6,11,5,22,36,1
17,43,5,18,4,11,0
0,50,19,15,1,4,1
22,8,11,3,7,1,1
10,14,17,8,4,33,2
7,12,1,0,5,38,1
4,15,5,55,26,20,0
4,18,11,117,24,3,0
16,2,6,3,9,9,0
33,44,3,37,43,5,5
12,14,9,10,10,1,0
17,2,4,61,20,8,0
3,22,2,25,4,30,0
42,11,38,1,7,11,1
6,2,6,0,1,11,2
1,10,12,81,5,25,2
47,5,13,6,3,16,1
13,36,6,15,6,45,0
15,4,4,7,1,4,1
0,85,1,165,49,21,0
17,11,4,11,5,3,2
23,8,14,30,6,62,2
13,10,4,11,9,5,1
4,13,6,61,4,53,1
1,11,15,8,15,10,0
3,2,30,83,4,22,0
26,28,14,110,19,49,0
3,31,14,4,15,2,0
34,4,31,31,20,3,2
4,33,4,16,8,22,3
1,23,5,6,10,36,0
6,18,19,1,5,68,1
31,2,3,17,3,6,1
7,72,17,22,1,27,1
3,8,62,12,4,21,1
1,7,5,223,5,5,2
17,5,93,9,20,0,1
10,7,5,9,23,43,1
25,1,35,9,3,24,0
6,14,7,1,5,9,1
1,27,10,68,4,50,1
9,2,10,7,37,86,4
4,2,30,28,6,13,2
1,1,5,196,7,9,0
1,5,2,5,8,121,2
5,1,10,49,6,4,1
2,8,14,26,7,22,1
5,29,46,11,11,39,4
12,32,15,66,19,81,2
12,4,11,41,5,7,0
1,13,4,18,1,6,0
8,54,2,59,8,13,2
2,3,25,16,23,16,1
1,1,6,66,11,4,1
17,0,19,23,5,51,1
14,49,17,25,2,29,1
5,18,24,8,9,21,5
10,18,25,26,16,10,2
22,4,13,36,23,27,0
10,15,7,116,2,4,0
1,23,16,6,19,26,2
1,1,26,17,4,5,0
2,53,9,14,2,12,1
59,12,2,11,2,27,2
8,7,8,34,33,9,1
3,14,46,3,10,1,1
14,16,27,27,12,59,1
2,2,7,145,6,13,0
1,3,2,10,7,3,6
30,2,29,2,5,4,1
30,20,23,120,11,42,1
4,6,37,17,10,6,1
1,1,4,52,1,16,2
5,43,46,11,13,8,2
15,22,4,94,6,7,1
6,3,25,19,13,18,1
12,11,7,59,8,79,1
1,3,6,44,1,4,1
3,39,13,4,23,17,1
1,5,2,77,24,6,3
29,3,21,20,6,13,2
5,4,2,41,6,14,1
19,10,33,3,4,5,0
4,17,43,9,8,6,1
28,12,5,68,15,19,0
1,15,18,8,1,35,8
23,22,16,61,3,5,2
24,3,6,25,6,21,1
2,7,25,10,31,10,1
0,1,7,86,11,94,0
3,10,13,18,10,6,2
2,1,8,38,5,7,1
72,13,1,27,7,16,2
11,12,1,3,7,4,0
2,28,12,7,15,6,0
27,13,25,11,8,12,2
6,37,7,57,58,1,1
18,7,2,4,7,6,1
3,14,8,2,5,5,2
1,43,12,22,5,3,0
53,12,50,86,6,2,0
41,12,4,32,12,6,1
10,10,7,18,12,5,0
8,2,8,55,7,2,0
1,16,13,8,14,10,1
2,7,6,51,11,2,1
6,2,18,32,22,5,10
16,1,37,8,10,1,2
2,14,3,41,1,2,1
1,38,31,9,6,6,0
58,12,5,8,9,0,2
6,5,4,59,1,7,2
33,6,5,49,1,4,1
6,15,16,4,17,2,1
13,2,11,25,5,1,2
5,2,55,71,5,1,2
3,28,35,7,22,2,2
6,6,4,2,3,2,0
2,16,3,180,2,27,0
1,30,16,29,4,3,0
36,14,22,4,12,2,0
16,2,5,1,13,2,1
3,0,10,2,33,1,1
37,19,2,22,6,2,1
2,8,29,10,18,10,2
16,6,4,17,37,2,1
15,2,26,63,5,24,3
2,1,4,7,6,13,1
0,29,7,30,1,1,1
39,25,12,37,45,12,1
6,2,30,3,11,2,1
1,14,21,12,10,15,2
10,2,21,105,8,20,3
10,54,11,10,3,4,1
27,7,4,49,21,1,2
13,11,13,13,22,10,2
30,18,17,1,4,2,0
4,2,9,48,1,36,1
11,28,6,39,12,4,1
7,9,31,22,8,27,0
3,3,7,82,20,41,5
15,2,8,30,2,4,6
12,15,2,54,12,24,2
16,3,4,2,9,10,1
1,1,35,60,3,6,1
12,0,17,3,6,22,2
10,4,1,63,2,1,2
1,0,11,35,2,49,2
4,6,8,45,33,194,1
18,15,1,95,14,8,0
0,71,20,18,5,3,1
7,5,3,4,11,0,1
2,3,4,79,14,32,2
6,4,6,23,4,1,1
2,4,5,11,1,1,1
1,1,9,129,8,1,2
2,9,11,6,1,1,0
11,6,11,13,62,7,0
21,32,23,47,19,17,2
2,4,2,10,4,2,6
21,31,2,27,7,2,2
10,4,9,24,2,3,1
9,11,36,18,14,8,1
3,0,6,89,15,2,2
5,1,5,6,5,2,1
23,7,1,63,1,2,1
12,5,19,106,25,0,0
1,3,17,21,10,22,4
11,6,16,47,4,32,4
6,18,4,4,9,25,3
3,13,4,1,10,31,0
40,2,10,121,1,10,0
39,15,13,16,27,3,1
3,3,5,5,6,4,0
21,3,46,44,7,5,6
10,2,8,4,26,3,4
2,3,13,0,2,36,1
0,1,17,99,4,27,1
6,1,9,5,3,5,2
1,16,4,239,15,4,1
11,7,6,9,2,2,2
14,5,3,106,3,1,3
2,1,17,7,1,0,1
26,4,3,7,3,0,0
7,3,23,15,9,1,4
33,6,2,7,5,1,8
4,3,6,81,24,2,0
3,3,15,65,3,7,2
27,22,6,27,24,2,0
9,1,35,12,4,1,1
2,23,11,2,2,2,0
39,5,3,63,2,2,4
11,62,17,60,6,2,3
10,19,12,4,9,8,1
3,4,12,86,72,2,2
8,5,16,14,13,2,0
4,10,0,18,3,2,0
0,6,13,45,14,5,1
28,2,32,4,15,1,2
4,10,10,90,2,1,0
5,4,4,22,1,1,1
18,59,11,5,29,0,2
17,6,45,34,7,2,2
11,4,2,77,7,2,1
4,27,17,8,8,3,1
3,2,3,43,26,1,3
3,1,34,7,7,2,4
1,5,17,27,21,31,2
75,8,6,57,27,6,0
19,1,6,4,10,3,1
2,47,3,67,5,2,1
1,17,6,95,5,0,2
6,6,35,5,5,0,2
2,5,10,139,4,1,0
5,2,0,10,2,2,1
3,12,2,6,2,2,2
2,15,30,75,3,1,2
6,2,9,32,1,1,0
3,0,8,82,3,1,5
13,7,2,152,14,2,2
2,50,32,12,3,6,1
3,7,12,6,19,1,1
3,5,34,2,2,1,3
7,16,4,3,7,1,7
1,12,53,2,14,8,5
13,4,29,110,3,2,0
40,28,6,32,4,0,1
4,27,8,15,10,1,2
1,3,32,46,9,1,2
35,56,35,39,1,1,1
12,5,30,26,1,1,2
5,9,5,4,44,2,1
2,3,23,23,10,2,1
6,9,5,21,2,1,0
11,10,6,4,3,1,1
20,0,2,75,7,2,1
23,13,5,38,19,1,1
2,0,5,4,6,3,2
4,42,50,1,5,1,1
1,31,65,128,9,1,1
21,4,4,5,36,1,2
1,1,22,17,12,2,2
1,37,33,4,5,2,2
69,2,9,11,2,0,0
11,2,2,13,0,0,7
2,0,30,4,1,0,2
5,17,4,15,30,2,2
2,15,11,18,7,1,0
11,4,13,32,2,3,0
4,40,6,21,27,1,0
2,5,2,92,6,1,6
6,3,15,9,16,0,5
1,5,19,22,2,5,1
10,11,8,11,12,1,0
15,12,9,21,7,1,0
2,34,3,2,8,0,4
2,1,8,3,17,1,0
3,1,6,6,4,1,1
29,3,36,66,5,2,1
2,9,3,165,13,1,0
3,2,1,18,7,1,1
8,2,2,9,16,1,3
14,31,3,2,4,0,0
3,3,43,7,2,1,1
27,8,7,63,1,0,1
18,2,12,28,7,0,1
1,3,5,1,3,3,1
5,7,40,25,3,5,2
6,8,5,44,3,1,0
2,1,2,40,21,2,1
6,39,7,29,2,1,1
3,2,26,58,9,2,4
0,2,4,12,15,7,1
8,1,22,3,8,1,0
64,132,29,63,3,2,1
11,9,2,20,1,1,1
1,15,13,1,0,2,3
15,0,11,105,11,2,4
2,25,21,5,3,1,2
2,8,2,61,1,1,0
2,3,3,6,12,1,2
1,10,14,93,9,1,1
11,3,1,10,16,0,2
9,2,0,18,8,1,1
9,38,2,29,1,1,0
1,1,0,27,13,2,1
12,5,1,171,12,0,1
1,4,1,8,11,0,1
5,10,3,7,24,2,1
14,6,5,3,4,5,0
0,13,18,4,5,1,0
1,12,3,56,4,0,2
2,8,3,6,23,0,3
0,3,12,86,16,1,1
19,2,13,10,2,2,1
8,7,1,32,24,1,2
2,2,1,44,6,1,2
7,16,2,33,28,1,1
11,13,12,2,35,0,1
13,1,1,69,3,1,0
2,3,2,57,16,2,0
2,0,2,6,15,0,0
1,12,0,4,6,4,2
14,2,41,0,3,4,2
23,2,6,14,50,1,2
4,3,3,55,4,2,1
1,22,1,24,0,1,0
5,6,23,28,13,2,0
2,1,102,3,3,3,1
9,0,4,2,22,1,1
1,15,1,64,1,1,0
12,4,10,45,35,0,1
9,0,1,7,22,1,0
9,2,2,0,8,5,0
2,2,1,68,9,1,0
2,61,1,17,14,0,1
95,43,23,3,4,1,1
11,2,14,5,1,2,3
4,1,2,10,2,1,8
26,2,9,15,13,2,2
4,8,3,8,8,1,2
11,7,1,57,15,1,1
2,3,1,13,26,1,0
1,1,1,15,3,0,2
1,9,0,3,1,2,1
2,4,47,41,19,5,8
11,2,29,4,7,4,4
3,13,24,13,1,2,1
1,4,3,2,2,0,2
32,1,1,11,2,2,1
17,2,78,11,4,1,1
3,4,63,3,31,1,2
23,2,13,19,41,1,2
10,2,2,7,3,0,1
2,2,20,4,15,0,1
8,0,137,14,1,1,0
1,5,6,14,11,0,1
2,11,2,3,8,2,2
3,1,19,3,2,1,2
7,3,2,9,2,4,2
6,4,1,3,10,4,6
1,3,0,35,12,1,2
1,14,7,4,5,2,1
0,0,58,54,5,4,1
6,1,12,3,1,0,2
5,7,8,1,2,0,3
42,9,1,7,23,3,10
30,3,5,29,3,2,2
4,10,29,9,2,0,1
30,15,15,2,7,8,2
22,1,2,28,22,2,6
2,7,10,3,5,2,3
10,3,30,1,7,1,2
1,3,23,2,15,2,2
11,14,6,1,3,0,5
3,6,13,35,2,3,2
5,20,99,7,17,3,5
3,70,13,2,2,1,3
4,5,3,2,22,1,2
1,1,3,5,4,1,0
2,10,21,5,22,1,2
1,2,16,4,7,0,5
0,109,10,10,7,4,4
1,22,2,5,15,1,1
1,38,2,8,3,1,1
0,3,0,8,5,0,1
1,136,9,2,8,1,6
0,8,3,2,3,14,5
0,0,11,33,14,2,0
1,90,113,6,1,0,1
3,13,7,0,22,0,2
2,2,18,0,7,1,4
2,0,68,2,11,1,1
9,12,59,14,4,3,1
3,7,10,5,3,1,0
1,20,4,1,10,2,5
3,2,2,0,22,0,7
1,18,0,1,10,0,1
0,117,4,1,4,0,1
3,3,2,4,2,3,0
15,1,16,3,5,2,3
0,38,11,4,13,0,2
0,4,6,8,24,0,2
0,6,2,3,4,0,2
1,2,1,1,10,0,5
0,4,2,1,4,1,2
2,66,1,2,3,0,1
1,6,7,2,0,1,1
2,2,3,3,2,12,6
1,0,6,2,15,2,4
0,9,37,1,2,0,1
1,29,5,2,2,2,2
0,2,1,1,8,1,1
2,6,0,0,24,0,2
27,7,2,1,3,0,1
11,5,3,3,7,2,1
5,1,4,2,8,0,1
2,2,4,1,6,1,1
1,18,28,2,6,0,1
10,2,9,1,3,0,1
7,9,0,0,6,3,0
1,1,3,1,15,2,1
0,15,37,2,9,1,1
1,4,13,0,20,4,1
4,2,6,1,4,2,0
5,1,1,2,5,3,1
5,2,4,4,2,1,0
4,2,6,1,5,2,0
1,2,1,2,3,0,3
3,2,4,1,16,2,5
0,1,3,1,3,2,3
2,2,16,1,36,1,2
7,3,5,2,9,0,2
9,2,1,0,21,1,1
3,0,3,1,2,0,2
1,0,10,4,119,2,6
5,1,1,13,35,1,1
7,5,3,5,1,0,2
5,3,1,3,5,2,1
2,0,2,8,70,0,1
1,0,1,32,12,0,2
11,1,0,3,6,4,5
1,12,1,1,0,2,6
5,2,1,1,7,1,2
3,2,0,22,14,0,1
0,6,7,4,1,0,1
1,1,2,2,3,1,0
1,8,1,2,3,2,2
4,1,8,0,8,15,1
2,1,2,1,2,3,1
0,1,56,13,27,1,1
1,1,9,3,16,1,0
4,1,3,10,1,2,1
2,1,12,19,3,1,1
1,2,33,1,3,2,0
1,1,3,3,5,1,2
2,1,16,2,11,1,3
1,2,63,8,3,0,1
2,1,4,5,16,0,1
0,3,2,3,1,2,2
0,2,7,1,22,3,3
1,2,3,4,28,1,1
0,0,2,0,18,0,2
1,2,0,1,29,3,0
1,1,1,1,2,1,0
2,2,2,1,32,0,0
7,9,1,0,2,1,2
1,3,0,2,60,1,5
1,1,4,3,14,1,1
3,1,6,0,9,0,2
3,16,1,2,4,2,2
1,17,2,0,33,1,2
0,2,4,1,25,1,7
0,1,1,0,2,1,7
0,0,5,1,1,1,1
0,7,3,18,7,4,1
0,3,1,5,3,2,1
2,2,2,2,1,1,3
0,1,2,4,21,0,2
0,0,1,1,4,1,1
2,0,1,2,13,0,0
2,0,3,2,19,1,4
0,1,4,3,2,1,2
0,2,1,6,2,6,2
0,0,5,4,2,10,1
0,1,3,1,21,2,1
1,0,25,3,11,0,2
0,1,9,8,23,1,4
1,0,3,2,3,2,2
1,0,2,0,30,2,2
2,1,2,1,3,0,2
2,2,1,1,6,2,1
1,0,1,2,3,2,2
1,0,2,2,1,1,1
1,1,6,4,16,9,2
1,3,1,3,8,4,1
0,0,1,1,7,2,2
0,10,12,0,2,3,8
0,1,22,1,6,0,1
3,5,25,2,9,2,1
0,1,1,2,4,1,2
6,10,2,3,5,2,1
1,1,1,1,11,2,0
2,1,2,1,13,3,4
0,1,1,5,2,1,6
1,2,1,3,16,0,5
2,1,2,2,21,1,1
1,6,1,3,16,0,2
1,2,2,2,2,2,1
2,2,2,0,2,1,2
1,1,0,2,1,0,6
1,4,3,6,2,3,8
0,2,4,0,3,1,1
11,0,1,1,9,3,1
3,0,3,4,5,3,2
1,1,0,2,6,2,2
1,0,1,0,6,4,4
0,2,1,1,3,1,1
1,3,1,0,1,2,1
0,1,1,1,2,5,1
3,0,6,2,45,3,2
2,0,1,2,3,11,2
0,2,1,1,3,1,2
0,1,2,1,5,1,1
0,1,1,0,6,8,0
0,2,1,1,2,2,4
0,1,2,1,5,0,2
2,1,3,2,5,2,0
1,0,0,1,1,2,2
2,1,1,1,0,11,2
1,1,1,0,0,3,7
2,3,0,1,5,1,6
6,1,6,1,2,1,3
4,3,6,10,9,1,1
2,1,0,0,2,1,3
0,1,3,1,18,1,2
1,2,1,2,17,4,2
2,1,2,2,4,1,4
1,3,1,0,4,1,3
0,3,2,1,2,2,2
1,1,1,1,1,1,1
2,3,2,2,3,1,2
5,0,1,0,14,1,1
2,6,2,1,2,9,0
2,8,0,1,2,3,2
1,4,2,8,0,1,1
4,7,1,6,6,1,2
2,2,2,1,6,1,1
4,2,19,1,5,6,1
1,5,10,1,8,1,1
0,1,1,0,2,1,0
1,0,1,2,3,4,1
1,1,4,1,1,2,3
1,2,1,2,5,6,2
1,0,1,0,1,2,1
2,2,2,2,3,2,1
0,0,1,2,1,2,0
0,2,2,2,2,1,3
1,0,5,2,3,1,1
1,1,7,5,14,1,0
2,1,0,4,14,1,1
2,1,3,2,3,2,3
1,2,1,1,3,2,1
2,0,0,2,13,2,1
2,2,0,1,3,1,2
1,4,4,2,3,0,1
2,1,2,0,10,1,3
0,2,1,3,13,1,1
7,21,1,2,1,2,2
2,4,1,3,17,2,0
1,5,1,2,4,6,0
1,7,2,2,3,1,0
1,3,0,1,3,4,2
0,2,0,1,8,1,7
1,3,1,2,2,1,2
0,6,1,0,2,1,2
1,3,1,0,2,2,1
0,0,1,1,3,9,1
1,2,2,1,1,6,3
2,1,7,2,17,4,5
1,2,2,0,4,1,2
3,1,2,1,10,1,2
4,2,1,2,3,2,0
1,2,2,1,2,2,1
0,2,1,2,2,5,0
2,4,2,1,1,3,1
1,2,0,2,2,2,0
1,1,21,2,17,2,6
0,1,4,1,3,2,3
0,1,0,1,3,8,10
1,0,1,1,6,1,2
0,0,40,2,5,2,2
2,0,12,1,1,2,2
4,1,4,0,0,0,1
1,12,1,2,2,5,6
2,1,3,1,1,3,2
0,5,1,0,1,8,0
2,5,1,1,5,3,1
1,0,2,2,9,2,1
0,1,0,5,11,2,6
1,1,2,1,2,1,8
0,2,0,0,3,0,3
1,1,0,2,6,2,0
1,0,1,3,6,2,6
1,4,2,5,2,2,5
0,8,4,1,3,0,7
1,3,1,0,2,9,1
3,1,2,0,3,5,5
2,0,2,0,4,3,2
1,2,2,1,4,0,2
1,1,1,2,9,1,1
1,0,2,4,2,3,1
0,1,4,2,7,1,1
1,0,1,0,1,3,2
1,0,2,0,3,2,1
1,1,1,2,5,1,0
1,0,1,1,5,0,1
0,1,2,1,2,10,0
5,6,1,1,5,3,1
1,12,1,2,5,2,1
1,1,0,0,1,4,2
2,2,0,1,2,3,4
1,5,2,1,1,2,4
0,2,2,0,1,0,7
1,2,0,0,3,4,2
2,1,0,1,2,1,0
3,0,11,0,2,14,3
1,2,26,0,1,3,2
0,1,2,0,2,1,2
3,1,1,0,2,2,0
0,1,1,0,2,1,1
1,0,10,1,4,3,0
3,2,1,1,4,3,2
1,4,2,0,6,4,2
2,2,0,0,5,2,2
1,2,1,2,2,7,2
0,1,1,1,8,1,3
1,13,2,0,1,1,6
4,6,1,0,1,1,5
9,8,1,1,5,12,2
1,16,2,0,8,0,0
0,1,0,0,2,2,1
1,0,0,4,0,6,2
0,8,0,1,1,2,3
4,4,2,1,2,3,0
2,5,1,5,10,6,1
0,2,1,2,5,3,0
1,2,1,1,1,0,5
1,4,8,1,5,3,1
4,2,3,2,9,3,1
1,0,1,2,4,1,1
1,0,1,1,2,4,0
1,1,3,0,0,1,0
1,3,1,3,1,12,2
6,6,2,2,1,3,2
6,1,1,1,1,2,2
2,0,2,0,8,6,2
0,2,0,1,3,1,0
2,1,3,1,0,3,6
0,0,1,1,10,8,1
0,0,2,2,9,2,1
1,0,2,1,1,0,1
0,2,2,2,4,2,0
0,0,2,2,2,6,2
1,2,2,2,2,3,3
0,1,1,0,9,1,5
2,2,2,2,4,0,3
0,5,10,2,1,2,1
0,5,2,1,2,3,1
1,1,3,0,1,2,1
1,5,0,0,1,10,2
0,1,1,4,1,0,1
0,1,2,3,0,0,3
1,2,5,2,0,1,2
1,3,13,2,5,4,3
1,4,2,1,4,6,4
0,3,1,1,8,4,2
1,2,4,1,7,2,0
1,2,2,1,3,4,2
0,1,1,1,1,3,0
1,9,0,0,4,4,5
1,2,2,0,5,3,1
1,1,0,3,2,6,2
1,2,1,9,1,1,1
1,1,2,3,1,10,1
0,7,1,2,0,4,3
0,6,2,0,2,1,2
5,2,1,1,5,6,0
2,1,5,2,3,1,2
0,0,1,1,13,4,1
1,1,2,0,2,6,1
2,1,0,2,1,1,1
2,1,0,0,2,0,0
1,1,2,1,1,2,1
2,1,1,2,2,6,1
1,1,4,1,1,3,5
1,1,2,2,1,1,2
1,1,0,1,2,5,1
2,2,0,0,0,4,0
0,2,1,1,2,2,0
1,1,1,0,1,0,1
0,3,32,1,5,0,4
1,11,22,2,2,1,2
1,1,1,2,2,7,0
2,6,2,2,3,5,0
1,2,6,2,0,4,1
2,2,2,3,1,1,4
1,3,5,2,1,2,1
1,0,1,0,3,5,0
0,0,2,0,4,4,1
2,0,1,1,6,4,2
0,0,1,3,1,0,2
3,3,0,4,7,3,2
1,1,1,1,3,15,0
4,4,1,0,3,2,1
2,1,0,1,7,0,2
2,1,1,1,2,8,2
2,1,0,0,2,2,2
3,1,1,6,6,1,2
2,2,13,5,4,4,0
1,12,2,2,1,4,3
1,4,1,0,1,12,2
2,1,4,0,2,2,2
1,1,15,2,3,7,8
7,1,1,0,1,23,1
1,2,1,2,2,6,2
1,1,1,1,2,2,0
1,0,2,3,2,1,1
2,3,1,3,2,0,1
0,0,1,0,1,1,0
2,1,1,1,3,8,0
2,3,2,0,1,3,1
0,4,1,1,1,14,1
1,3,1,2,1,3,0
3,3,2,1,0,1,1
4,4,3,0,1,4,1
1,1,1,1,2,1,0
2,0,2,1,1,1,0
3,2,1,2,3,5,2
1,1,1,1,1,7,7
5,2,4,1,1,2,1
4,1,2,1,5,2,0
1,8,0,2,1,13,2
2,2,1,2,3,2,1
0,4,1,0,2,1,2
3,1,1,0,1,1,1
0,1,3,1,6,0,0
1,1,40,2,1,8,1
2,2,3,1,2,4,2
2,9,1,0,0,4,3
1,3,0,1,1,1,5
3,1,3,2,5,1,2
0,1,7,1,3,1,3
1,0,3,1,2,6,1
1,1,2,2,2,4,2
1,2,1,2,2,1,1
2,0,1,1,4,0,1
3,1,1,2,2,1,1
1,0,3,6,1,0,1
2,2,0,3,1,0,5
2,1,2,0,1,2,1
2,2,2,1,1,1,1
2,2,1,2,1,2,0
1,1,2,2,0,6,0
4,2,3,1,2,6,0
2,0,0,1,0,1,2
1,6,1,2,1,2,1
2,1,1,1,2,0,1
2,4,0,1,1,0,2
1,8,8,1,0,1,2
0,2,3,2,2,0,2
3,4,1,1,0,1,2
3,2,2,2,11,7,2
0,2,0,1,1,8,1
1,2,16,0,2,2,0
2,1,4,2,0,1,3
0,0,4,1,0,0,6
3,2,2,0,4,10,8
2,2,1,0,2,3,1
2,2,9,1,0,5,1
0,4,4,2,1,5,0
2,6,1,1,1,2,0
4,1,2,2,2,0,0
1,2,2,0,1,1,0
1,5,1,1,1,3,2
2,2,1,2,0,1,2
1,1,19,9,1,1,2
0,2,5,3,0,2,4
1,1,1,0,5,0,1
0,1,0,0,2,8,1
1,0,1,3,0,5,1
1,2,2,2,0,0,2
1,3,0,4,1,0,6
1,1,2,0,2,1,1
0,0,1,0,0,4,2
0,5,1,0,0,1,0
2,2,1,1,3,1,1
1,0,24,0,2,1,1
1,1,16,1,2,1,2
1,0,2,0,1,8,0
1,1,0,0,0,8,2
2,4,1,1,1,2,0
0,0,0,2,1,6,6
1,9,3,0,1,2,4
2,4,4,2,2,1,0
3,1,4,1,1,0,1
1,5,2,2,2,0,1
2,4,0,1,3,9,1
2,12,0,3,8,4,2
1,1,4,1,2,0,1
2,1,2,2,4,1,1
2,0,2,1,2,4,1
5,0,1,0,1,1,0
1,1,4,2,2,2,6
1,0,1,2,1,4,1
2,6,0,1,2,6,2
1,2,1,2,2,2,1
1,3,0,1,0,0,1
2,1,1,2,0,10,0
3,2,2,1,1,2,0
2,6,0,2,1,0,0
4,1,1,2,8,0,1
2,1,2,2,1,0,1
0,0,3,0,0,1,5
1,1,17,0,2,1,5
15,1,8,1,0,0,2
5,2,2,1,0,3,0
1,2,2,1,0,0,1
1,7,7,2,1,1,0
1,11,1,11,1,0,1
2,2,0,2,4,2,2
1,2,4,1,1,0,2
0,0,1,1,1,0,2
0,1,4,0,1,6,0
2,1,12,1,0,2,1
2,2,2,0,1,1,0
0,0,2,2,0,2,0
1,3,2,0,1,3,2
1,2,2,2,0,0,2
1,5,1,3,0,1,6
0,6,1,3,2,0,3
1,2,1,2,2,9,0
7,3,2,1,2,9,1
5,0,2,1,0,2,1
2,5,2,0,1,3,0
0,2,1,1,1,2,1
4,7,2,1,0,1,2
0,2,0,1,6,1,1
1,0,1,2,1,2,1
1,3,5,2,1,5,2
2,4,13,5,1,3,0
5,3,2,2,1,2,1
8,0,1,2,2,2,0
2,6,2,1,2,1,0
0,1,2,1,1,2,0
1,0,1,1,2,0,2
0,0,1,1,1,0,4
2,1,26,1,2,1,5
1,1,3,2,2,5,2
1,1,1,2,0,0,2
1,2,0,1,1,0,1
2,1,2,2,0,0,2
3,6,4,2,0,1,2
4,4,0,0,2,1,2
1,2,2,2,1,3,1
0,4,4,2,0,0,3
1,1,2,1,2,11,2
1,0,10,1,1,2,0
5,1,2,0,4,5,1
1,3,0,2,2,0,4
4,0,15,0,4,1,5
2,0,8,1,1,5,4
0,2,3,0,0,2,5
1,1,1,1,6,2,2
3,4,2,1,4,8,1
2,3,0,1,0,1,1
1,1,1,0,1,1,1
2,3,1,3,1,1,1
10,2,4,2,1,4,2
2,6,1,1,2,3,2
1,1,1,1,1,2,0
1,2,1,0,0,0,2
0,1,4,2,1,6,5
2,1,7,1,2,2,2
0,9,0,0,3,2,5
0,4,1,0,4,3,2
1,2,0,2,1,5,0
2,2,2,4,2,1,1
2,1,0,2,2,2,3
1,2,2,2,1,1,2
0,2,0,1,3,1,0
2,2,1,3,3,10,0
0,2,0,1,2,3,0
1,24,3,1,1,0,1
1,2,2,0,0,1,2
2,3,0,1,3,1,1
1,0,0,0,2,17,0
0,1,0,2,0,2,1
1,1,0,4,3,6,6
1,1,0,5,1,1,5
1,1,9,1,1,1,1
1,2,2,2,2,3,1
1,1,11,2,1,12,0
2,1,11,1,1,7,3
1,2,1,0,8,2,1
4,1,1,1,3,16,1
0,2,1,1,1,4,2
1,5,10,1,2,0,0
1,2,1,1,2,0,1
1,5,2,2,1,37,1
0,2,1,2,0,6,0
0,1,0,1,4,2,3
1,3,2,0,1,0,0
0,1,10,0,1,1,0
1,10,12,0,1,2,2
2,6,2,1,0,18,12
1,1,1,2,2,19,1
1,0,0,1,0,4,1
2,1,1,1,0,7,0
1,3,2,0,2,3,2
3,17,0,6,2,6,0
0,1,0,2,2,3,0
2,1,2,2,1,1,1
0,2,1,1,3,0,1
1,2,2,3,0,0,1
0,1,0,2,7,1,4
2,3,2,0,1,0,3
1,2,6,0,1,0,1
1,2,11,1,3,1,0
0,3,2,0,2,9,1
0,1,1,2,1,15,0
1,1,4,1,1,3,0
6,1,1,0,1,2,0
3,10,2,2,1,12,1
2,6,2,1,2,30,2
1,2,2,0,2,3,2
3,1,4,1,2,3,1
3,1,2,1,2,2,2
1,1,2,1,2,4,1
1,3,14,4,1,5,2
0,10,2,2,2,3,2
4,6,1,1,1,1,1
1,1,4,0,3,2,1
0,1,1,1,2,1,0
0,3,4,1,2,1,0
1,2,10,0,1,7,2
1,4,0,0,4,3,1
0,1,2,0,3,6,2
2,1,2,1,3,2,2
0,0,10,1,1,6,1
2,1,13,0,1,11,0
2,11,1,0,2,1,2
0,6,0,2,1,3,0
2,1,1,4,1,3,0
5,8,2,0,2,24,2
0,10,0,2,2,3,2
2,3,4,0,0,1,2
2,2,27,1,1,0,2
3,1,2,0,0,1,2
4,2,1,0,4,1,2
3,2,1,1,1,8,1
0,0,0,2,6,1,2
2,0,1,0,3,7,0
2,4,3,0,2,2,4
2,3,3,1,4,8,1
1,3,4,1,3,9,2
1,2,1,1,1,3,1
2,1,3,2,1,2,1
2,1,2,5,1,1,2
1,7,14,3,2,12,1
0,4,5,0,2,6,1
1,7,1,0,0,28,2
1,1,11,0,1,3,3
3,1,8,0,0,2,1
2,0,1,1,2,1,0
2,0,2,0,1,3,1
2,11,0,2,1,3,1
1,1,4,1,1,15,1
1,2,1,1,1,2,1
2,10,2,1,2,4,2
5,6,1,1,4,4,2
1,3,3,0,2,3,0
1,11,1,1,1,25,0
1,0,1,2,0,3,2
1,3,3,0,2,1,2
0,1,8,1,1,59,0
0,2,2,1,0,4,0
2,3,4,0,0,4,1
1,0,4,2,2,30,1
2,1,1,1,0,8,3
3,3,9,2,2,2,2
2,12,2,1,2,1,1
2,2,4,1,0,51,0
2,3,10,0,2,25,1
2,2,3,0,2,1,0
1,0,2,0,2,14,1
0,2,7,2,1,12,1
1,6,2,2,6,24,0
1,1,1,0,2,30,1
1,2,2,2,1,28,3
2,1,1,2,2,16,3
0,1,4,2,1,81,1
8,4,1,0,1,31,2
2,2,1,4,3,39,0
4,1,0,0,1,10,0
2,2,0,1,2,4,3
1,1,3,0,2,82,1
1,1,6,2,2,116,0
0,7,1,1,2,6,1
1,2,1,2,1,89,0
1,3,2,1,1,6,1
1,0,1,1,1,36,1
1,2,6,1,1,76,1
0,5,4,4,2,31,1
1,14,6,1,0,10,1
2,4,1,0,0,29,1
3,7,1,2,1,6,4
1,4,4,1,4,48,1
1,0,31,1,2,3,2
0,1,2,0,2,2,0
1,1,2,0,1,61,1
0,4,4,1,1,113,2
1,3,11,0,1,10,0
1,3,2,1,3,19,1
1,6,4,2,1,112,1
1,2,2,1,0,98,1
1,1,1,1,2,7,0
0,12,2,0,0,219,1
3,15,1,1,1,56,2
5,3,1,1,2,86,0
1,0,3,1,2,5,1
0,1,2,2,1,235,2
1,3,8,1,1,22,1
2,3,1,1,1,83,3
2,1,1,3,2,4,1
1,1,0,3,1,131,1
1,1,2,2,1,16,2
0,2,0,0,2,28,0
3,4,4,0,0,134,2
12,2,1,1,4,151,2
1,1,1,1,2,5,2
1,2,12,2,4,23,1
0,2,6,0,1,8,2
2,1,8,0,0,37,1
0,0,3,4,6,17,2
1,0,2,2,1,109,1
1,2,3,1,0,12,1
2,7,2,1,1,27,0
0,5,9,2,3,130,2
5,7,4,2,3,113,1
2,3,2,1,4,6,0
0,13,3,0,1,93,1
1,0,1,0,2,50,0
3,5,7,2,1,15,1
1,1,1,0,3,26,1
1,5,1,0,2,333,0
1,0,2,2,1,25,1
2,1,3,0,3,74,0
0,12,2,0,1,58,0
2,19,1,3,1,21,1
1,1,0,1,0,31,0
3,2,5,1,2,88,3
1,10,4,0,0,25,4
1,2,5,1,1,67,2
1,2,14,4,0,13,1
0,1,2,2,1,204,1
0,2,2,1,2,7,0
0,1,1,2,3,235,2
1,3,12,2,0,12,1
2,7,0,0,1,89,1
1,2,0,2,3,87,0
1,2,11,1,2,10,1
1,0,6,1,3,6,1
2,1,7,1,1,37,0
2,7,3,1,2,63,3
3,2,0,0,1,23,10
2,2,0,0,1,22,2
1,1,2,2,1,43,1
1,0,2,2,1,48,1
0,4,1,1,4,108,1
3,3,0,0,1,4,1
0,0,1,3,0,45,2
1,1,1,3,3,49,0
1,8,2,2,2,24,0
1,1,2,1,4,105,1
0,2,0,1,1,39,3
11,7,0,4,0,8,1
0,0,0,0,1,27,1
1,5,1,2,3,26,1
0,4,0,1,2,12,2
1,2,16,1,5,55,0
2,0,3,0,1,132,1
0,2,2,0,2,26,2
3,0,1,0,1,34,0
1,6,2,1,0,3,2
1,6,3,2,1,2,2
1,7,2,0,1,17,1
2,0,9,1,3,46,2
2,3,24,0,1,15,1
1,2,8,1,2,37,2
0,1,2,1,1,30,1
2,2,1,0,5,38,0
5,2,0,0,2,55,1
0,1,3,2,3,41,2
5,0,0,1,3,46,1
4,1,2,2,0,16,2
0,10,10,2,0,29,1
0,3,5,0,0,17,2
1,1,5,1,2,12,1
0,2,3,0,0,62,1
1,9,4,2,1,76,2
0,2,16,4,4,83,1
1,0,2,3,3,51,1
1,1,2,1,4,19,1
5,2,3,0,2,139,1
1,1,5,2,0,28,0
0,1,2,0,1,5,1
0,1,1,3,2,12,2
3,2,2,1,0,103,1
1,1,3,0,1,31,0
3,0,24,1,1,85,3
1,1,4,1,2,6,1
0,1,29,1,2,2,0
1,1,11,1,1,3,2
1,4,4,1,0,15,1
0,2,0,2,1,24,0
1,0,26,1,1,19,1
0,4,27,1,1,26,0
1,6,11,2,1,2,1
2,1,3,1,0,8,1
0,2,2,3,1,30,1
0,1,6,2,4,51,1
10,8,15,1,2,94,0
2,6,15,2,2,7,1
3,2,4,1,3,52,0
1,3,29,2,2,21,0
2,2,2,0,0,4,0
1,1,8,0,4,31,0
1,1,14,2,2,22,2
2,4,2,0,1,16,3
1,1,0,2,2,81,1
0,4,0,3,2,9,1
1,2,27,2,1,24,1
1,12,72,1,3,154,2
0,2,6,2,0,66,0
7,1,20,1,7,21,0
0,1,20,5,2,137,2
1,3,3,0,0,30,0
1,6,26,0,2,30,1
2,2,7,1,1,39,4
3,1,51,1,1,45,4
1,1,3,1,5,25,2
0,1,34,7,1,31,1
0,2,63,5,3,21,1
6,1,4,2,4,38,2
6,1,0,2,1,10,0
1,0,2,4,3,5,1
1,5,0,12,0,1,1
2,2,15,4,5,78,0
0,1,32,4,1,17,0
1,5,3,0,2,9,0
6,2,28,3,1,43,2
5,0,18,76,1,6,2
3,0,3,5,1,48,0
1,2,3,72,0,96,1
2,13,22,7,0,11,1
13,2,10,29,1,43,1
5,0,25,44,2,22,1
1,2,52,3,1,66,1
3,0,12,9,1,12,0
3,1,2,9,2,57,1
3,17,1,3,2,21,1
0,2,21,10,2,55,0
0,2,89,18,2,8,0
1,5,6,3,9,2,0
0,4,10,2,2,7,2
7,2,22,1,5,57,1
1,1,46,46,2,11,2
1,1,5,84,1,39,1
11,1,2,12,2,5,2
15,1,35,57,2,28,1
1,3,43,65,2,18,1
4,1,38,7,1,11,2
0,2,2,11,4,4,0
1,0,91,1,2,14,1
4,0,13,5,0,50,2
7,0,1,79,6,6,2
2,2,61,10,3,6,2
2,1,159,18,5,1,0
2,36,6,43,4,24,2
1,9,2,12,1,37,0
2,39,20,10,0,38,0
1,2,21,30,1,4,2
0,2,0,11,4,9,1
2,1,1,33,2,16,0
1,2,6,27,1,7,0
1,1,93,86,1,126,1
7,1,11,26,1,13,0
2,1,25,5,2,4,1
1,1,2,22,1,35,0
5,1,31,14,0,2,2
5,0,11,1,0,29,2
8,4,2,9,4,6,2
2,1,12,18,2,7,0
1,1,41,36,3,26,1
5,1,6,25,1,12,1
3,8,37,47,3,27,1
0,2,17,16,1,7,2
45,1,10,16,0,2,2
14,1,113,7,1,7,2
2,0,9,3,1,47,1
2,0,54,5,0,7,1
11,52,2,41,2,31,2
22,32,3,85,2,8,2
4,6,1,6,12,1,2
24,2,78,166,1,6,1
1,92,7,6,2,20,2
2,47,3,65,4,41,1
10,2,53,9,1,10,2
10,2,4,37,1,10,3
17,26,64,12,2,30,2
3,37,18,17,3,5,1
1,18,4,69,2,20,1
3,1,45,4,2,34,0
1,1,5,125,2,23,0
2,2,9,46,1,10,1
1,0,5,31,1,12,1
9,2,36,44,3,19,0
25,0,15,68,0,7,1
14,2,10,48,0,1,1
13,15,4,29,2,0,2
1,3,1,11,1,22,0
2,1,13,49,2,4,1
16,3,5,46,3,12,0
20,5,3,7,2,6,0
1,1,9,5,1,62,1
9,16,42,5,1,5,1
16,30,4,1,3,33,1
1,8,0,89,1,42,1
2,1,47,51,1,6,2
0,1,13,19,0,3,2
42,50,3,72,2,1,0
11,62,1,20,1,5,0
5,6,56,32,0,36,1
50,1,29,30,0,4,1
13,2,3,75,3,25,1
1,144,50,4,1,3,2
1,17,38,37,2,5,1
1,23,10,19,2,7,0
5,3,15,1,2,71,1
2,1,7,33,1,4,1
27,47,32,96,0,66,1
5,9,32,37,4,32,1
1,2,24,22,2,6,2
7,5,62,2,2,7,2
15,1,6,75,2,13,0
1,77,2,8,1,7,3
1,26,20,14,3,2,2
19,3,1,66,5,28,0
8,6,30,8,1,27,0
2,10,16,137,5,15,1
25,7,4,41,10,25,0
0,6,27,4,1,11,1
17,43,24,49,2,3,0
15,11,3,5,1,11,1
8,15,29,77,1,17,2
2,13,15,3,1,24,0
2,22,61,169,4,25,1
24,8,5,8,1,9,0
5,28,17,5,7,6,2
19,46,6,1,2,0,1
2,10,2,228,3,27,0
2,36,36,9,0,22,0
42,18,36,18,1,42,1
16,4,4,173,1,7,0
3,9,19,16,5,41,1
35,2,3,110,3,9,1
21,31,8,35,2,6,1
11,6,24,81,17,19,1
23,67,29,21,3,9,0
1,15,2,122,2,30,0
8,1,23,124,9,7,1
24,7,41,11,1,14,2
4,3,4,15,2,4,1
12,25,3,29,9,9,1
2,3,4,28,18,23,1
56,0,68,8,27,2,0
30,1,10,15,1,1,2
6,17,41,142,15,78,1
0,19,28,35,16,5,1
94,14,66,8,3,8,1
7,8,15,34,9,14,1
15,14,28,117,2,34,0
37,15,19,11,21,16,0
5,8,39,7,4,24,2
23,16,1,34,1,13,2
1,3,10,36,7,6,1
49,24,9,136,2,17,1
38,8,10,10,8,8,1
8,9,44,250,2,17,0
20,30,40,11,1,8,0
3,19,9,65,0,4,2
1,1,1,42,1,5,1
18,38,1,137,3,33,0
57,29,7,36,1,7,2
33,24,9,19,2,3,1
9,5,15,7,2,7,0
3,10,15,86,1,2,0
24,9,32,10,0,14,2
7,23,3,103,30,13,1
2,60,35,108,4,60,2
5,9,7,9,1,5,1
13,15,1,128,11,11,1
17,24,42,12,10,57,0
2,18,51,131,10,5,0
31,61,32,41,2,1,0
20,3,4,5,32,38,0
31,17,39,4,41,5,1
5,53,80,1,13,1,2
24,6,21,0,3,26,1
14,10,5,144,7,8,5
45,8,1,39,1,5,6
6,5,3,29,23,13,1
2,55,1,44,4,12,0
4,3,60,26,3,19,1
44,82,27,36,13,14,1
37,36,29,4,1,29,1
15,10,5,71,5,16,2
30,1,3,64,3,1,0
62,43,9,49,15,0,0
5,16,23,34,3,50,1
4,3,15,27,5,9,3
19,0,9,76,4,4,0
30,6,6,25,48,12,1
2,28,5,2,6,9,2
5,7,9,226,4,14,0
11,79,4,149,2,2,1
5,14,9,26,53,13,1
26,1,1,196,7,46,2
13,0,12,26,43,3,0
9,110,80,11,10,3,2
9,20,7,35,16,35,2
18,9,2,74,15,22,0
2,11,13,151,38,20,1
9,9,17,9,14,3,0
52,49,52,0,3,51,0
4,3,20,294,18,6,1
7,24,4,51,31,26,1
1,24,6,25,5,7,0
0,9,19,46,5,10,1
25,1,6,91,7,3,1
9,11,6,21,129,12,0
3,9,36,23,6,7,2
47,25,16,36,41,2,1
41,12,5,22,4,7,2
24,10,6,36,2,29,0
6,1,17,17,50,17,1
5,38,29,98,55,4,0
9,14,8,11,15,4,1
46,23,6,33,43,20,0
6,8,15,139,28,3,1
32,2,7,94,4,19,2
4,9,2,42,6,4,1
2,6,10,67,12,18,0
6,15,12,10,48,27,1
2,3,4,47,2,2,1
39,8,50,89,19,24,0
15,1,3,67,2,5,0
7,8,12,5,8,54,2
8,15,8,1,6,16,0
14,14,4,70,37,4,0
6,1,0,160,28,17,1
1,160,7,49,17,4,2
66,8,12,37,13,24,2
5,2,14,91,10,10,0
12,36,20,13,13,43,1
38,5,1,16,27,10,2
3,2,43,4,32,4,0
37,2,21,81,14,2,0
10,2,8,25,15,5,3
7,29,2,3,2,60,0
2,7,8,279,31,8,1
3,22,4,18,10,27,2
33,5,5,96,5,16,1
13,15,15,5,38,5,0
1,19,19,4,51,9,3
1,11,8,73,27,2,4
19,28,13,3,1,2,2
4,16,35,217,1,27,1
10,1,4,29,41,14,1
33,6,22,3,24,1,1
2,29,20,13,13,27,0
34,20,9,66,2,16,0
46,21,3,8,108,9,0
16,2,6,26,13,19,0
13,45,7,54,9,24,2
3,36,19,80,19,29,0
13,3,30,14,28,5,1
25,5,9,47,10,0,0
8,1,12,33,10,23,1
6,32,6,21,1,7,0
19,5,40,30,75,13,1
20,15,20,61,36,6,0
5,1,12,7,13,15,0
43,34,7,71,2,21,1
12,13,1,11,28,2,2
2,1,7,8,31,9,0
9,21,12,126,4,9,1
21,4,4,60,3,3,1
13,1,2,78,1,14,1
44,17,15,28,81,15,0
12,66,23,3,36,2,1
8,14,4,0,29,25,1
21,2,2,74,7,5,2
13,1,13,13,2,20,0
4,4,3,89,38,33,2
13,36,7,50,35,17,1
15,47,3,11,92,2,1
2,3,10,28,41,1,1
10,0,8,47,5,10,2
36,0,15,33,2,14,1
17,13,5,3,1,7,2
5,12,20,38,42,2,3
19,17,5,3,77,62,1
15,8,8,103,10,6,1
3,2,18,55,10,13,0
36,6,9,27,51,21,2
2,3,16,22,11,27,0
30,13,38,96,24,3,0
3,22,3,20,7,8,2
14,3,3,10,56,5,1
5,29,24,15,25,19,0
7,13,7,30,9,4,0
0,28,12,15,46,13,1
16,13,1,107,10,6,2
14,4,13,4,27,2,4
2,7,5,98,1,21,1
2,40,3,20,44,20,1
26,8,7,17,41,18,1
2,23,13,9,9,2,1
12,1,3,43,15,1,1
3,6,41,9,14,13,0
28,4,20,3,11,7,2
12,1,3,96,18,1,3
26,46,18,16,8,7,1
4,23,10,43,2,20,2
29,2,11,22,15,4,0
16,5,11,42,40,20,1
2,27,22,16,14,20,1
13,20,6,45,1,11,1
2,3,7,3,45,4,2
1,1,7,8,22,15,5
73,2,1,80,11,2,1
14,42,2,42,9,17,1
2,8,23,30,31,26,1
26,3,6,199,23,28,1
16,1,11,12,34,7,1
1,29,27,53,18,3,2
3,13,13,73,2,7,2
0,36,14,26,116,3,0
2,24,6,2,15,2,2
3,12,10,10,5,8,1
2,2,12,40,14,5,1
4,18,4,7,5,4,1
2,29,13,84,12,27,2
43,3,6,57,52,4,3
7,15,5,30,23,7,2
2,1,2,6,6,4,1
7,10,22,37,28,17,1
7,0,3,14,20,7,0
2,9,20,27,37,2,0
4,12,16,50,9,6,2
1,4,5,19,3,5,1
7,10,8,5,3,0,2
39,13,17,2,8,3,1
9,11,20,207,32,2,1
1,14,6,76,7,11,0
50,4,7,38,9,13,1
4,7,9,31,28,1,2
2,2,1,3,3,5,1
4,9,33,99,37,15,2
26,13,4,35,22,8,2
7,20,2,45,12,4,0
4,3,30,12,15,1,2
2,41,12,4,2,20,0
2,16,8,1,2,26,0
1,11,16,114,10,4,2
1,19,7,12,28,4,1
28,19,7,15,3,3,2
21,4,30,11,2,6,1
3,45,4,9,9,14,0
2,17,1,13,33,2,5
13,11,1,33,12,3,1
9,2,14,13,4,27,0
5,4,5,44,3,2,2
1,13,11,53,49,2,1
1,1,6,31,12,3,0
0,8,10,3,4,12,0
1,6,4,47,55,4,1
11,45,15,11,4,4,0
9,10,17,1,2,3,1
3,72,3,2,33,1,1
1,8,2,53,9,1,0
34,10,1,43,8,2,2
4,9,28,41,52,0,1
2,7,5,39,8,0,2
17,1,13,44,14,1,0
8,15,7,5,11,2,0
3,5,6,32,48,0,1
17,2,11,5,7,1,0
2,1,4,2,13,1,0
7,8,3,0,17,3,1
2,1,27,51,10,2,1
1,1,6,13,2,2,1
7,1,1,17,28,17,1
9,2,9,18,18,5,1
17,9,8,103,13,4,0
1,9,15,4,9,3,3
3,10,21,67,7,2,0
28,11,7,101,1,2,2
11,13,2,12,30,1,1
9,6,9,2,7,2,1
1,14,7,0,26,5,3
3,31,10,92,2,3,4
2,3,3,35,10,3,1
31,21,13,12,52,2,1
15,5,5,1,38,2,2
31,23,10,96,16,5,0
3,48,20,19,3,3,0
20,3,3,6,5,1,9
2,2,35,28,5,7,1
9,10,23,4,26,4,2
1,6,25,124,4,1,0
6,13,2,8,5,1,1
36,3,15,51,9,0,2
25,21,4,26,18,2,1
2,25,8,2,18,2,1
19,12,2,73,1,2,1
21,6,20,30,22,2,3
4,15,11,2,13,6,2
1,17,8,67,5,9,2
0,2,3,8,40,2,2
0,3,6,51,7,1,1
16,13,7,28,18,6,2
11,4,15,2,7,4,0
28,0,2,33,8,1,0
2,7,19,21,15,3,0
24,11,6,5,5,1,1
7,12,3,19,5,13,1
19,3,25,162,33,6,1
2,6,3,11,21,7,1
9,3,1,1,12,8,1
5,2,13,89,4,2,1
2,5,1,43,15,4,1
3,2,0,4,48,2,0
9,39,24,4,28,2,5
36,9,7,0,2,2,1
5,2,12,2,9,1,1
18,2,4,45,19,1,0
5,1,16,3,14,1,1
12,48,23,44,32,1,6
6,18,12,13,38,1,2
3,3,4,2,7,1,1
0,14,6,8,3,2,1
1,23,11,40,2,1,0
9,3,41,6,10,0,1
22,2,3,36,2,9,3
3,1,4,57,2,4,1
0,19,4,34,33,13,0
2,5,5,13,3,37,1
36,18,23,2,1,3,0
7,3,6,36,21,2,1
6,62,16,85,11,0,2
1,13,40,5,39,1,1
18,3,3,72,16,2,0
3,2,3,38,13,0,0
7,9,9,82,6,1,4
18,5,2,18,2,1,1
16,3,18,21,6,1,2
2,7,4,2,2,2,0
11,7,6,5,41,2,0
15,3,0,79,3,0,1
3,2,5,6,30,2,0
2,18,9,36,8,1,1
13,3,17,21,2,0,1
4,11,5,6,45,1,4
9,3,4,1,5,3,1
16,2,3,2,1,0,0
5,1,8,40,21,0,2
5,8,8,3,32,1,0
8,9,1,20,5,4,2
3,6,14,41,13,1,1
18,5,14,45,4,0,0
14,14,10,33,25,0,1
4,43,3,9,5,0,1
0,8,10,56,30,0,0
26,3,26,5,17,30,2
7,3,6,85,14,4,1
20,0,30,5,8,3,4
2,9,2,1,9,1,2
7,10,10,4,10,0,2
5,20,15,13,15,4,0
24,9,2,66,26,1,1
13,3,5,5,3,2,0
2,5,13,28,66,5,1
12,14,4,8,20,2,1
5,2,5,4,5,1,1
3,3,14,131,0,2,1
4,1,5,6,3,2,2
10,1,3,14,43,7,5
2,16,20,3,34,31,4
9,7,21,0,13,23,1
1,13,7,30,3,3,2
1,1,23,47,15,2,1
40,0,28,5,6,0,1
4,29,10,134,11,1,2
2,1,6,7,5,0,0
4,2,14,14,1,1,1
4,4,23,42,58,2,2
35,42,3,13,10,3,4
8,39,11,94,4,2,0
2,2,5,13,37,13,1
5,15,1,16,8,2,1
2,3,3,3,4,19,0
1,18,5,104,3,3,0
45,5,25,42,12,3,1
7,3,17,10,18,1,1
4,7,3,11,20,13,1
7,4,2,33,8,4,1
20,2,18,40,2,15,0
1,35,3,3,78,3,0
0,2,34,10,6,10,2
3,34,2,14,43,16,3
54,6,2,38,9,37,0
4,41,19,3,8,3,1
2,2,6,13,2,3,0
22,1,6,11,20,0,1
10,19,4,36,37,1,0
1,3,18,6,5,2,2
20,2,39,48,12,1,0
3,12,1,18,3,0,0
2,8,2,2,1,3,1
11,18,7,135,7,2,1
3,11,17,40,9,2,1
4,13,9,16,19,2,2
35,5,7,2,9,1,1
18,3,20,39,35,1,0
1,8,2,34,3,1,1
7,0,1,31,13,1,1
2,1,21,32,18,10,0
32,4,3,10,3,2,1
12,37,21,12,5,0,11
0,9,7,3,1,11,2
2,5,6,43,24,10,2
9,61,27,3,15,1,1
7,6,17,42,13,3,0
3,2,4,88,5,6,5
7,6,0,43,7,4,2
0,17,10,122,1,5,2
2,14,6,43,9,1,0
0,8,3,2,12,7,0
7,1,2,50,10,0,2
21,34,50,10,9,1,1
8,3,23,68,37,2,5
14,14,16,41,10,2,1
3,2,6,5,11,1,0
15,14,3,45,20,2,0
6,7,5,11,2,2,1
1,5,21,6,13,0,0
5,6,13,2,2,0,0
2,2,4,59,12,1,1
1,10,7,3,15,2,3
15,3,6,78,3,2,1
18,1,3,35,4,1,1
4,23,2,8,49,2,1
1,20,11,15,21,2,1
1,4,7,25,14,11,1
13,0,11,4,1,6,1
1,0,2,56,20,1,2
2,1,11,18,25,8,1
1,6,2,2,5,1,1
1,33,9,8,5,2,0
6,1,13,2,2,1,0
5,1,2,8,8,1,0
8,30,25,43,2,0,2
78,10,9,43,29,1,0
8,5,17,17,53,1,3
6,7,12,119,17,3,3
5,1,19,53,0,3,1
1,11,10,7,9,2,2
9,5,1,1,1,0,0
2,6,22,4,28,2,1
1,1,2,7,10,9,2
6,22,23,2,1,4,1
5,16,5,15,24,2,2
5,12,7,64,2,1,4
2,8,7,9,11,1,2
1,14,8,34,20,0,0
9,2,19,2,5,15,0
24,16,3,26,3,6,2
2,4,0,32,2,1,1
20,2,10,10,24,0,2
3,10,4,5,15,2,0
20,1,3,2,34,2,1
3,0,1,123,5,1,5
6,21,16,5,1,4,1
6,8,4,7,2,5,2
2,2,1,22,27,8,0
7,2,3,5,7,4,0
33,14,2,1,10,5,6
1,3,12,212,29,1,2
46,6,2,9,31,0,2
5,5,1,3,4,2,1
5,9,16,27,26,2,0
15,4,26,44,5,1,0
1,8,2,59,26,2,2
1,33,1,48,20,2,2
39,1,1,9,2,1,2
9,7,3,58,19,2,1
5,5,0,53,42,0,2
2,1,3,9,3,2,1
21,2,5,30,9,1,1
13,34,48,8,17,1,1
2,6,26,2,4,9,6
5,8,21,39,7,3,2
1,3,2,31,10,3,1
1,1,3,2,10,2,1
0,3,5,7,1,2,4
9,6,34,2,16,16,4
7,10,7,14,13,1,2
6,1,18,15,2,2,2
28,5,7,147,5,4,3
14,45,8,7,1,1,0
9,4,2,2,5,2,1
34,0,6,7,8,5,0
3,8,25,5,38,3,1
9,41,2,52,15,1,2
2,4,2,42,9,1,1
2,3,10,43,34,2,1
34,2,4,34,11,8,0
8,0,3,5,3,6,1
1,25,5,13,9,3,2
39,9,17,5,11,1,2
3,6,1,5,1,1,1
13,4,1,28,0,2,0
2,1,0,16,7,0,1
1,4,2,5,29,1,5
13,33,3,8,14,1,1
3,7,4,32,13,0,1
23,0,1,4,27,1,1
1,2,1,5,30,1,1
1,4,1,6,4,2,1
4,0,20,5,3,6,2
5,5,24,32,22,1,3
8,4,5,34,12,1,2
2,4,3,69,19,12,1
10,3,0,26,13,1,1
7,3,1,2,3,8,3
5,4,0,11,12,3,3
0,16,6,52,9,1,1
14,2,15,4,6,6,2
24,11,6,8,5,2,1
2,4,1,6,3,0,0
0,3,18,134,26,1,2
0,2,23,6,15,1,1
0,32,2,101,3,3,5
17,10,18,10,1,2,0
1,25,2,31,2,0,1
2,22,2,35,11,2,0
1,7,6,27,4,4,2
2,0,5,15,24,1,2
40,1,6,11,8,7,0
2,20,2,12,24,2,0
4,21,5,2,7,1,2
0,3,20,49,21,0,2
6,3,6,40,2,1,1
3,2,1,10,26,4,1
0,0,3,11,5,3,0
3,30,3,40,1,2,2
0,16,0,8,19,0,0
43,3,1,104,22,0,2
7,1,10,52,6,2,0
8,10,4,5,1,5,2
19,1,62,1,12,0,0
2,17,38,128,9,0,0
2,3,2,22,6,2,0
3,12,0,36,13,0,2
0,3,4,17,10,9,0
1,14,19,11,5,6,1
6,37,4,59,3,2,1
9,4,4,36,24,1,0
6,12,0,24,19,2,0
2,1,1,0,12,4,1
27,10,7,3,5,3,2
19,1,3,28,8,3,1
2,2,1,8,10,1,0
1,2,2,4,20,1,2
2,40,2,31,2,1,1
2,21,16,5,8,1,2
29,11,5,62,8,1,1
3,3,2,24,9,1,1
59,2,17,1,5,0,0
6,9,8,45,13,1,0
20,15,2,2,10,1,2
6,4,2,107,3,3,0
1,14,13,19,5,1,1
0,43,13,15,15,11,0
1,4,3,1,13,6,0
1,1,0,2,20,2,1
2,4,5,2,10,1,1
1,9,7,29,14,1,6
14,4,7,6,10,0,3
4,3,50,63,8,1,0
8,2,4,4,9,2,1
7,0,0,35,10,0,0
2,26,13,3,3,1,0
33,8,11,15,26,2,1
11,26,8,4,4,3,0
2,14,3,17,5,1,0
1,4,2,33,24,1,1
8,9,1,12,13,1,4
0,2,2,32,6,1,2
22,2,2,4,2,1,0
19,3,61,8,0,0,1
1,7,6,35,50,1,1
18,3,2,14,9,0,0
14,2,2,17,18,1,1
1,5,3,2,16,7,2
3,44,14,17,6,9,2
2,9,36,10,1,3,2
2,7,5,11,6,0,0
0,8,2,2,10,2,2
32,2,6,13,11,1,0
8,6,36,6,18,1,1
9,5,91,33,2,0,2
2,3,38,24,0,2,0
18,12,4,6,17,0,1
3,4,2,42,30,1,0
0,20,2,23,3,1,3
3,8,1,27,0,15,1
2,9,1,33,1,3,1
1,4,1,4,12,0,2
23,3,0,7,30,0,1
4,6,2,6,12,1,0
16,1,4,9,9,0,0
14,7,1,7,1,5,1
2,6,0,13,18,1,2
11,2,1,5,23,2,1
11,1,2,48,12,2,2
16,47,0,8,14,0,1
6,12,9,11,15,1,1
2,3,1,9,2,1,2
0,4,15,5,1,1,2
26,7,11,27,7,7,0
39,52,2,29,17,2,3
14,5,1,7,8,0,1
10,6,1,3,7,2,1
4,1,72,2,11,0,2
1,13,17,15,5,1,1
8,2,3,3,12,1,0
2,1,44,28,4,2,2
18,2,110,10,12,0,1
1,0,7,19,8,1,1
39,5,1,26,14,1,1
5,1,0,1,3,0,2
0,2,2,24,1,12,1
0,28,2,7,45,1,0
2,2,2,20,10,0,0
12,7,2,7,5,0,1
10,4,0,1,1,2,7
5,11,1,21,12,2,2
6,25,2,25,42,2,0
6,10,1,10,1,2,1
5,3,18,0,12,4,1
19,11,2,2,8,3,0
3,3,2,7,4,2,2
10,26,2,29,4,9,1
3,2,6,16,15,1,1
43,9,1,13,3,1,2
6,30,2,3,5,1,1
1,4,2,1,1,1,2
10,2,3,3,6,1,1
35,51,0,2,11,2,1
4,7,39,8,12,1,0
7,3,40,14,7,2,1
3,0,2,1,6,1,2
4,7,1,14,25,2,1
11,7,1,4,5,12,1
6,6,4,10,9,2,1
14,12,1,7,3,2,0
5,1,3,2,2,8,1
3,1,1,2,15,2,3
2,3,28,2,6,1,1
2,2,37,10,10,1,1
22,1,24,1,6,3,1
2,10,2,0,9,2,1
7,1,0,2,3,2,0
1,2,2,7,9,2,0
14,9,1,2,49,5,0
1,12,0,1,17,2,0
4,35,1,1,4,0,2
13,12,0,0,11,0,0
4,2,1,0,2,2,2
2,1,4,1,25,1,1
54,4,1,0,3,2,1
29,12,1,0,18,14,1
3,1,0,1,5,1,1
0,14,2,4,14,2,0
31,20,2,2,8,1,0
2,1,2,3,13,2,0
1,1,2,1,1,1,1
9,12,4,2,18,0,1
8,8,0,2,14,1,2
6,49,2,1,3,4,1
12,3,2,2,3,4,2
2,8,63,1,7,3,2
18,63,9,2,4,0,0
24,11,13,1,34,0,0
2,28,1,4,27,1,1
1,3,1,0,12,0,1
2,1,1,1,9,2,0
56,2,1,1,7,1,1
6,12,16,1,15,1,0
19,15,38,2,3,1,1
7,2,8,0,38,2,3
4,0,1,1,37,3,3
33,1,2,0,4,1,2
3,19,1,0,14,5,1
1,6,4,1,11,2,1
5,0,2,1,18,2,1
1,2,0,2,11,2,2
3,1,0,0,1,1,1
9,21,1,1,2,1,1
0,3,1,2,34,2,2
3,2,11,2,2,1,0
15,1,1,0,36,12,0
9,0,2,0,24,9,2
6,3,0,2,6,5,1
2,3,43,3,11,1,2
11,1,3,1,7,1,1
1,1,0,6,2,6,0
13,28,50,2,25,2,2
3,6,47,4,3,4,0
1,59,25,0,6,1,1
1,3,2,1,33,0,4
8,1,1,1,3,1,4
2,13,2,2,12,4,0
2,33,1,4,10,6,1
26,8,1,6,13,3,0
2,3,0,6,10,3,1
1,9,2,2,14,0,1
4,8,0,0,3,2,0
6,23,2,2,12,0,1
3,1,2,1,13,2,0
3,0,0,4,0,0,2
2,16,0,1,6,0,3
2,10,2,0,10,1,2
2,23,0,1,10,0,1
1,7,5,2,4,5,0
1,2,6,0,42,2,2
6,2,1,4,40,6,1
3,12,0,2,7,3,1
3,13,1,0,2,0,2
1,3,0,0,1,5,1
1,1,1,1,12,1,0
1,5,0,1,11,1,1
3,5,0,1,3,2,1
12,7,1,1,32,2,2
1,8,1,0,2,2,0
1,18,2,0,34,0,1
11,3,2,1,4,0,2
3,10,0,3,2,1,1
4,18,1,6,51,2,2
2,3,0,4,14,7,1
1,8,2,2,9,0,1
5,8,3,1,13,2,0
2,5,1,0,14,0,0
2,22,2,2,14,0,0
2,8,1,3,5,0,1
0,12,2,5,18,0,1
1,1,1,3,11,1,2
2,4,1,1,4,1,1
1,14,1,2,19,2,1
0,3,2,1,22,0,1
0,2,1,5,8,12,2
3,5,2,2,4,1,4
0,12,1,0,27,2,2
2,8,2,0,21,1,0
2,1,0,2,20,1,0
0,1,2,1,5,0,1
1,4,2,2,1,1,1
0,3,2,1,9,5,0
0,1,1,1,37,0,2
2,2,2,2,5,5,2
1,9,0,2,7,5,0
1,17,1,1,3,1,0
0,1,1,2,13,1,2
0,8,1,1,10,1,8
5,6,0,0,13,0,3
4,6,2,1,1,6,2
2,6,1,0,1,2,1
4,5,2,1,48,0,0
1,5,1,1,21,1,3
1,1,1,6,4,2,2
1,16,2,2,5,0,1
2,2,0,2,2,1,1
1,20,2,2,0,1,1
2,2,1,1,6,1,1
0,5,0,1,13,0,2
1,21,0,1,1,2,0
0,6,1,1,17,0,1
0,10,2,0,6,2,0
2,2,2,1,30,1,1
1,8,1,0,6,0,3
1,1,0,0,54,1,2
2,2,2,1,4,8,0
1,2,2,2,1,6,1
1,2,2,1,17,1,0
1,2,2,0,135,2,2
0,1,1,1,12,0,1
1,2,0,2,2,2,2
1,10,2,1,5,0,0
1,10,1,2,5,1,2
1,2,1,0,5,5,2
1,4,2,2,0,0,2
2,3,0,0,15,2,2
0,2,2,1,24,1,0
2,1,1,1,15,3,1
0,2,1,0,8,2,1
1,0,1,2,2,0,1
0,13,1,2,31,1,1
3,5,0,1,18,2,0
1,2,2,1,45,1,0
2,4,1,0,2,1,2
0,11,0,5,6,1,1
1,1,1,3,0,1,3
3,4,1,5,33,0,0
2,3,1,2,6,6,0
1,3,0,2,23,3,1
8,2,2,2,6,0,1
1,1,1,3,4,1,2
1,1,0,2,17,1,0
5,0,2,2,3,2,3
1,0,2,14,2,15,1
2,2,2,2,1,4,1
2,6,1,2,0,0,1
0,2,0,1,10,2,2
0,2,0,0,3,1,0
0,0,2,1,1,1,0
3,0,6,1,6,2,2
1,0,1,0,3,1,0
2,2,1,0,25,0,2
5,2,0,2,14,2,1
1,1,2,0,46,4,1
1,1,2,0,7,2,2
2,1,1,1,25,0,0
0,2,1,1,2,1,1
10,2,1,1,2,2,0
2,1,1,8,2,1,1
9,1,0,6,50,1,0
1,1,1,2,6,2,2
5,1,0,1,9,0,2
1,3,2,1,10,1,4
0,3,3,0,22,1,2
1,0,1,2,3,2,1
4,2,2,0,3,0,1
1,6,2,0,1,0,1
1,2,1,2,3,1,2
2,2,0,1,1,3,4
1,4,1,1,4,7,1
0,1,1,3,24,2,1
0,2,2,3,6,1,1
0,8,2,0,24,0,3
0,3,1,2,30,5,1
3,1,1,1,18,1,0
0,0,1,2,20,10,1
1,2,4,1,8,4,2
0,0,1,2,14,0,4
3,3,1,0,3,8,3
1,3,2,0,0,2,1
2,2,1,1,8,2,2
2,0,5,1,4,22,0
0,2,17,0,1,3,1
2,1,12,0,0,5,0
1,2,1,2,23,1,0
0,0,2,1,5,1,0
1,0,0,2,11,0,0
0,2,0,2,35,2,0
0,0,0,2,8,2,1
1,3,1,0,1,1,4
0,2,1,2,1,1,4
0,2,1,1,13,1,1
1,1,1,0,5,1,0
0,0,2,2,28,2,2
2,5,1,3,35,4,0
1,3,0,1,17,2,1
1,2,1,4,6,0,0
1,2,0,1,14,1,1
0,3,1,1,3,4,0
2,6,0,1,0,1,2
1,7,0,2,15,2,2
2,3,1,1,14,0,1
2,1,2,1,2,10,0
4,0,1,0,23,15,0
2,1,1,0,5,2,0
1,2,1,2,3,0,2
1,1,0,0,14,0,1
1,2,5,1,0,0,0
2,2,2,0,3,0,2
2,5,4,0,18,116,9
0,4,0,1,14,9,2
1,0,0,2,41,2,1
0,1,2,3,7,2,1
0,3,2,2,14,0,1
1,2,1,1,2,1,1
5,1,4,0,5,4,0
2,2,2,1,3,7,2
0,2,3,1,2,1,2
1,1,5,1,13,0,0
1,4,6,1,7,8,1
0,1,0,1,3,1,1
1,2,0,2,5,5,2
2,6,1,1,6,2,2
2,1,12,1,3,1,0
1,4,5,2,19,3,1
1,5,3,1,3,2,1
1,1,15,6,2,2,2
1,0,2,5,1,1,1
0,1,4,3,2,2,7
1,1,3,2,2,2,3
0,1,0,1,12,7,1
3,1,6,1,8,4,2
1,0,2,0,1,1,1
1,1,0,1,1,1,5
2,0,2,3,4,1,1
0,6,1,1,5,8,1
2,1,1,3,4,1,0
2,9,2,1,0,1,5
0,2,4,1,2,2,4
1,3,1,0,3,2,8
0,2,1,1,6,0,1
2,1,2,2,3,1,0
3,3,1,1,1,9,0
5,0,1,1,28,2,0
1,2,1,1,12,1,0
0,1,1,1,11,0,10
1,0,1,2,1,2,3
1,9,0,2,2,7,1
3,9,0,0,3,2,2
0,2,2,1,10,1,16
0,2,1,1,21,1,4
1,2,3,1,7,3,2
0,0,4,0,2,1,1
8,5,0,1,14,8,0
1,1,1,0,3,2,0
1,2,0,1,3,3,1
1,1,1,8,4,2,0
0,0,0,6,13,3,2
0,2,2,2,5,2,1
1,2,2,1,5,2,3
1,0,0,2,18,0,1
0,0,2,1,1,0,1
1,1,12,0,26,6,0
2,0,3,2,5,2,5
6,12,4,1,32,2,2
1,2,3,2,4,3,1
1,2,1,0,19,2,0
0,1,0,0,11,9,1
2,2,3,0,5,8,2
1,1,17,1,1,2,0
0,2,5,1,5,2,2
0,3,2,1,35,1,0
1,3,0,0,6,2,2
1,3,1,0,1,1,2
0,4,5,1,0,9,1
0,2,4,0,28,3,0
1,2,1,7,3,9,1
5,14,1,1,4,3,2
1,12,0,1,5,0,6
2,1,1,1,5,13,1
0,1,10,4,13,4,1
0,1,5,4,5,2,2
1,3,1,1,1,0,1
2,1,0,1,2,9,1
5,4,1,0,18,11,3
3,0,0,1,12,2,0
2,1,1,0,11,3,1
1,1,4,0,23,2,0
1,2,16,0,8,2,1
0,2,5,1,8,4,2
2,6,2,0,2,3,6
3,4,1,0,6,2,2
1,1,1,1,17,0,0
3,0,2,1,7,1,0
1,2,0,1,1,3,2
1,13,1,0,1,7,1
1,3,0,0,0,5,1
2,2,0,2,6,0,0
0,3,0,1,5,10,0
2,1,1,1,2,2,1
1,2,1,1,1,3,5
3,5,3,3,1,5,1
1,20,2,0,4,3,2
1,4,0,0,16,3,2
2,4,1,1,2,6,0
1,1,1,1,7,5,0
2,2,13,2,7,2,1
2,2,7,1,17,4,1
1,4,2,0,2,4,1
1,2,0,0,2,3,1
1,4,5,3,17,1,1
3,3,2,1,1,10,1
3,1,26,2,11,8,1
0,0,3,3,2,11,1
1,2,2,1,1,4,1
0,3,0,2,2,5,2
1,2,5,1,1,2,3
1,0,3,2,6,2,1
2,2,2,0,2,3,1
1,4,0,1,2,0,1
1,1,1,0,0,8,1
0,1,1,0,1,4,1
2,1,1,0,3,5,0
0,0,1,2,7,2,0
0,2,0,1,9,1,0
1,1,0,0,25,5,3
1,4,1,2,2,8,1
0,6,3,0,9,2,4
2,9,2,2,2,2,1
1,3,4,1,1,2,0
2,2,1,1,3,11,2
1,1,2,1,1,1,1
0,2,0,1,2,5,0
0,0,0,2,3,5,1
2,3,2,2,3,11,0
2,5,1,2,1,6,1
5,2,0,3,2,1,1
2,3,7,1,2,1,2
0,2,6,4,2,2,1
1,1,2,5,3,3,1
0,3,1,1,1,4,0
1,2,1,1,3,5,0
1,2,0,1,3,2,1
0,6,1,1,0,1,2
6,13,1,2,3,1,0
2,5,1,1,1,8,0
1,2,25,1,1,4,0
0,3,3,1,0,1,0
2,1,0,1,7,5,1
2,1,1,0,11,6,0
1,0,1,1,13,7,1
2,2,2,2,1,6,5
2,0,3,3,1,2,3
0,0,2,1,6,2,1
1,0,8,2,16,4,0
1,1,9,0,3,1,1
1,2,2,2,1,8,0
0,1,2,1,1,5,2
2,1,2,1,2,10,1
1,2,3,1,3,2,2
2,1,1,1,18,1,0
2,0,0,1,3,2,0
2,2,1,0,1,15,2
2,4,0,2,0,6,2
3,1,1,1,1,2,0
1,1,1,1,1,1,1
3,2,0,1,2,3,0
1,1,4,3,2,2,1
0,13,9,2,0,1,0
0,2,1,1,4,0,5
1,2,1,1,1,2,3
0,6,1,0,4,10,0
2,1,1,3,14,0,2
1,1,2,1,1,0,1
1,3,0,2,1,1,2
1,1,5,2,2,6,2
2,0,3,1,1,9,1
1,0,0,0,10,6,2
0,0,2,0,2,1,0
3,2,1,0,1,2,0
1,0,3,1,4,6,0
0,1,2,1,2,25,0
1,0,1,1,3,6,1
0,2,13,1,3,5,2
1,2,2,0,1,3,5
2,0,1,1,3,1,0
2,0,0,2,0,2,0
0,2,5,1,3,2,1
1,2,2,0,1,4,1
0,3,1,0,1,2,2
2,4,1,1,1,3,1
1,2,14,0,1,6,1
1,1,2,2,1,9,0
3,6,0,1,2,5,1
3,3,1,1,4,2,2
1,1,1,1,1,1,1
2,1,15,1,1,0,2
2,7,2,2,0,5,2
0,1,3,1,1,2,0
1,1,1,1,0,2,1
3,0,1,1,3,4,1
3,8,2,1,1,8,2
5,7,0,0,2,3,1
1,1,10,0,2,1,0
1,2,1,1,0,3,0
2,11,3,4,6,0,1
1,2,1,2,1,18,1
1,0,1,1,1,5,1
5,2,1,1,2,2,1
1,1,0,0,1,2,2
0,3,0,0,0,2,1
0,3,0,1,5,2,1
2,0,0,2,2,0,1
6,0,4,1,1,3,0
2,1,3,0,0,1,1
1,1,1,0,1,12,0
0,4,1,1,1,4,1
0,1,1,1,2,2,0
2,0,1,1,1,2,0
2,1,1,0,1,2,0
1,1,2,1,0,2,2
1,1,2,5,1,8,2
0,1,2,2,5,1,2
1,0,0,1,2,3,0
1,2,7,0,6,4,1
0,15,2,0,0,2,1
1,2,7,1,1,2,1
1,9,3,2,2,3,3
0,2,1,4,1,0,1
2,4,1,0,2,1,0
1,2,1,1,1,7,1
0,2,10,0,1,2,1
2,9,2,2,1,1,1
1,7,2,3,2,0,0
1,1,2,0,2,4,1
1,1,2,0,1,6,0
0,1,4,1,2,6,0
1,11,0,1,1,2,1
2,2,4,0,7,2,0
2,1,1,1,2,2,0
1,1,2,2,1,1,1
2,1,7,2,1,1,0
1,8,3,5,1,11,0
1,2,2,2,3,2,1
0,1,1,1,2,1,7
6,0,1,2,0,2,1
2,3,3,0,1,1,1
0,2,3,1,1,1,1
4,3,2,2,3,2,1
1,0,2,1,1,11,1
1,1,0,1,1,0,0
0,0,1,0,1,3,4
1,4,1,2,1,1,0
1,3,4,0,1,0,1
1,1,16,1,1,4,0
1,1,4,4,0,5,1
2,1,1,4,3,3,1
2,3,3,2,1,0,1
1,3,8,3,1,6,0
2,20,1,1,4,4,0
0,2,0,0,1,5,1
0,13,2,1,2,2,1
1,5,1,1,3,1,1
0,1,0,2,4,2,1
0,2,2,1,2,1,1
1,4,6,0,0,1,3
2,2,2,0,0,0,4
0,2,1,4,0,1,1
0,1,0,4,2,0,1
0,4,1,3,1,1,0
0,1,14,1,0,1,1
0,2,1,1,2,0,0
1,16,3,1,2,2,2
1,15,0,2,1,1,0
1,2,3,2,0,12,0
4,0,8,1,2,2,1
1,1,9,1,1,6,0
0,0,2,1,1,1,1
6,1,2,2,1,10,0
2,2,1,1,1,4,1
1,4,2,1,0,1,2
0,5,0,2,1,1,6
3,1,0,0,2,1,1
1,1,1,1,1,2,1
0,1,6,1,2,8,0
1,2,18,0,2,2,0
0,2,3,2,0,2,2
2,2,2,1,2,1,0
0,3,3,1,2,1,1
1,7,2,2,1,0,2
1,1,2,1,2,0,0
0,2,0,0,0,3,0
1,1,1,0,2,1,1
1,4,5,1,2,0,0
0,12,3,2,1,3,1
1,2,2,0,1,0,1
0,1,1,0,1,3,1
0,2,1,1,1,1,8
1,3,9,2,0,0,4
2,2,2,1,1,0,0
1,1,4,1,1,0,0
0,2,6,1,0,1,1
2,1,2,2,1,10,3
1,3,3,2,0,4,2
1,3,2,0,0,2,2
1,1,0,1,1,2,2
1,4,2,0,0,1,0
5,1,1,0,1,0,0
1,5,1,0,1,0,1
0,2,0,1,3,1,0
6,0,4,0,1,0,1
1,2,8,0,0,2,2
0,13,2,0,1,1,1
1,1,5,0,2,1,3
1,1,5,2,0,2,1
6,3,5,2,0,0,1
2,2,1,1,1,2,2
1,0,1,2,0,0,0
2,0,0,1,2,1,1
1,0,3,2,0,5,2
1,7,6,1,1,2,0
2,6,2,3,2,1,0
0,0,0,1,1,2,0
1,0,6,1,1,7,1
1,3,3,0,0,2,1
1,3,11,0,0,0,1
2,1,2,2,2,2,1
2,4,2,3,0,2,1
1,1,2,1,0,2,2
1,1,0,2,2,1,1
1,2,1,1,1,0,8
2,6,2,3,1,1,17
6,2,0,1,0,0,2
0,3,4,0,0,2,0
1,2,3,1,1,0,1
3,1,1,1,1,0,1
6,1,1,2,0,1,0
2,2,2,2,3,1,2
1,1,0,4,2,0,1
1,1,5,1,1,7,2
1,2,1,2,1,1,2
0,4,1,1,0,0,0
1,1,0,1,1,3,1
4,1,1,1,1,0,0
2,0,1,1,1,6,1
1,1,1,0,0,1,1
1,2,1,0,0,0,1
0,1,1,1,1,2,2
2,2,15,2,0,0,1
1,1,3,4,0,7,2
0,1,3,1,3,2,3
0,2,3,2,2,3,2
0,0,2,2,5,0,0
6,2,10,1,1,11,1
0,6,8,2,2,2,1
0,5,3,2,1,2,0
2,1,5,1,1,2,1
2,2,2,0,2,1,0
2,1,0,1,1,1,2
0,0,0,1,0,1,4
1,2,18,1,1,0,2
0,12,5,2,4,2,0
4,1,0,2,1,2,1
2,2,2,0,1,2,1
1,4,1,1,0,6,0
1,0,1,3,1,2,1
2,1,4,1,2,5,2
10,5,2,0,6,0,1
5,7,0,1,4,0,0
2,0,5,3,2,4,1
1,1,1,0,2,2,1
1,2,0,1,2,0,1
3,1,1,1,1,1,0
1,1,1,6,0,2,0
2,1,1,3,2,10,1
1,2,1,3,0,1,1
0,0,3,1,1,2,1
8,2,2,0,0,2,3
4,3,0,0,0,15,2
1,3,1,2,2,6,0
1,2,2,0,0,1,1
6,1,1,6,0,0,0
2,9,1,1,3,0,2
3,1,0,0,0,0,1
2,12,1,0,0,2,1
1,2,6,1,0,1,0
2,2,3,1,1,1,1
4,1,2,2,1,7,1
2,8,0,2,2,0,1
4,1,1,1,2,2,1
0,3,7,0,1,2,0
2,1,17,1,1,4,1
0,2,3,2,2,0,0
5,0,1,1,3,1,0
11,11,4,1,1,2,2
3,1,3,2,1,6,2
1,1,1,2,0,2,1
3,0,1,3,0,2,0
2,1,4,1,0,1,2
2,11,15,0,1,6,3
1,2,3,2,1,0,1
4,13,2,0,1,1,1
5,1,1,1,1,27,0
2,10,3,1,2,2,1
1,0,5,2,2,2,2
3,4,2,2,1,1,1
2,2,5,0,1,1,0
1,1,2,0,1,14,0
0,9,1,1,1,8,1
0,3,2,1,2,1,1
6,2,1,2,1,5,1
1,0,0,1,1,1,0
5,1,2,1,2,9,1
2,5,1,1,1,3,1
1,5,3,4,1,0,0
3,4,3,5,2,0,1
5,3,2,1,3,1,0
2,1,7,0,0,6,0
2,1,2,2,1,8,0
3,3,0,1,0,8,0
1,3,1,0,0,4,0
3,12,2,0,1,2,2
1,2,12,0,1,2,0
2,7,2,3,2,1,2
2,2,1,0,0,5,0
0,6,5,2,1,4,7
2,3,8,1,0,12,3
1,2,13,1,1,2,3
1,3,3,1,1,8,0
0,12,2,1,1,3,1
1,1,1,1,2,1,1
6,2,5,1,0,2,1
2,2,5,1,1,1,0
1,4,1,1,2,3,1
0,3,2,2,0,1,1
1,3,0,3,1,1,0
4,4,3,1,2,13,2
4,2,12,1,0,4,1
1,2,3,3,0,4,0
0,1,2,2,1,1,1
8,5,6,1,0,2,0
1,1,9,2,5,18,0
1,10,2,0,3,5,0
1,1,1,1,2,24,2
3,1,14,1,1,2,1
6,1,1,1,2,21,1
3,5,1,0,1,10,0
5,10,1,5,2,4,2
4,2,1,1,0,1,0
2,1,0,1,0,39,1
1,14,1,1,0,11,0
4,1,3,1,1,53,0
6,3,3,2,0,51,1
6,7,1,0,0,48,1
2,2,1,0,1,3,0
1,5,1,1,1,8,0
0,6,8,0,1,21,2
3,6,24,1,2,38,2
6,2,3,1,2,87,2
2,0,1,1,2,92,1
0,5,0,2,0,51,1
2,3,0,2,0,11,1
0,1,1,1,1,21,0
8,0,1,1,3,19,1
3,0,0,0,1,28,1
1,12,5,1,0,2,1
2,3,3,1,1,3,0
2,2,13,1,1,3,2
4,0,1,2,0,17,5
4,1,1,2,2,48,3
2,16,1,2,1,18,1
2,2,0,1,0,5,1
0,2,2,1,1,1,1
1,2,1,2,2,108,1
2,1,2,2,2,14,1
11,3,0,2,1,88,1
3,1,0,3,2,52,0
1,3,1,2,1,4,1
2,2,1,2,1,6,0
1,2,3,1,0,42,3
7,1,1,0,1,38,2
2,4,1,0,1,38,2
1,13,2,1,1,97,1
5,12,3,2,2,11,3
9,1,8,4,0,20,1
5,1,15,3,2,8,1
1,5,2,1,1,84,1
0,2,11,2,0,18,1
2,2,10,2,0,58,1
1,17,2,1,2,57,1
8,2,0,0,0,27,1
3,1,2,1,1,55,0
1,1,1,1,1,16,0
2,1,6,2,1,30,1
1,2,2,1,2,11,1
8,0,1,2,2,9,0
2,5,6,0,1,9,1
0,1,2,4,1,155,0
1,1,1,2,0,7,0
3,7,1,2,1,17,0
3,5,24,1,0,128,4
6,1,40,0,2,45,2
1,5,18,1,2,29,1
2,3,1,3,1,61,2
0,1,1,2,1,54,1
2,0,1,4,0,12,0
3,0,0,4,1,41,1
3,0,1,2,1,2,2
5,1,1,1,1,5,1
4,1,2,0,2,52,0
0,11,1,2,2,90,0
4,3,2,0,0,24,0
3,8,4,1,1,2,0
1,4,1,0,2,2,1
1,2,1,0,0,142,1
0,5,1,1,0,60,1
4,0,2,1,2,26,1
8,14,1,2,0,9,0
4,2,1,2,2,58,3
0,2,1,1,1,4,1
0,1,3,2,2,65,0
0,4,6,2,2,87,0
2,4,3,2,1,27,0
1,1,4,1,0,153,1
2,3,2,0,2,11,2
1,5,1,39,0,39,1
1,3,2,18,1,74,1
2,2,0,2,1,40,1
2,0,0,16,2,46,0
1,3,20,3,1,19,1
2,3,7,2,0,1,1
2,2,2,1,2,3,0
2,1,0,2,1,93,3
1,2,1,6,0,17,1
1,8,1,14,0,148,1
1,1,0,2,0,45,1
1,2,4,1,0,17,1
1,1,2,1,0,39,2
2,3,2,1,1,6,2
1,12,1,25,0,10,2
1,1,14,49,2,55,0
1,2,44,12,0,16,1
2,10,4,4,0,55,1
3,18,0,2,1,115,2
3,1,2,0,1,17,1
0,2,0,1,1,41,0
1,14,3,0,1,5,1
1,2,5,36,0,0,0
0,5,19,6,1,51,1
1,2,30,87,0,21,2
0,2,4,80,1,54,2
1,1,4,5,2,12,2
0,0,2,18,2,36,1
1,1,8,7,1,60,0
4,2,1,2,3,8,1
2,1,23,37,2,92,0
0,3,63,52,1,14,1
0,2,6,17,0,93,1
1,0,1,3,0,6,2
8,4,1,32,1,7,3
2,1,10,6,2,12,2
2,0,30,2,1,24,0
0,1,5,6,0,46,1
1,2,1,2,2,37,0
3,5,2,5,2,37,2
4,3,6,25,1,4,1
2,2,11,10,1,52,1
0,1,9,0,1,20,2
0,2,4,47,1,133,0
4,1,59,71,1,8,0
2,0,31,56,2,102,0
0,1,3,18,1,32,0
1,6,13,1,1,4,2
0,1,87,183,2,23,1
1,2,16,11,1,5,0
0,3,9,20,2,62,1
2,3,1,9,1,12,1
1,1,3,1,0,3,1
0,5,31,18,1,9,1
1,6,4,24,1,8,0
3,2,2,1,2,19,1
1,0,21,75,2,84,1
1,8,77,11,0,8,2
0,3,15,3,2,91,1
1,4,2,100,1,10,0
1,6,9,6,2,45,2
1,2,3,26,1,30,2
6,2,2,3,2,20,0
4,0,19,1,3,33,2
1,4,51,56,3,12,1
3,9,14,10,2,6,2
0,32,19,47,0,97,0
0,2,92,19,1,15,1
0,0,43,27,1,56,0
1,5,5,3,2,3,1
1,7,1,16,1,15,0
1,1,26,43,1,38,1
2,1,48,28,1,20,4
0,19,7,32,1,46,1
1,3,70,3,2,9,1
1,1,27,1,2,51,2
2,2,3,1,2,3,0
8,10,5,109,2,11,4
4,3,33,7,1,61,3
1,1,29,32,1,34,0
1,2,10,4,1,27,1
3,8,49,39,0,99,6
2,2,6,34,2,6,1
1,0,2,54,1,7,1
0,1,34,21,1,94,0
0,27,15,18,0,11,0
2,13,15,32,1,53,1
1,1,6,5,1,7,1
1,4,27,109,1,116,1
2,1,8,7,2,21,0
0,3,58,1,1,3,1
2,2,9,3,1,24,0
3,0,33,84,0,27,2
1,2,9,18,1,14,1
0,3,6,19,2,56,0
1,0,21,34,1,34,1
5,13,40,15,1,1,0
1,11,16,63,0,19,4
1,3,15,89,1,25,4
2,9,16,18,1,9,1
0,3,19,3,2,11,0
0,1,2,136,1,13,1
1,8,20,5,1,9,1
1,6,23,16,0,91,1
2,13,14,55,1,7,0
2,32,10,37,2,4,1
2,17,7,31,1,37,2
1,3,36,14,0,15,0
1,6,6,62,1,10,1
3,2,51,41,2,12,0
0,1,17,32,0,2,0
1,2,12,4,0,33,1
1,1,11,19,2,15,3
4,0,0,127,0,1,2
2,1,40,8,3,2,0
0,4,7,4,1,5,1
1,4,13,150,2,1,0
1,1,21,62,1,69,0
0,10,1,4,2,23,2
2,3,7,2,0,3,1
5,11,15,37,1,15,1
0,7,11,10,1,19,1
1,3,2,17,0,5,6
2,1,0,48,0,30,3
0,9,2,6,2,18,2
1,14,7,94,1,3,0
2,7,31,47,2,11,0
0,7,15,92,0,18,1
0,12,2,6,1,24,1
1,9,47,95,1,28,1
1,43,34,7,1,9,1
0,3,14,92,2,11,1
0,12,23,9,0,56,0
1,5,3,109,0,16,0
1,3,9,18,1,2,1
8,1,13,13,0,21,5
3,2,8,15,2,43,4
0,2,32,129,1,8,2
0,0,37,7,0,1,0
11,1,12,2,1,33,0
2,24,3,1,1,6,0
2,23,12,267,1,14,1
3,2,2,60,0,2,2
0,7,22,75,1,42,0
0,8,3,29,1,8,2
1,13,21,14,1,22,1
2,11,40,46,0,12,2
1,1,8,52,2,10,1
2,9,10,2,1,4,0
1,20,19,52,1,11,1
0,4,3,17,0,13,0
1,0,11,34,1,5,2
0,2,5,5,0,6,1
0,5,17,0,1,34,2
1,9,25,188,1,12,0
1,7,6,125,1,40,1
1,16,11,7,4,3,1
1,8,19,2,2,36,3
0,15,3,162,2,4,1
2,20,44,94,2,5,2
1,2,8,8,1,13,1
1,2,1,26,2,33,2
2,22,33,97,1,13,3
3,8,3,9,2,3,2
1,28,8,10,1,2,0
3,57,3,58,3,8,1
3,2,47,18,1,15,3
7,16,3,58,1,15,1
3,29,6,35,2,1,1
1,10,11,9,2,2,2
1,1,6,13,0,32,0
2,1,8,21,1,25,1
1,2,29,34,1,3,2
13,1,1,37,0,28,3
1,10,19,13,2,5,0
1,64,14,59,1,15,1
1,3,5,56,0,2,1
3,2,15,17,2,9,1
1,10,13,94,1,4,1
8,4,23,64,1,3,2
3,1,3,34,0,12,0
0,31,18,42,1,9,1
0,40,23,23,0,3,0
1,3,8,108,2,7,0
1,31,1,2,0,1,4
3,15,31,41,2,6,2
2,3,31,17,0,21,1
1,3,30,61,1,4,2
7,2,3,52,3,34,1
16,14,6,15,1,5,1
8,16,5,129,0,1,2
3,11,5,42,1,4,2
4,31,2,26,2,16,0
7,6,16,9,1,23,2
1,1,7,27,0,47,0
0,7,4,24,0,3,3
72,19,3,15,1,68,3
17,4,10,13,0,5,2
11,20,8,51,1,39,2
18,1,20,56,0,4,1
5,56,4,24,3,63,1
0,24,20,2,0,4,0
1,3,10,26,0,5,2
2,59,16,49,1,21,0
3,10,5,3,2,1,2
2,37,0,25,1,26,1
1,32,19,236,1,11,1
1,8,19,10,2,58,0
0,23,3,2,1,7,1
1,16,22,74,1,2,2
0,6,8,69,3,19,2
30,3,3,15,2,2,1
3,8,16,2,1,28,2
2,8,18,26,1,2,1
37,19,25,25,1,28,1
15,48,6,15,2,4,1
1,22,10,126,0,8,0
3,4,4,33,1,16,0
44,23,25,9,1,28,0
8,8,7,75,1,27,0
2,18,23,15,0,25,0
14,16,4,12,1,14,1
13,6,4,22,2,9,1
2,18,40,14,0,14,1
2,68,4,0,1,57,2
2,9,31,102,2,6,1
2,26,21,14,2,1,3
2,9,3,150,1,20,6
17,13,56,12,1,32,1
10,45,8,10,0,44,1
0,6,6,36,1,10,4
58,8,14,11,0,1,1
10,14,12,17,2,7,1
2,6,2,3,2,9,0
0,102,12,1,1,2,2
7,25,18,173,1,5,1
5,14,2,12,1,12,1
26,4,20,10,1,3,1
7,2,12,21,0,1,1
1,40,26,8,1,52,2
2,32,12,1,1,5,1
13,3,6,2,0,3,1
3,95,36,147,3,12,1
1,58,11,5,1,31,1
19,22,21,3,1,12,1
15,8,14,24,2,5,0
26,39,11,168,1,6,0
20,11,12,59,3,4,2
4,15,1,49,0,12,2
0,6,15,6,0,17,2
0,2,2,31,1,16,0
45,0,21,28,1,6,0
25,142,11,83,1,23,0
22,35,13,13,1,33,2
3,2,9,48,2,17,0
20,8,3,83,0,2,1
4,8,19,10,1,35,2
16,3,7,34,0,16,1
3,38,12,62,1,1,7
25,13,2,9,0,51,3
4,51,27,106,1,20,1
6,9,2,19,2,5,0
3,40,4,1,0,19,1
17,2,6,5,1,21,1
27,40,3,3,1,7,0
1,43,7,1,0,13,0
44,6,9,19,0,4,1
12,186,3,16,2,22,1
17,33,9,32,0,32,1
11,11,9,3,2,9,0
5,0,9,26,0,24,1
18,153,20,12,0,1,0
3,45,5,41,1,8,2
1,30,7,5,2,20,2
84,4,35,4,1,62,4
32,80,3,2,0,4,2
26,17,1,223,0,3,1
75,1,18,36,2,2,1
11,20,23,5,1,42,0
18,22,9,1,1,4,0
3,47,1,1,3,21,1
1,21,10,24,0,43,1
22,15,26,22,0,17,0
5,102,30,33,0,1,1
1,6,2,4,1,3,2
15,13,3,8,1,49,2
7,6,3,48,1,20,1
53,2,8,2,0,4,0
9,85,9,90,0,20,1
6,122,18,20,2,24,1
21,70,2,24,2,15,0
19,26,6,3,1,4,0
9,5,9,7,0,5,2
11,14,36,25,1,3,0
35,35,3,4,0,25,0
13,41,23,9,0,25,1
10,5,12,37,3,3,0
11,9,29,105,0,5,1
9,28,6,11,1,5,2
2,21,12,16,2,18,1
57,46,30,16,1,34,1
45,43,12,4,1,28,1
8,24,11,35,2,19,5
2,33,5,24,1,6,2
11,36,23,2,2,5,1
64,39,5,21,0,1,0
5,9,10,42,1,77,1
4,0,15,21,0,5,0
7,73,5,15,11,8,1
19,69,9,26,52,2,3
16,15,5,4,4,34,2
10,5,26,5,1,2,2
3,113,36,5,26,25,1
31,11,7,19,9,17,2
18,9,10,4,6,36,1
4,1,30,158,3,5,0
0,104,34,8,5,25,1
4,4,9,15,2,6,2
57,50,9,20,1,13,2
4,3,2,21,3,4,1
9,6,42,23,3,20,1
2,24,12,4,0,4,1
12,42,11,1,5,0,0
8,64,9,26,6,26,0
3,29,27,13,2,17,0
34,70,10,1,2,5,1
2,14,0,32,1,8,0
60,14,7,60,1,12,2
38,54,11,30,1,20,4
4,8,9,1,12,6,1
37,10,26,35,15,5,1
19,4,2,10,13,13,1
19,24,4,14,45,1,2
3,17,7,17,47,28,0
7,10,6,3,50,5,1
8,13,40,8,44,4,1
15,23,14,6,4,22,1
13,36,4,53,0,2,1
8,19,8,33,99,37,6
13,11,4,7,84,2,2
14,48,2,1,41,8,0
2,13,43,1,4,4,0
13,24,13,9,32,4,0
6,8,36,14,32,32,0
0,63,9,144,18,11,0
25,10,1,78,11,2,2
12,27,14,37,3,5,1
14,4,4,3,5,3,0
44,2,4,2,4,1,0
9,108,3,2,8,27,1
2,21,11,1,2,3,1
4,37,7,5,16,1,1
3,3,1,2,5,35,1
37,46,2,10,9,12,1
2,32,11,6,24,19,0
8,2,3,43,3,6,0
4,1,25,45,49,12,2
3,5,5,14,6,4,1
23,54,3,3,7,7,1
2,19,18,0,2,9,1
49,34,16,9,19,10,1
13,56,5,43,25,45,1
4,8,17,36,17,37,0
67,7,24,4,14,4,0
14,66,2,19,37,3,1
11,29,4,77,9,4,1
8,6,4,31,4,1,1
2,3,17,4,4,0,2
3,1,16,79,64,7,1
31,0,4,6,27,9,0
6,152,6,2,30,3,1
2,31,4,188,25,5,1
0,6,15,36,74,3,1
62,4,6,31,66,28,2
10,8,9,4,4,6,0
13,6,6,1,20,13,2
19,12,14,14,25,35,2
11,44,4,41,24,30,1
5,8,1,3,26,3,0
3,47,40,1,19,6,1
14,13,2,7,19,3,1
7,6,1,14,3,5,1
1,193,10,20,11,4,4
6,18,3,3,6,14,2
7,6,14,30,15,8,0
2,4,6,5,48,4,2
3,15,8,39,11,2,1
9,28,30,34,40,32,2
5,50,3,66,6,16,0
2,21,12,9,10,1,1
1,8,14,7,6,21,1
10,9,1,11,2,4,2
2,49,9,12,61,1,0
0,4,16,34,37,16,0
47,18,6,3,25,8,1
14,4,19,4,11,4,1
7,109,4,16,30,0,0
9,10,7,84,2,1,0
16,0,2,18,62,7,1
11,1,11,10,14,8,0
0,19,6,44,14,2,1
4,42,1,50,17,0,2
12,6,3,8,4,1,1
2,26,15,11,37,5,1
1,11,5,6,28,19,0
1,72,53,12,98,25,0
31,5,20,12,51,11,1
10,1,23,3,14,1,2
19,6,22,3,2,2,2
19,15,13,4,2,6,1
1,57,4,94,19,5,0
3,33,18,33,2,10,2
5,8,7,18,14,33,1
8,1,25,3,150,9,1
7,34,6,3,23,2,2
22,32,1,24,4,8,0
9,7,17,19,22,8,1
12,68,14,40,4,4,1
2,9,12,23,60,14,0
26,1,10,4,2,5,1
2,4,33,1,13,2,2
8,12,4,52,37,3,1
1,68,15,49,62,3,0
30,13,13,5,14,3,5
12,2,5,18,1,1,1
6,65,2,9,18,9,2
5,7,9,5,2,2,1
19,2,3,4,0,1,1
3,110,4,0,55,1,1
2,6,2,5,123,2,1
1,2,1,14,54,2,0
6,36,2,4,78,13,0
37,18,18,22,30,4,1
4,3,19,30,5,14,0
0,50,2,8,1,2,2
3,8,10,2,4,19,3
24,5,8,8,8,6,2
3,6,11,30,26,55,2
20,33,16,11,56,3,1
14,9,4,6,149,8,0
1,6,11,1,74,6,0
2,11,5,56,5,6,1
26,2,10,5,76,1,0
2,79,15,27,68,4,0
9,12,3,3,9,3,1
6,3,31,1,74,3,1
3,0,8,22,4,1,0
13,14,5,5,19,10,1
11,77,13,11,70,7,3
10,16,1,2,26,3,1
9,2,20,4,43,15,0
14,5,9,74,2,3,2
22,40,4,62,166,1,0
4,22,1,5,12,15,0
8,57,20,21,4,4,2
0,3,3,140,26,1,0
20,12,23,13,5,24,1
3,26,3,1,54,3,0
19,2,2,27,22,13,1
21,20,10,3,10,10,1
23,16,1,15,2,6,1
3,2,2,17,2,3,1
12,40,5,41,14,1,2
10,26,8,19,106,34,1
1,9,6,2,28,32,0
1,2,13,4,34,7,1
0,3,7,7,8,1,0
2,36,4,16,19,1,1
27,16,9,13,32,5,1
16,2,9,2,35,4,0
2,68,11,7,2,9,0
2,41,1,1,19,2,4
10,5,12,42,18,13,0
9,15,8,19,20,13,0
19,25,9,16,32,6,0
1,2,2,14,4,18,1
25,44,23,4,14,25,0
13,8,18,29,14,4,0
4,3,25,27,19,5,0
3,28,38,12,28,3,0
2,15,22,1,23,16,2
5,10,2,26,21,7,7
2,3,12,7,16,2,1
1,2,3,25,9,19,2
4,21,13,27,49,8,0
5,3,1,26,16,3,2
7,65,3,24,1,76,2
1,8,2,3,36,6,1
6,1,3,9,4,7,1
24,75,26,3,69,3,1
10,31,10,3,50,0,0
4,6,10,28,50,18,0
2,97,16,17,55,15,0
3,10,15,24,9,3,0
18,7,10,9,31,1,0
2,65,0,1,10,9,1
2,31,4,30,10,17,1
27,11,27,5,13,12,0
5,41,2,6,11,8,1
1,60,8,0,23,26,1
0,21,14,58,9,4,1
2,3,22,37,10,4,2
28,27,4,23,7,1,2
13,18,3,2,27,6,1
12,14,2,18,11,4,2
1,2,4,9,12,67,2
0,9,4,16,10,6,0
1,29,7,86,24,1,1
40,17,4,18,2,52,0
3,39,19,13,28,3,4
1,10,1,4,6,21,4
50,2,6,25,4,4,1
25,26,15,4,0,4,2
15,3,15,4,50,3,0
1,125,7,27,37,6,1
6,11,29,6,11,15,0
4,2,4,31,54,2,1
16,24,15,27,15,7,2
4,7,3,7,14,11,2
15,2,3,5,5,1,1
3,2,21,2,0,57,1
6,74,7,23,51,4,1
3,11,0,47,14,14,2
40,0,1,9,7,2,2
3,12,8,23,61,4,2
17,38,1,1,6,0,3
2,8,11,0,2,19,4
13,0,4,89,5,3,5
20,56,1,23,30,17,3
12,57,10,43,29,22,2
4,12,5,8,2,11,1
3,35,21,1,16,3,1
1,3,4,3,21,6,1
1,17,1,73,8,5,1
12,31,4,6,46,6,1
2,5,10,32,21,7,0
1,72,30,13,22,26,1
10,34,9,60,27,9,2
4,10,10,42,8,16,0
4,7,20,6,24,2,1
3,2,8,55,2,13,1
3,15,1,9,15,7,2
2,17,10,8,3,1,1
1,7,10,2,47,14,1
39,49,16,1,27,37,2
4,5,24,6,5,16,0
10,100,1,28,7,0,2
7,87,1,21,7,9,2
3,15,11,1,13,8,1
45,2,8,81,3,5,1
6,50,19,5,35,2,2
6,62,11,2,23,7,3
1,3,4,5,2,2,1
24,14,15,22,20,0,1
19,3,5,3,4,2,1
18,0,1,32,84,10,1
3,45,13,25,9,15,0
29,55,8,46,35,34,5
5,13,7,6,3,15,2
11,25,7,2,7,2,1
3,16,9,49,6,4,1
0,19,1,3,12,1,1
2,14,17,12,21,2,4
2,26,2,0,4,6,1
2,45,12,39,3,1,1
4,4,4,5,39,1,0
2,23,10,14,14,29,0
3,23,25,47,22,7,4
9,4,3,54,7,31,2
4,12,17,23,15,2,1
2,82,2,16,11,2,2
11,6,5,7,26,3,2
35,38,7,3,13,36,1
37,28,3,1,8,4,1
4,3,6,12,8,3,0
2,1,17,6,13,3,0
2,22,6,8,34,2,2
51,38,2,11,73,23,2
4,3,10,10,8,5,1
2,1,9,50,2,3,0
1,44,17,9,6,6,1
7,28,4,2,31,5,0
2,9,26,0,4,3,2
1,58,1,0,8,17,2
43,9,11,12,17,13,1
16,6,2,26,21,21,2
5,97,25,30,3,1,1
5,17,5,35,55,5,1
4,9,3,24,6,34,2
4,41,1,3,3,2,2
1,10,3,1,15,51,2
22,1,6,14,10,6,2
6,17,4,13,33,1,0
4,3,0,7,4,9,1
3,2,22,11,12,8,2
1,71,19,33,12,8,3
10,4,18,17,45,1,1
19,46,5,5,5,8,1
4,2,3,3,9,17,1
1,33,12,104,9,9,1
8,22,19,24,12,4,2
16,42,11,3,2,2,1
2,10,4,1,20,2,1
2,6,29,1,9,2,2
19,4,6,6,7,7,1
7,14,5,59,15,4,0
21,3,11,26,45,3,2
7,33,29,6,15,2,1
7,24,8,24,3,3,1
3,35,19,3,7,20,0
1,10,2,2,1,3,3
2,36,2,11,12,2,0
1,95,12,9,13,24,1
45,30,1,3,8,10,1
8,5,15,2,19,14,1
25,9,5,1,3,5,1
15,5,8,71,5,8,0
1,37,5,22,37,4,0
2,14,18,7,28,0,1
11,41,3,0,3,0,1
1,3,9,9,67,2,1
1,151,6,16,22,2,0
10,11,15,32,6,0,2
2,2,16,3,44,4,1
2,15,2,36,14,1,0
37,3,13,3,19,1,0
3,12,6,14,4,0,1
3,42,3,8,6,14,5
2,9,6,15,16,2,1
26,48,13,22,4,2,2
3,10,6,17,12,13,1
1,43,10,1,2,2,1
20,20,2,40,12,2,1
6,5,21,6,11,1,1
7,108,16,3,6,3,1
2,6,7,12,17,0,1
5,57,15,17,15,1,2
7,3,9,5,19,2,2
45,1,24,30,11,8,1
4,45,28,10,10,3,0
1,7,4,4,9,8,2
0,40,1,10,4,5,0
1,31,18,33,38,2,1
9,69,3,41,11,20,1
26,5,28,4,2,10,0
3,5,3,57,10,21,0
10,17,5,4,3,2,1
26,30,31,2,43,1,1
2,24,6,46,7,2,3
7,6,27,19,1,4,1
0,37,17,2,7,2,0
4,31,15,12,56,1,2
19,17,2,1,16,6,0
2,37,11,5,4,11,2
15,5,9,9,7,2,1
8,6,1,18,13,2,0
2,6,4,17,1,1,1
45,58,2,63,9,10,1
12,17,7,6,7,12,0
2,16,3,0,18,4,0
23,46,2,8,33,31,1
11,7,24,3,3,3,1
14,2,13,17,1,3,1
2,77,8,2,29,2,0
7,21,0,3,5,2,3
6,2,4,14,18,12,1
3,10,5,47,3,2,0
3,32,15,27,36,10,0
0,5,3,4,14,9,2
2,39,14,1,17,19,1
3,32,4,54,2,8,0
41,1,2,26,41,3,1
11,110,3,3,4,25,0
8,49,2,25,1,48,1
1,5,2,9,10,5,0
14,17,2,6,2,3,2
4,14,3,1,39,1,2
1,19,4,43,10,2,2
2,7,1,37,43,2,2
3,0,16,19,13,1,0
0,97,2,6,6,1,1
14,25,12,10,7,15,2
18,8,9,9,8,5,1
9,10,5,4,18,62,2
2,56,0,2,6,4,1
3,3,19,29,16,1,2
4,63,34,18,24,12,2
7,8,6,22,5,3,1
4,11,13,58,20,5,1
2,1,3,32,4,3,0
1,2,10,16,4,1,2
8,3,12,8,8,37,0
30,8,2,12,4,37,0
12,68,6,1,5,51,1
34,9,1,1,13,4,0
7,9,7,2,33,3,1
2,8,20,2,5,27,1
5,32,2,19,4,42,0
4,2,5,2,4,29,1
4,1,2,69,17,16,3
3,100,10,23,2,3,0
2,12,2,4,5,6,1
2,17,3,50,22,9,2
4,18,1,13,6,8,2
2,22,7,1,24,0,1
17,3,2,7,10,3,0
17,46,1,21,20,25,2
3,12,2,23,13,26,1
2,25,1,99,26,2,0
14,16,1,13,27,5,1
1,2,2,4,4,1,1
12,9,4,54,6,13,6
2,28,1,9,13,3,5
0,12,3,8,3,4,4
0,13,2,3,2,13,0
6,2,2,39,7,9,2
23,18,8,3,19,3,3
14,46,9,5,1,4,0
10,17,3,1,7,2,0
5,41,1,40,5,2,0
7,6,0,7,5,5,1
10,1,5,8,1,8,1
2,86,2,42,29,11,0
1,29,0,15,6,2,3
5,10,1,6,3,0,0
0,5,2,79,4,3,0
5,45,15,23,36,0,1
6,47,2,13,10,3,1
25,4,1,86,19,2,1
3,58,10,8,21,2,1
10,3,7,37,11,3,1
6,46,4,36,14,2,1
4,7,15,4,11,2,1
1,94,43,0,2,1,0
12,19,3,29,1,8,1
1,39,1,16,57,9,0
0,33,5,31,13,2,0
0,2,4,2,8,1,0
4,39,1,105,21,2,4
11,63,1,43,3,1,0
21,11,4,5,5,2,1
3,5,57,4,18,1,1
0,0,10,10,1,15,2
4,25,1,5,9,1,1
1,4,3,1,31,7,0
7,17,20,7,4,4,0
2,2,2,11,14,2,2
1,94,0,5,1,4,0
1,33,1,0,11,2,0
17,17,0,0,5,0,1
2,3,1,66,8,0,2
28,10,68,12,3,1,1
2,51,138,8,20,4,1
2,5,20,4,4,1,1
7,49,2,28,57,2,0
1,24,1,3,4,2,1
3,7,2,3,12,3,0
1,10,2,2,2,1,1
20,4,0,15,7,0,2
4,81,1,1,30,1,1
2,8,1,4,14,0,1
0,31,9,2,3,0,0
4,18,12,23,5,5,0
2,1,2,38,17,3,1
1,54,1,4,1,1,2
6,15,2,3,12,3,0
32,35,0,2,13,1,0
4,11,2,25,38,4,2
7,68,0,32,7,7,0
2,5,1,6,2,3,0
6,0,55,4,6,0,1
49,1,13,2,2,9,1
6,14,19,16,1,3,1
3,24,25,2,5,1,0
7,22,5,1,30,1,2
3,15,2,2,3,2,2
20,1,2,10,40,2,5
1,6,1,2,9,0,2
20,25,2,1,2,0,2
23,15,1,8,2,1,1
11,2,0,12,1,1,1
1,20,15,12,6,0,0
0,8,62,3,18,1,2
24,8,6,13,38,1,0
7,5,13,2,4,2,0
2,2,2,3,1,2,0
16,0,1,44,7,2,3
10,169,0,4,7,1,1
1,22,1,2,27,1,1
38,2,2,1,30,1,0
4,14,0,1,9,2,1
9,27,2,17,5,1,2
3,20,1,7,4,1,1
20,2,3,2,9,1,0
2,11,25,0,29,3,1
14,13,3,1,8,1,1
1,3,21,7,3,1,2
8,3,1,23,14,1,1
2,15,2,0,6,1,2
0,20,13,8,11,3,0
1,4,64,12,13,3,1
0,1,11,2,5,0,1
1,2,1,0,7,2,0
14,6,5,19,10,0,0
4,36,2,2,2,1,1
3,31,0,8,2,4,2
13,15,0,17,1,5,1
10,1,1,3,22,0,4
2,1,1,9,3,2,8
0,0,2,9,3,0,3
10,4,25,5,8,1,1
12,22,5,25,40,2,1
22,13,2,1,20,2,0
11,11,1,1,1,2,1
3,10,2,2,1,3,0
0,21,0,5,31,2,1
6,42,1,5,14,1,1
9,2,1,1,6,4,2
2,2,1,5,3,0,2
1,11,1,4,4,1,1
2,1,2,4,15,1,1
9,2,12,6,37,1,1
15,17,7,0,2,3,2
5,1,2,0,1,1,0
1,25,1,0,46,1,1
1,44,1,2,9,0,1
18,6,0,1,9,4,0
6,8,1,0,9,3,1
2,7,1,6,8,2,2
5,6,1,3,13,2,1
1,137,7,3,5,0,2
21,7,1,2,4,1,0
12,1,1,4,6,5,1
2,1,1,1,2,4,0
0,1,1,0,4,2,3
18,92,2,2,5,3,2
11,22,3,7,5,7,1
5,50,4,8,12,1,1
1,3,1,2,3,1,1
5,17,1,2,25,1,1
10,8,3,2,9,2,1
2,3,0,8,1,1,0
2,7,1,2,9,1,2
1,2,1,3,31,4,1
2,21,1,1,14,1,0
1,21,2,2,2,5,1
0,1,2,2,1,2,2
1,2,1,1,0,1,1
15,1,0,0,2,2,0
3,2,0,3,0,2,1
15,6,1,1,10,1,1
3,23,3,1,2,2,0
2,8,2,2,63,2,2
4,2,0,1,4,0,1
1,40,1,1,22,1,1
3,36,2,0,21,2,2
6,12,3,7,9,2,1
2,2,1,1,4,1,1
22,63,2,1,1,1,1
4,4,2,1,2,1,0
1,3,1,1,31,1,1
1,24,10,1,6,2,1
14,30,1,1,2,0,2
1,16,1,1,23,2,1
1,9,1,1,12,1,0
68,1,1,0,6,0,2
7,29,0,2,12,2,1
4,13,3,1,1,2,1
2,19,2,2,1,1,2
1,35,2,2,14,3,1
2,28,1,1,35,2,0
4,5,0,5,4,5,1
0,3,1,11,3,0,0
3,23,1,1,13,0,1
2,35,2,5,1,0,0
4,3,2,2,8,2,2
9,13,0,1,38,8,1
1,20,0,0,2,6,3
4,8,2,13,1,2,2
0,1,0,10,10,2,1
26,10,1,0,12,4,0
6,9,0,0,1,0,0
6,2,1,4,13,1,4
1,1,1,9,8,1,2
1,50,1,3,4,1,0
0,4,2,1,21,3,0
1,1,2,5,1,1,0
1,4,1,2,28,1,2
1,48,1,2,6,0,2
0,13,2,1,5,2,2
0,7,2,1,4,1,1
0,34,3,2,3,3,1
1,3,2,1,6,5,1
2,16,1,1,2,2,0
1,9,2,1,24,1,2
0,2,2,2,11,0,2
3,2,1,1,4,1,0
1,4,2,2,5,0,1
1,4,1,1,26,0,5
0,2,3,2,7,0,5
1,2,2,2,14,2,1
0,2,1,1,11,1,0
2,2,1,1,5,4,1
2,1,1,2,9,0,0
5,0,1,1,1,2,1
4,2,2,1,4,1,2
0,6,1,1,14,2,0
0,24,0,1,6,3,1
1,4,0,1,32,1,2
0,5,1,1,5,2,0
1,1,1,4,23,1,1
2,0,2,2,5,1,0
0,4,1,1,29,1,1
1,4,1,2,20,3,2
1,13,1,2,3,0,1
1,3,6,1,3,2,1
1,8,2,0,1,5,0
0,4,0,1,1,1,1
2,0,2,0,1,0,1
2,41,0,1,2,0,1
1,3,0,12,14,1,0
0,22,0,2,20,3,2
2,1,0,1,21,2,0
3,1,1,1,4,1,1
1,1,0,2,2,0,2
2,22,1,2,2,0,1
1,5,0,5,0,0,1
0,2,2,2,9,1,1
2,11,1,2,34,1,1
1,1,0,3,16,1,0
0,5,1,1,24,1,0
1,2,0,1,3,1,1
2,1,2,2,1,5,1
2,1,0,3,8,2,0
2,2,1,2,18,0,1
1,4,0,1,8,3,0
1,3,0,2,2,1,1
0,8,1,0,33,1,1
1,10,1,0,15,0,2
0,7,2,1,15,1,1
0,2,1,2,7,0,1
1,2,0,2,2,0,2
0,1,2,2,1,1,2
1,0,1,1,2,0,0
1,2,0,0,6,1,0
1,5,1,2,2,0,0
1,8,1,1,3,1,1
0,20,0,2,0,0,4
1,2,0,1,10,2,0
2,5,1,2,2,1,1
2,6,0,6,4,10,0
1,0,1,2,5,0,0
2,1,2,3,7,1,1
0,2,1,2,33,0,1
1,15,1,2,5,0,0
1,3,3,0,0,3,0
2,9,5,1,2,1,0
2,13,2,5,11,0,2
0,4,1,3,6,1,2
0,2,1,0,3,1,1
1,0,0,1,8,5,0
0,2,0,4,2,2,1
1,5,0,3,53,4,2
0,6,1,2,4,0,1
0,3,1,1,4,1,2
2,7,2,1,1,6,1
2,1,0,2,18,1,0
2,1,0,0,21,1,1
1,9,3,0,3,1,1
2,3,3,2,2,2,1
1,3,1,0,5,1,2
1,2,1,1,72,0,2
0,5,1,2,8,2,1
5,1,2,2,2,0,4
2,1,3,1,0,1,1
2,1,1,2,7,0,1
1,8,1,1,16,2,1
3,0,1,1,2,0,2
2,1,1,1,2,2,1
2,7,2,4,6,0,0
1,3,1,2,2,2,1
1,4,0,0,3,8,1
0,3,1,1,4,1,0
1,0,1,1,2,1,0
1,3,1,2,8,2,3
1,9,0,3,2,0,0
3,3,1,5,1,1,1
0,0,1,0,8,1,2
2,1,1,1,10,1,2
7,2,1,0,5,2,2
1,1,2,2,42,1,3
1,0,2,1,9,0,1
3,1,1,0,2,2,1
1,1,0,0,1,1,0
3,3,3,2,12,2,2
2,1,4,2,4,1,0
1,0,0,2,2,2,0
1,1,1,1,1,0,0
2,0,2,4,42,1,0
4,1,0,4,113,11,1
3,3,2,2,4,1,1
1,1,1,2,6,1,3
1,0,1,0,29,1,1
2,0,2,1,2,4,1
1,1,2,1,1,3,1
4,0,2,1,4,2,3
3,2,0,0,24,0,2
2,1,1,0,98,0,1
1,0,1,1,15,2,1
1,1,2,0,3,3,0
5,6,2,1,24,2,1
1,4,0,7,39,1,0
1,0,3,2,53,2,2
2,1,1,5,38,4,2
0,4,2,2,89,1,2
1,3,0,1,8,1,1
0,1,1,2,2,1,2
3,4,5,1,104,3,1
0,3,0,0,4,2,1
1,4,1,1,15,1,1
2,5,0,2,2,2,1
1,1,1,1,66,2,0
1,1,4,5,6,4,1
1,0,1,1,45,3,3
2,2,1,0,5,1,1
0,2,0,2,41,1,2
0,4,1,1,2,2,5
0,2,2,1,5,1,4
0,1,8,0,15,1,0
2,0,2,2,21,1,1
6,2,0,0,7,0,1
6,1,0,0,52,2,1
2,3,1,2,11,0,1
2,2,0,0,20,0,2
0,2,1,0,4,1,0
1,2,1,3,14,7,1
1,2,0,1,28,3,1
2,1,2,6,23,1,1
1,1,4,3,1,1,4
2,1,2,0,13,1,1
2,2,0,2,2,1,2
1,0,1,1,7,1,2
2,1,1,1,22,4,2
3,1,1,1,7,1,1
1,1,1,0,12,1,0
4,6,1,3,26,10,1
2,2,1,1,2,6,0
2,3,1,10,10,3,4
3,7,0,3,6,1,3
1,4,2,1,0,1,1
1,1,1,1,20,1,1
1,1,3,0,14,0,1
1,5,4,0,1,1,0
1,1,1,1,4,1,0
1,0,1,4,2,1,1
1,2,1,1,9,1,1
2,1,1,0,2,1,1
0,11,2,0,1,1,1
1,2,1,1,1,0,1
1,1,4,1,3,1,0
0,0,2,1,4,1,1
2,1,1,1,1,1,2
0,2,0,3,15,3,1
1,0,2,0,4,1,0
2,2,1,5,2,1,1
2,0,6,3,6,2,2
1,0,3,0,10,1,0
1,0,0,0,8,0,1
2,2,1,3,14,1,0
3,2,0,2,4,0,1
1,0,1,2,2,1,0
0,0,1,1,1,3,1
0,0,0,1,37,12,1
2,0,0,2,4,2,2
7,1,2,4,32,1,0
1,2,1,2,11,2,3
0,1,1,1,0,1,0
2,0,1,1,32,1,1
1,7,0,2,45,0,1
2,13,1,3,3,3,1
0,9,2,2,17,2,1
2,1,1,1,4,11,1
1,0,0,0,3,1,1
1,0,1,2,4,2,1
1,3,0,2,1,0,1
3,1,1,3,2,0,1
0,2,1,2,12,0,1
0,1,1,0,8,5,2
3,6,0,1,1,2,2
1,1,0,0,2,1,0
2,3,1,4,5,0,0
1,2,0,1,25,2,0
1,1,1,0,5,1,2
1,0,2,0,2,1,0
0,2,0,2,31,2,0
1,4,2,0,2,0,2
2,1,6,2,17,0,0
2,0,0,1,10,0,3
2,1,6,1,7,0,1
1,1,2,1,13,0,1
3,1,2,2,11,1,1
2,1,1,2,3,1,1
4,1,1,4,2,2,2
1,1,1,5,6,4,0
1,1,1,2,8,1,2
2,1,1,1,15,0,2
8,0,2,1,8,1,1
3,1,2,1,0,1,2
1,0,0,2,1,1,0
2,0,1,2,3,15,1
4,2,0,2,3,2,0
4,6,1,0,1,1,1
2,7,0,2,6,8,0
1,4,1,0,2,2,1
0,2,1,2,1,1,0
1,0,1,1,9,1,0
1,2,1,0,5,1,8
5,7,2,2,20,1,3
2,2,1,1,5,1,1
4,1,1,1,3,1,2
1,0,0,2,3,2,2
5,2,1,1,1,3,2
5,1,2,3,13,2,2
2,2,2,2,1,0,2
0,2,0,1,5,3,0
1,1,2,2,4,4,2
1,2,0,1,10,2,1
7,1,2,0,2,1,1
5,0,1,4,2,1,3
0,1,1,2,1,1,3
1,0,2,0,8,1,2
2,3,0,1,4,1,1
5,0,2,0,2,1,2
7,0,2,2,0,1,0
2,2,5,1,0,1,0
1,0,3,1,2,1,0
1,1,1,2,1,0,0
2,0,2,6,2,1,0
1,2,1,2,0,0,1
3,1,1,4,1,2,5
3,0,2,0,1,13,1
2,0,2,1,4,3,0
2,2,2,1,12,1,0
1,1,1,0,2,0,2
2,5,1,3,3,2,2
2,2,2,0,1,2,1
1,3,1,0,4,2,2
2,1,1,0,5,2,0
5,1,1,1,5,2,1
4,3,1,1,1,1,3
3,2,1,0,3,1,1
2,11,2,0,0,2,0
2,1,1,0,3,1,0
2,4,1,2,0,1,1
1,11,1,1,0,1,0
0,2,0,2,1,4,1
1,1,2,2,8,6,0
1,1,1,1,3,1,0
1,1,2,0,11,0,0
0,7,2,1,1,3,2
2,2,2,0,0,1,2
2,1,1,2,0,2,2
2,2,0,1,2,2,1
1,3,2,0,4,2,1
0,0,1,2,5,0,0
1,2,1,1,1,1,1
0,0,1,1,0,0,0
0,0,1,0,1,4,1
1,2,1,0,23,1,0
4,2,2,0,3,2,1
4,1,2,0,1,0,0
5,0,2,0,1,2,4
2,0,0,1,1,3,0
0,1,2,7,2,1,2
1,2,1,3,3,1,2
2,4,1,3,2,0,0
1,2,1,2,1,2,1
0,1,1,1,3,1,1
0,8,1,3,0,3,0
2,1,0,0,2,1,3
1,1,1,2,1,1,2
4,2,1,1,0,1,0
2,0,2,0,0,1,2
0,2,4,2,2,3,0
2,6,2,3,2,0,0
1,4,2,1,4,1,1
4,2,1,0,2,0,2
4,1,1,0,5,4,3
0,0,2,1,11,8,3
2,2,0,2,1,3,2
2,0,0,0,5,3,0
2,2,1,0,34,0,1
1,2,2,1,2,0,2
2,1,1,0,3,1,0
1,1,3,1,6,2,1
1,3,0,1,3,1,1
2,1,1,1,20,0,0
2,1,2,1,10,2,1
0,2,2,1,1,0,1
2,1,0,1,25,1,1
3,1,1,0,1,2,1
4,0,1,1,2,0,0
4,1,6,1,25,3,2
1,2,6,1,13,1,4
0,1,2,6,2,0,1
1,0,3,3,2,2,0
0,1,2,1,2,2,1
1,1,1,6,37,3,0
2,2,1,3,5,1,4
1,1,0,1,6,2,0
2,1,1,1,6,2,1
0,1,1,1,1,0,0
5,2,1,1,2,1,0
1,1,2,1,2,2,3
1,3,2,1,11,1,2
1,4,1,0,11,3,1
1,10,0,2,15,2,1
2,3,2,1,3,1,0
2,0,2,1,1,0,10
1,1,1,2,1,6,8
1,3,0,2,7,3,2
2,2,0,0,30,3,2
0,2,0,1,2,1,1
2,1,0,1,3,3,1
1,1,2,2,11,1,1
1,3,1,1,4,1,2
2,1,1,2,12,6,0
5,2,1,0,2,2,1
1,3,2,0,11,0,1
4,0,0,0,4,1,1
4,1,3,3,1,2,2
2,1,2,3,0,4,1
0,2,1,1,7,1,0
1,5,0,0,18,3,2
5,0,1,2,4,1,1
3,1,2,4,1,1,0
1,1,1,2,4,3,2
4,1,2,2,8,3,0
2,1,0,1,1,7,1
1,1,1,0,1,1,1
0,0,0,5,6,1,1
1,1,1,1,3,1,1
2,2,0,1,2,1,0
2,3,1,1,7,2,0
1,2,1,1,2,1,1
1,1,0,0,4,1,2
1,2,1,1,3,8,3
1,1,1,1,1,4,3
1,2,1,1,8,2,1
7,2,1,2,2,0,0
1,3,0,0,69,9,1
1,3,2,1,5,2,3
1,2,1,0,8,1,1
2,3,1,0,4,1,2
2,1,1,1,12,1,1
2,1,1,0,1,6,0
2,8,0,2,0,2,2
1,4,2,1,0,2,8
1,0,0,1,1,1,1
2,2,2,3,7,3,2
1,1,0,3,2,1,0
0,1,2,1,3,4,0
3,2,2,1,2,4,0
1,1,1,1,2,6,1
1,1,1,1,0,1,2
3,1,2,1,2,2,1
3,2,1,1,1,0,0
3,2,1,2,6,5,2
5,1,2,0,1,0,1
2,1,1,0,10,4,0
0,3,0,1,28,0,0
4,1,1,1,2,2,1
7,1,5,4,2,2,1
1,1,2,1,2,1,0
0,1,1,0,4,8,2
0,1,0,1,15,3,2
1,1,0,0,4,1,1
3,1,1,1,1,4,2
4,2,4,0,3,3,2
1,0,2,2,2,3,1
0,2,1,1,7,3,1
2,0,0,1,5,1,0
1,1,1,4,2,3,4
1,14,0,2,1,0,7
1,5,0,1,1,2,3
5,4,1,4,1,4,0
0,5,0,2,1,0,1
1,3,2,0,1,5,0
2,1,2,2,1,4,1
1,0,2,2,5,6,2
0,0,0,1,2,3,0
0,1,1,0,4,2,2
0,1,1,4,1,2,0
10,0,1,2,1,9,2
3,0,0,0,4,14,1
1,0,2,0,2,1,0
0,2,0,1,4,1,1
1,1,0,2,3,1,0
0,2,0,1,1,2,2
3,0,1,1,5,0,2
1,1,1,2,2,5,0
2,3,0,0,16,0,1
2,8,2,0,4,6,2
3,0,1,0,2,2,1
3,8,0,0,1,6,1
2,7,3,0,1,3,2
0,2,2,2,1,1,0
2,9,1,2,1,2,1
2,19,1,0,2,2,0
2,2,1,1,1,14,0
3,36,2,2,0,7,1
0,4,2,4,5,2,1
0,1,1,0,0,2,1
0,4,0,1,1,4,2
2,9,2,1,0,3,0
2,15,0,1,2,3,1
1,2,0,1,0,4,0
1,2,0,0,2,4,0
1,1,1,1,1,1,2
3,1,0,1,1,1,0
3,0,1,1,2,5,5
3,1,1,1,7,2,3
2,2,1,1,1,1,0
0,0,0,0,2,1,1
1,1,1,1,0,0,1
2,1,2,4,8,5,0
1,1,1,7,3,2,2
1,0,2,7,1,2,2
1,3,0,2,1,0,1
0,2,1,2,0,0,3
3,1,2,2,1,4,0
4,1,0,1,5,1,2
1,1,0,1,1,1,1
1,3,1,2,1,17,0
2,0,1,2,1,6,0
0,0,0,2,0,19,1
1,2,0,1,0,2,1
1,2,1,0,2,2,2
2,1,0,1,2,2,1
2,18,1,1,2,1,2
0,3,1,1,1,3,1
0,0,2,1,0,2,0
0,3,2,2,2,10,1
1,20,3,2,2,1,2
0,1,0,1,5,4,0
1,1,0,1,2,2,2
1,1,0,1,0,1,3
0,4,1,1,2,5,0
2,15,4,1,1,10,1
0,15,1,1,0,1,1
1,0,0,0,0,1,1
5,0,0,1,0,4,1
2,0,2,1,0,3,5
1,2,3,2,6,1,1
1,3,1,0,7,1,2
0,1,0,1,2,1,3
0,0,1,2,0,1,2
0,4,0,0,1,15,3
2,0,1,6,0,5,1
2,2,2,1,2,1,2
2,1,0,1,1,2,1
0,1,0,0,1,3,4
1,1,1,1,2,4,0
0,1,2,1,1,4,5
1,0,1,2,4,5,3
2,2,2,6,2,2,2
2,1,0,2,0,1,0
2,3,2,2,0,0,1
6,1,0,2,1,3,2
0,6,2,1,1,8,1
1,3,1,0,0,29,1
2,1,2,2,2,2,6
0,0,0,1,3,3,4
0,7,1,1,1,3,2
1,1,4,6,2,2,2
2,6,1,0,3,0,1
1,5,2,1,1,4,1
4,2,1,1,0,6,3
2,10,0,1,1,1,5
2,3,2,1,2,9,4
1,2,3,1,1,1,1
1,1,1,0,2,2,2
2,2,1,0,0,1,0
2,0,0,1,1,2,2
0,1,1,1,0,2,3
0,2,1,2,0,1,1
1,2,1,0,0,5,2
2,0,1,1,1,1,1
2,0,0,2,0,0,0
5,2,1,0,1,7,0
3,3,1,2,5,1,0
1,0,0,2,2,6,2
3,0,0,0,6,3,10
0,1,1,2,3,1,2
3,2,1,1,0,8,3
5,2,1,6,1,4,2
2,1,2,14,1,1,2
0,2,1,3,0,1,1
2,1,2,1,1,12,0
7,1,1,2,0,12,3
2,2,0,2,1,4,5
1,1,1,2,3,1,2
0,8,1,0,2,2,2
2,3,0,0,1,1,1
1,2,1,0,2,5,1
4,1,0,1,2,3,1
1,3,1,0,1,1,1
5,1,1,0,0,3,0
1,0,0,2,1,4,0
1,5,1,0,0,1,1
1,0,2,2,1,3,1
3,8,2,2,4,2,1
1,6,1,1,1,3,0
2,1,4,0,0,2,1
1,2,2,0,1,25,1
1,1,0,2,2,5,0
0,0,6,1,1,1,7
2,1,1,1,1,0,2
3,1,2,1,1,4,1
2,2,2,0,3,2,1
1,1,0,0,1,1,0
2,4,1,1,1,8,1
1,4,0,3,2,6,1
0,1,2,3,2,3,1
1,1,0,0,1,8,2
2,2,2,2,1,2,1
2,1,2,1,1,2,2
5,1,1,0,3,0,8
1,1,2,0,1,8,2
1,1,0,0,0,2,1
0,1,0,0,0,6,0
2,2,0,1,2,1,1
2,0,1,2,0,1,2
2,2,1,2,1,2,0
1,1,0,1,1,2,0
1,2,0,2,1,2,0
3,1,1,1,0,0,1
1,2,1,2,0,1,1
3,1,2,1,2,2,1
2,5,0,1,1,6,2
4,3,1,1,0,7,1
3,2,1,1,0,4,1
5,6,1,1,2,1,2
5,11,2,1,1,1,0
0,2,0,1,2,10,1
0,0,0,0,0,23,1
1,4,1,1,2,29,0
1,1,0,1,1,5,2
1,1,1,1,0,11,1
1,3,1,1,2,3,1
0,1,1,0,2,3,2
2,2,2,0,0,20,1
4,1,2,0,1,5,3
5,1,1,2,1,2,1
4,1,0,1,9,11,4
3,2,1,0,1,9,0
2,2,2,2,2,8,1
2,2,0,2,1,4,0
2,1,1,1,1,2,1
2,0,2,3,3,10,2
0,0,0,2,1,1,0
1,0,2,3,1,11,1
1,0,0,2,2,6,1
6,1,1,2,2,18,1
8,2,0,2,1,3,2
3,3,2,1,0,0,1
4,0,4,1,0,1,1
2,1,1,1,1,22,0
1,1,1,1,2,7,1
2,12,1,2,4,3,1
1,3,8,2,2,30,2
0,1,2,0,1,18,2
1,0,0,0,0,4,2
3,1,2,2,0,1,1
5,5,0,3,1,12,0
2,6,0,2,2,3,0
1,5,2,0,1,12,1
1,2,2,0,1,9,1
1,5,1,2,1,6,0
2,3,1,1,1,11,1
1,1,0,2,3,13,0
0,17,1,1,2,26,2
2,7,2,0,1,1,2
2,3,1,1,1,19,1
5,0,1,0,0,29,2
2,0,1,2,0,13,3
5,4,4,1,1,14,1
2,1,1,1,1,31,1
1,0,2,1,0,7,0
1,1,1,1,1,5,1
8,1,1,0,0,4,2
1,1,1,4,1,14,1
2,1,4,1,0,25,1
2,1,2,2,3,8,1
3,1,1,1,2,26,2
3,1,0,1,2,41,1
2,3,1,2,3,13,1
0,0,2,0,1,15,1
1,0,1,1,0,2,1
1,2,1,1,1,26,0
3,0,1,0,2,22,1
2,1,2,0,0,2,0
5,1,1,1,1,2,0
2,1,1,0,1,90,1
2,3,0,0,1,10,2
1,4,2,0,0,13,0
1,1,0,2,0,34,0
2,1,2,4,1,5,0
1,1,0,1,3,100,2
1,2,0,3,1,41,0
0,7,0,0,0,81,1
1,7,0,0,0,10,1
3,4,2,1,1,5,2
6,4,2,1,3,63,2
2,1,2,2,0,37,1
3,4,1,1,0,7,2
2,1,2,1,0,46,0
3,3,1,1,1,80,2
2,13,0,0,1,8,3
0,3,1,1,1,101,1
1,0,2,1,0,16,0
1,1,1,2,0,87,3
1,2,0,2,0,6,2
0,1,2,2,4,94,1
4,0,0,0,1,72,0
1,0,1,1,1,173,0
0,0,0,1,1,78,1
6,3,0,2,1,27,2
2,1,2,2,1,142,1
0,1,6,0,0,55,2
2,2,2,4,0,147,1
1,1,1,0,1,25,2
2,1,0,0,0,43,1
2,3,1,2,4,54,0
3,0,1,2,2,6,1
2,4,0,1,2,72,1
1,1,1,0,0,6,0
3,4,1,2,1,105,1
4,4,1,1,2,64,0
4,18,0,2,4,130,1
1,2,2,2,2,35,1
2,0,2,1,0,5,2
1,2,1,1,2,21,1
1,17,2,1,3,141,1
2,4,1,4,4,21,1
1,0,5,1,1,88,1
0,6,1,1,1,32,0
0,15,0,2,0,10,1
2,1,0,3,1,19,0
5,1,2,11,0,22,4
2,0,7,1,2,116,2
1,0,4,0,0,18,0
2,1,1,2,0,52,0
1,5,0,2,2,68,1
1,1,1,16,1,21,1
2,1,1,19,1,128,0
1,1,8,3,1,5,1
2,0,1,8,2,5,1
2,2,11,10,2,33,0
3,2,0,1,0,22,3
0,1,1,4,0,62,6
1,3,2,13,5,75,1
0,0,2,29,2,19,1
2,2,4,1,0,4,1
3,0,3,4,2,49,1
2,3,2,127,1,38,1
1,3,1,17,2,44,1
0,4,0,61,2,15,0
2,2,0,5,2,63,1
2,0,1,13,1,4,1
0,0,11,111,1,62,2
2,2,1,131,2,17,1
0,3,3,13,2,71,1
1,2,2,2,1,34,2
1,2,0,6,1,2,1
1,3,2,39,1,40,1
3,1,5,10,1,18,3
1,1,1,31,1,61,2
0,0,0,28,1,6,2
0,7,1,3,2,89,0
2,12,0,57,0,8,1
1,2,1,33,0,56,1
1,3,1,8,1,10,0
1,1,3,1,0,33,1
1,1,1,50,0,80,0
1,3,12,6,1,4,1
3,6,2,30,1,69,0
1,1,5,2,2,11,2
0,1,1,11,1,38,1
0,0,0,34,1,85,0
1,1,5,2,0,10,5
1,1,3,49,2,8,2
3,2,1,38,2,48,4
4,0,0,3,0,4,4
1,0,1,34,0,28,1
2,1,1,3,1,5,2
2,2,7,48,0,26,0
2,1,3,8,2,42,0
2,1,0,2,1,18,1
2,0,0,94,1,21,0
1,1,2,9,1,3,1
0,7,2,5,0,82,1
1,1,1,54,1,71,2
6,2,6,45,1,5,3
3,1,5,5,0,13,1
1,1,5,1,0,10,1
1,2,0,77,0,61,1
0,8,1,62,1,4,2
2,1,1,12,1,4,2
1,0,4,1,1,50,1
1,1,23,2,1,95,0
0,1,7,1,1,7,1
6,2,3,1,1,76,0
3,1,5,22,1,68,2
1,0,37,18,2,6,2
2,2,9,0,1,49,1
1,11,15,39,1,3,2
3,3,1,25,1,8,0
6,1,4,17,0,10,1
3,0,23,0,0,42,2
2,1,3,95,1,32,2
2,2,1,5,1,25,0
2,12,17,2,1,31,1
1,10,10,103,1,23,1
2,2,2,10,1,26,1
0,3,1,14,1,12,0
0,8,50,10,0,26,1
0,18,8,20,0,112,1
1,9,9,22,1,10,2
4,13,11,3,1,18,1
0,1,11,16,1,82,2
1,5,2,48,0,12,1
1,0,35,9,1,5,1
0,2,8,3,0,15,1
1,0,3,14,1,13,0
1,2,31,62,2,5,2
0,1,10,4,2,21,1
2,3,3,45,0,19,0
0,2,9,82,1,125,1
0,7,2,21,1,7,0
2,2,0,15,3,21,6
1,1,0,35,0,11,2
5,0,53,95,2,26,2
2,2,36,46,2,20,1
1,5,19,3,2,2,4
0,5,4,12,0,4,3
0,2,16,19,1,60,0
1,1,3,23,1,20,1
1,4,1,43,3,22,1
1,2,104,98,0,11,0
0,3,50,32,1,4,1
0,2,10,8,1,24,1
2,6,7,16,1,19,1
2,1,2,61,1,11,1
1,2,6,54,1,44,1
1,13,7,42,1,5,1
4,3,4,30,0,41,0
1,6,22,34,2,4,1
0,7,12,69,1,1,0
1,2,5,8,1,53,2
0,23,8,89,1,9,0
0,15,39,5,1,47,2
0,12,5,83,1,42,0
2,2,5,22,1,6,1
0,0,8,59,0,29,1
1,11,29,8,1,12,1
1,2,6,46,1,8,2
1,10,2,42,1,8,2
1,2,0,41,1,16,0
2,50,9,17,0,8,2
0,22,25,5,1,50,1
4,1,6,31,2,14,0
2,2,1,41,0,59,1
3,20,20,8,1,10,1
2,5,124,55,0,34,2
0,3,12,31,0,8,1
1,12,2,52,1,4,1
2,8,2,8,0,18,1
2,2,6,43,1,23,1
1,6,51,5,0,26,1
1,43,11,193,1,3,2
1,53,23,20,2,34,2
2,38,14,87,0,3,2
2,3,11,31,0,1,1
0,19,2,29,2,7,0
2,16,15,42,1,9,1
0,11,3,14,2,1,2
8,3,91,28,2,4,3
4,52,8,34,2,45,0
1,3,2,61,3,8,2
2,1,67,113,0,6,1
0,43,3,3,0,11,2
3,4,31,24,1,5,0
2,26,25,17,1,4,0
1,30,15,6,1,5,1
1,17,33,21,1,16,0
1,112,8,14,0,37,1
1,2,12,25,0,9,2
2,0,16,9,1,40,0
1,23,13,12,0,4,2
0,41,47,110,2,12,2
1,2,2,48,2,10,1
0,6,2,30,1,3,2
0,19,12,7,0,2,0
1,2,51,37,2,32,1
2,17,19,46,3,23,2
2,6,2,12,1,9,1
1,6,22,10,1,26,1
1,30,18,17,1,16,1
2,9,17,44,1,41,0
1,12,47,2,3,38,1
1,2,5,147,1,9,1
0,3,38,42,1,5,1
0,102,48,28,1,26,1
2,40,27,4,1,7,1
2,6,56,1,2,17,1
2,8,9,0,0,24,3
0,5,31,36,0,10,0
0,3,4,60,0,6,1
7,18,53,34,0,5,1
4,27,12,2,0,12,1
2,4,30,1,1,7,4
2,1,32,95,1,8,0
1,1,15,25,1,47,2
0,52,5,4,1,2,1
14,8,78,1,0,35,1
94,1,18,4,2,15,5
24,47,3,14,1,3,2
38,10,3,8,1,11,1
2,11,53,32,1,25,2
0,21,12,34,0,4,0
152,13,13,22,1,16,0
46,29,26,20,0,5,1
3,3,13,50,1,4,1
2,49,24,19,0,6,2
23,21,6,6,2,25,1
47,45,28,0,1,40,3
27,3,14,63,0,10,2
11,1,10,62,1,33,0
0,59,27,118,0,9,1
45,42,40,4,1,12,1
5,5,21,1,2,4,1
1,2,7,0,1,9,2
13,43,2,80,1,11,1
31,72,25,42,1,15,1
14,5,4,5,2,3,0
19,0,4,2,1,2,5
1,34,5,0,0,28,4
7,15,27,32,1,12,3
36,22,7,40,0,1,0
19,86,7,144,0,41,1
46,6,8,5,1,12,1
17,8,22,57,1,8,2
3,27,62,7,1,7,0
3,50,5,48,2,7,0
4,63,43,7,1,50,1
5,4,3,20,1,3,1
2,6,46,2,1,71,0
9,18,10,44,2,43,0
7,7,16,22,2,2,2
11,7,15,11,1,17,0
7,0,4,28,2,47,2
11,10,4,16,2,19,0
49,16,105,6,1,1,1
6,52,5,44,2,12,1
35,4,11,10,1,31,2
8,4,6,25,0,54,2
53,48,29,33,1,48,1
5,49,51,73,1,14,0
18,6,5,7,1,4,0
6,1,21,32,1,23,1
4,80,13,18,2,8,2
59,26,20,3,0,4,1
17,29,3,14,2,23,1
13,13,2,2,1,40,2
21,1,25,1,3,12,2
2,105,14,3,1,7,0
30,82,35,45,2,30,0
41,33,16,8,2,2,1
14,8,5,12,2,43,2
18,27,4,1,5,5,2
20,21,76,210,3,23,0
3,45,8,16,1,6,0
39,1,21,14,1,7,4
8,38,37,25,2,25,1
2,27,10,15,1,6,2
86,3,10,4,0,0,1
12,26,27,38,1,31,1
2,6,51,6,1,9,2
32,35,10,9,1,36,1
3,29,0,70,1,31,0
2,10,34,6,2,6,0
36,22,25,25,0,22,1
57,30,7,9,0,43,1
66,33,7,31,0,4,0
80,2,1,4,0,16,0
5,16,22,12,4,56,1
66,10,17,10,1,3,1
37,17,3,58,1,37,1
14,30,29,7,1,4,0
1,51,48,63,1,4,0
72,14,4,45,3,20,2
12,20,19,14,1,53,0
21,1,16,28,1,5,0
16,9,4,4,2,31,1
17,86,12,26,1,30,1
8,21,3,13,3,20,0
4,21,12,15,2,10,2
9,1,11,140,1,18,1
5,3,9,54,1,11,0
75,9,15,17,2,6,1
12,22,2,6,0,16,0
4,40,13,3,2,15,0
1,4,39,13,2,6,1
8,39,4,16,0,15,0
15,45,6,15,0,10,1
31,22,54,28,1,38,1
24,44,21,12,2,12,1
29,14,6,31,0,22,0
3,6,4,104,1,5,1
3,23,37,5,1,2,0
12,10,9,5,2,3,2
8,43,5,7,2,28,2
17,16,8,11,2,16,2
38,4,7,4,0,13,1
2,14,13,24,0,33,0
22,40,8,5,0,24,2
34,107,2,94,0,7,2
11,14,9,9,1,7,3
1,99,26,21,1,10,1
6,57,4,2,1,38,2
40,10,28,36,1,8,2
6,3,4,4,1,59,1
1,13,3,6,1,34,2
23,34,53,1,2,16,0
9,2,12,95,0,27,1
6,56,3,12,1,8,1
18,36,3,13,2,2,1
36,55,16,7,1,8,0
12,7,24,6,0,12,1
5,5,3,67,1,4,1
88,22,6,17,1,32,0
9,208,9,6,0,5,2
24,17,38,13,1,9,3
7,3,18,1,2,12,3
17,80,2,23,1,11,2
16,52,23,39,2,34,2
12,7,22,3,1,7,0
45,27,6,0,1,3,1
4,7,9,105,1,42,1
2,116,11,22,0,22,1
10,21,13,7,2,6,0
24,4,8,2,1,28,0
3,30,8,30,1,57,1
1,123,8,65,0,25,3
1,66,8,10,1,35,1
13,34,10,5,2,4,1
3,29,5,7,1,2,1
24,2,18,10,0,28,2
49,0,17,1,2,10,1
4,22,7,174,4,2,1
7,31,8,14,1,66,0
5,43,9,16,1,3,0
13,11,29,22,1,17,1
4,2,3,2,1,8,1
5,6,3,13,0,47,2
4,199,14,79,0,12,0
20,11,6,23,2,38,1
17,192,32,23,0,7,3
15,10,64,4,2,27,1
14,15,6,16,2,9,0
1,54,11,141,5,4,1
1,98,19,50,1,8,0
49,6,14,100,1,51,1
12,56,2,5,0,4,1
7,3,31,4,1,70,0
3,64,37,1,1,13,1
33,13,39,17,2,23,0
7,3,36,3,2,34,0
2,2,7,2,0,9,0
37,15,11,81,0,4,2
3,10,25,13,4,27,1
22,53,4,5,0,23,0
6,13,21,2,1,18,1
1,93,10,2,1,59,2
68,10,22,0,0,13,2
14,85,9,12,2,6,1
2,83,23,1,4,3,1
6,5,1,59,2,50,1
27,19,8,5,1,14,0
5,17,44,2,1,13,1
0,6,5,75,1,45,0
7,15,11,3,0,10,2
30,84,16,37,1,32,1
4,15,1,82,1,5,2
2,2,9,12,4,46,1
85,43,34,10,1,11,0
24,28,8,18,2,2,0
2,13,19,3,1,2,2
10,73,2,29,1,13,0
21,14,13,2,0,13,0
5,11,24,35,1,7,2
21,71,33,31,0,17,0
2,40,5,16,1,6,0
2,11,6,2,1,17,2
8,1,4,44,2,88,1
18,74,5,41,1,30,2
2,46,29,8,1,33,2
14,11,24,6,2,2,1
7,39,1,21,2,5,1
14,8,3,30,0,19,0
14,78,13,3,1,3,1
14,7,22,8,2,10,1
4,38,12,44,1,11,1
1,22,6,39,2,2,0
15,23,42,13,0,1,1
4,9,8,12,1,29,1
1,42,1,52,1,12,1
0,27,57,3,1,3,2
10,3,3,0,0,16,2
56,25,5,3,0,6,0
12,24,21,21,0,7,2
1,10,8,2,12,2,0
3,16,22,66,3,49,2
2,96,29,18,2,4,0
6,6,14,33,1,51,2
50,16,43,4,2,3,0
18,0,29,17,2,1,0
11,196,16,13,21,23,1
5,20,4,25,2,9,0
1,2,5,28,58,24,1
7,103,17,17,16,23,1
41,14,2,20,1,8,1
13,16,22,24,16,4,1
2,5,10,1,44,2,1
11,30,7,57,22,33,2
20,10,5,18,7,9,1
8,1,6,13,4,28,1
1,1,15,38,27,7,1
27,15,3,60,8,3,1
8,13,31,8,1,20,2
2,1,9,3,0,3,2
3,59,2,9,2,28,1
64,31,38,19,83,5,1
12,9,4,5,32,18,1
4,58,30,117,49,34,1
1,8,20,4,9,25,1
9,147,6,3,1,9,1
15,31,10,1,35,3,1
32,68,4,7,46,30,1
2,18,4,17,6,15,1
2,67,8,77,2,3,0
1,14,4,5,41,12,1
17,49,3,36,34,13,0
13,59,1,5,8,7,4
10,23,15,5,2,3,2
54,3,6,1,15,20,1
12,24,4,31,11,22,0
35,1,21,1,11,28,1
4,10,17,27,3,3,1
0,2,8,31,44,22,1
1,12,3,3,35,3,0
1,40,3,34,63,3,0
4,113,0,20,9,3,1
45,28,1,3,1,3,3
6,91,2,31,17,46,1
1,98,2,3,2,8,0
34,54,1,1,15,7,1
18,10,7,24,3,14,1
12,15,2,6,34,45,1
4,0,33,13,30,22,0
9,3,6,34,9,6,0
3,0,28,29,10,3,0
3,113,29,15,10,10,0
0,4,22,13,5,4,0
1,112,4,35,26,7,1
6,5,4,1,9,6,2
13,7,2,65,24,49,0
1,6,0,11,6,4,0
90,15,15,1,6,4,1
26,2,1,106,19,6,1
8,66,8,11,16,20,1
3,3,8,64,10,4,0
10,30,6,42,25,19,2
21,18,2,9,26,24,1
1,1,3,8,15,76,2
1,6,2,1,35,7,1
28,23,3,19,8,11,0
13,31,13,82,13,9,2
0,30,5,9,8,12,0
26,110,10,41,13,49,1
5,16,3,48,16,10,0
4,3,12,39,19,9,2
4,0,13,15,104,1,1
1,1,3,7,5,4,1
0,61,11,4,8,27,0
2,4,23,13,3,2,3
18,2,1,8,25,21,0
8,33,2,70,48,27,2
2,15,16,11,15,2,2
1,33,10,53,2,2,0
22,18,30,4,3,17,0
8,8,2,5,0,12,1
12,1,18,4,120,21,1
15,81,1,7,50,19,0
1,24,9,31,4,51,0
42,3,2,3,25,18,1
7,14,10,5,106,5,0
2,134,11,9,11,6,1
2,4,37,45,3,7,1
0,12,4,7,27,3,1
43,22,4,19,171,35,6
3,30,6,13,150,6,2
3,36,1,1,23,29,2
48,3,9,57,6,2,0
15,1,11,5,13,4,1
2,29,5,2,10,48,0
2,58,16,58,35,9,0
1,68,2,67,22,3,1
27,5,3,16,6,8,2
6,31,3,18,84,2,4
2,9,32,1,9,29,0
37,0,5,13,8,31,1
6,78,2,9,6,15,2
20,12,17,1,38,24,2
5,6,3,1,25,3,0
1,51,6,1,62,4,1
2,5,5,2,16,4,1
2,6,7,26,2,28,0
3,9,24,27,1,18,0
5,18,3,4,5,11,3
5,4,9,33,7,2,1
27,89,5,6,62,17,2
22,17,1,1,16,12,1
1,11,4,18,9,3,1
2,101,17,7,38,9,2
2,10,4,45,9,28,1
3,2,14,4,9,4,0
26,2,17,33,11,7,0
1,16,19,5,11,4,0
20,3,9,31,39,4,0
14,4,32,31,10,6,0
34,99,5,2,3,38,1
6,5,7,5,76,16,1
21,40,3,4,29,9,0
4,17,28,69,6,1,1
2,23,8,23,45,30,1
8,2,3,16,13,64,2
2,17,2,9,21,5,0
16,4,7,21,4,2,1
10,53,9,18,35,14,0
6,30,2,10,11,11,8
24,3,13,5,4,7,2
10,2,22,4,47,21,0
1,120,1,28,14,14,0
7,6,12,16,27,7,1
22,36,2,15,57,8,1
8,4,35,2,19,8,1
1,2,7,14,31,9,0
1,36,2,18,6,24,2
16,2,2,8,41,17,0
12,5,17,18,14,16,0
0,20,14,8,35,2,0
36,67,7,4,16,27,1
2,18,4,2,8,4,1
1,20,4,2,26,14,0
6,8,39,6,5,8,1
29,6,5,24,19,26,6
3,2,4,33,5,8,1
19,7,45,4,3,25,0
3,37,17,15,27,4,1
2,7,21,4,3,2,4
6,7,26,6,22,4,6
8,4,3,9,8,19,1
5,52,1,6,15,2,0
13,11,13,8,2,1,1
3,1,4,8,57,33,1
2,77,2,100,8,8,2
7,7,13,16,50,3,1
4,5,3,15,19,21,1
1,6,10,32,12,3,1
15,79,1,2,22,7,1
10,5,8,25,25,2,0
0,6,9,8,13,4,1
9,22,6,1,2,3,2
27,3,2,38,1,14,1
5,10,29,55,20,6,0
14,18,8,4,4,2,0
2,5,10,20,41,27,1
8,4,1,9,27,20,0
3,2,8,55,14,5,0
34,3,19,11,63,40,1
5,21,4,23,3,4,1
4,49,2,41,16,3,0
1,7,23,10,20,8,3
5,2,2,41,5,9,1
25,4,48,4,25,5,1
27,2,5,19,27,12,2
7,27,12,14,8,7,0
1,59,2,18,3,3,1
4,28,23,11,13,2,2
22,6,4,6,9,21,0
1,1,16,2,0,15,1
4,7,1,47,45,3,1
16,52,5,71,7,5,1
8,6,14,15,35,3,0
10,2,6,13,19,2,1
1,1,15,5,2,5,1
9,25,23,1,29,2,1
8,4,20,11,56,14,2
2,19,9,1,14,8,0
16,5,11,2,7,2,2
6,1,2,7,8,1,0
9,32,6,46,1,0,1
21,35,2,24,13,2,1
1,13,16,1,12,2,0
9,9,12,32,6,1,1
13,5,8,4,21,2,0
5,12,3,58,2,9,1
24,5,25,17,16,5,1
2,9,12,27,13,0,2
1,38,2,5,14,0,2
54,9,26,14,28,0,0
8,3,13,60,23,1,1
2,28,10,7,14,2,3
4,3,17,12,10,1,0
14,3,28,49,3,32,3
20,9,19,61,17,17,4
2,2,7,17,24,71,1
21,16,39,5,4,112,0
12,4,6,18,15,12,1
2,58,29,3,8,1,1
1,16,15,71,13,2,1
4,3,2,5,3,44,1
13,0,52,25,49,3,1
5,53,6,24,6,1,0
1,6,1,18,26,1,2
7,10,42,11,15,0,2
9,6,3,6,55,2,0
4,1,2,1,9,6,0
13,11,2,29,4,3,1
6,5,11,71,18,1,1
1,14,15,14,2,2,1
14,7,4,19,5,4,1
3,31,10,14,45,2,0
22,2,6,2,4,3,1
4,2,12,7,8,2,1
4,4,27,25,21,2,2
15,2,6,63,25,91,1
7,72,8,12,4,64,1
2,6,5,7,5,5,3
7,28,13,2,24,5,0
21,11,2,46,14,2,1
5,16,9,51,26,0,2
6,25,5,3,18,13,1
6,9,17,29,17,1,0
1,1,5,13,3,67,0
10,12,6,0,40,18,1
50,12,19,18,37,50,0
2,21,13,19,28,10,1
38,15,10,2,5,58,1
7,3,3,85,1,64,1
2,5,51,7,25,55,1
11,14,3,34,5,21,0
10,20,28,5,15,11,1
1,22,3,0,25,1,1
1,12,12,96,5,49,1
32,11,2,17,11,30,0
7,7,21,2,3,29,1
12,1,9,1,1,5,1
4,11,9,48,5,29,2
21,12,12,18,78,4,1
6,13,3,44,6,5,0
5,12,16,20,42,18,1
21,75,3,2,7,1,1
3,26,9,27,57,1,1
3,14,15,13,5,1,2
6,12,2,35,18,1,1
29,3,11,19,0,24,1
3,8,6,40,4,22,2
2,14,6,22,1,19,0
6,10,6,2,63,4,0
9,4,20,32,27,3,1
2,24,18,36,11,1,0
4,5,3,45,4,1,0
31,0,3,4,4,14,1
4,21,18,1,1,32,2
57,5,2,25,46,6,1
5,5,8,7,6,7,1
11,2,14,12,35,2,0
1,6,5,2,7,2,0
5,14,8,23,7,12,0
1,15,3,34,30,5,1
43,6,14,43,2,2,0
4,7,5,15,9,4,1
5,3,13,0,3,0,0
4,42,6,27,10,3,0
2,4,13,12,1,4,0
10,2,3,66,23,2,1
7,44,75,40,9,0,0
8,68,9,5,11,1,1
16,28,10,1,4,14,1
8,3,5,158,9,13,1
1,116,15,36,47,27,2
4,12,9,16,7,3,1
1,6,3,26,4,7,2
30,9,14,4,8,11,3
3,3,1,15,35,2,2
4,1,14,3,13,1,1
3,15,7,20,1,1,0
1,7,7,4,25,0,0
18,7,5,59,7,2,1
9,9,3,5,12,2,3
3,4,21,88,31,1,0
9,1,9,11,11,0,1
1,35,5,3,59,2,0
18,3,10,3,6,5,2
17,3,37,3,40,2,0
1,5,2,55,6,2,1
12,1,12,10,1,4,0
4,19,1,59,10,7,0
2,14,12,19,6,3,1
3,4,4,31,57,0,1
37,3,15,16,14,1,2
11,38,3,3,11,4,1
2,4,5,0,3,2,2
14,20,9,94,10,2,2
10,6,4,7,5,4,1
18,2,19,5,16,2,0
31,46,9,55,12,1,1
3,3,28,7,2,1,1
1,17,9,3,45,1,1
1,20,6,8,9,4,2
0,9,18,32,28,4,2
17,4,43,6,10,1,0
24,14,2,147,9,0,1
8,5,3,33,8,6,1
12,4,9,33,44,2,2
5,4,3,89,6,0,0
5,4,4,20,2,1,2
5,6,19,5,2,1,0
1,3,22,6,9,1,1
3,0,9,95,31,3,2
33,0,3,10,3,3,1
14,20,12,22,11,0,2
0,6,8,41,4,2,1
10,11,1,8,6,0,1
10,1,2,13,17,1,2
14,0,3,1,27,0,1
2,52,4,38,10,3,2
3,7,7,133,8,2,2
9,30,7,26,13,1,0
2,3,2,7,1,1,0
0,1,1,19,3,1,1
3,10,25,24,40,7,2
34,6,13,17,7,1,2
3,8,3,1,4,1,3
11,2,6,47,1,2,1
21,1,2,26,94,2,0
18,76,8,2,19,4,6
3,20,2,32,33,0,5
4,3,15,29,18,2,2
1,2,4,7,3,2,1
5,26,8,10,48,2,3
1,14,2,13,10,2,1
1,12,10,11,9,3,2
4,130,3,55,4,1,1
26,4,13,17,6,1,2
4,13,16,3,10,2,1
14,4,40,85,36,1,2
3,1,3,8,2,2,0
10,3,2,2,28,4,1
3,12,3,0,18,7,0
6,5,19,16,5,1,2
3,2,9,16,1,2,0
1,1,2,3,3,1,2
2,10,18,6,2,1,1
10,7,2,4,30,1,1
19,21,2,38,7,2,1
2,1,2,10,11,2,1
1,17,4,2,24,3,1
9,22,1,13,4,1,3
14,1,4,26,1,3,2
1,14,18,32,20,3,1
17,5,4,3,20,1,1
11,8,1,54,25,1,1
4,29,1,11,30,2,2
2,3,1,3,29,3,1
0,6,2,2,2,1,1
59,4,0,11,6,0,2
9,24,4,4,37,3,1
11,4,2,3,6,2,1
1,4,1,1,17,0,1
2,2,5,20,17,0,0
1,1,7,4,41,2,0
4,61,6,1,4,1,1
15,11,3,5,13,0,2
6,58,5,9,22,1,4
11,13,3,7,6,8,2
5,2,1,19,1,3,0
2,14,0,14,2,9,3
1,12,1,2,1,5,2
9,9,37,7,10,1,0
1,2,19,16,5,0,0
0,1,5,1,1,1,2
0,12,2,3,16,0,2
1,13,0,3,4,1,5
40,7,14,5,35,2,2
6,6,17,25,31,1,0
3,16,3,13,5,0,1
18,13,1,1,1,0,1
4,3,2,3,7,3,1
8,15,4,28,12,2,0
5,20,1,12,5,1,1
8,4,1,4,21,3,1
4,24,11,28,5,0,0
10,21,8,2,2,4,0
13,0,2,1,27,2,0
14,4,8,1,10,3,1
10,31,8,1,24,0,1
1,4,5,3,9,0,0
8,5,3,1,33,2,2
20,12,2,11,5,1,2
6,2,0,2,17,5,2
6,26,1,3,11,1,5
20,25,12,4,22,2,0
12,3,6,1,9,1,0
1,28,2,1,12,0,0
4,36,16,0,15,1,0
4,2,2,1,7,1,1
6,15,12,3,0,2,2
0,3,57,0,8,2,1
13,9,8,1,46,2,0
2,5,10,3,4,1,1
11,2,0,1,7,4,2
5,1,1,2,20,0,2
23,6,0,3,8,1,1
6,4,1,0,45,1,1
1,0,34,2,4,2,2
0,15,9,0,1,1,2
13,2,2,1,21,9,2
1,5,5,4,23,1,4
5,1,2,3,4,3,1
2,10,2,1,14,1,0
20,3,1,1,4,2,0
27,14,7,3,15,0,3
8,2,4,1,7,1,2
6,26,1,1,5,0,1
2,8,13,1,4,1,0
9,2,4,2,54,0,1
9,1,3,3,36,2,1
7,3,1,1,3,3,2
29,0,16,0,2,1,1
9,13,46,2,9,2,0
15,4,4,2,11,2,1
3,13,0,3,22,2,1
0,3,0,1,4,1,2
2,14,0,2,43,1,1
1,5,38,2,9,1,1
4,5,91,2,2,0,1
2,8,35,3,44,1,0
0,7,2,1,13,5,1
0,14,2,0,3,1,0
1,6,2,1,2,1,2
2,0,0,2,2,1,2
1,12,2,1,15,2,2
0,4,48,1,6,1,0
0,2,56,1,2,2,1
2,8,39,2,10,1,1
1,4,18,2,9,0,1
0,2,2,2,3,0,2
0,1,2,2,2,2,2
2,1,24,1,41,1,1
1,0,5,1,6,1,0
0,2,2,0,11,1,2
1,2,0,1,2,1,1
2,5,13,1,5,6,2
1,3,29,1,2,0,0
0,1,20,0,12,0,0
0,33,32,1,19,0,2
1,7,5,0,36,2,1
2,13,1,2,7,0,2
1,1,2,3,1,8,2
2,2,45,1,22,0,2
2,5,64,2,22,0,2
2,11,5,0,5,2,1
0,3,2,0,1,2,0
1,7,0,1,32,2,0
0,18,1,1,8,2,1
2,8,1,1,5,2,1
2,4,2,1,9,0,2
2,8,10,1,21,0,0
1,6,90,0,3,2,1
0,7,17,0,37,2,1
2,1,14,0,24,1,1
1,8,27,2,10,0,0
1,20,3,1,20,0,0
3,6,1,0,14,2,0
1,25,1,0,18,1,2
1,4,1,0,3,1,1
2,4,0,4,4,2,1
2,5,1,2,10,1,2
0,5,0,2,5,4,0
2,3,1,1,22,3,1
0,21,54,2,10,0,2
0,20,25,0,9,0,1
0,1,6,2,44,1,0
1,13,6,3,6,1,1
1,6,17,2,9,0,1
1,6,5,0,21,1,1
1,6,1,0,8,1,0
4,1,1,2,2,0,1
1,26,0,1,28,0,1
0,5,2,2,11,1,2
0,2,10,1,5,1,0
1,18,31,1,43,2,2
1,12,3,0,10,0,1
2,2,15,1,12,1,0
0,1,1,2,15,1,0
1,25,0,2,1,2,1
1,2,1,1,3,1,0
0,3,0,1,11,2,0
1,0,1,2,12,2,0
0,1,1,0,7,1,0
2,12,4,1,4,2,2
2,4,2,4,17,0,0
1,4,2,2,1,1,0
1,31,2,0,7,1,3
1,3,1,0,34,2,2
2,1,1,1,8,2,2
1,24,9,2,2,0,1
1,14,6,0,23,1,1
1,12,1,1,2,2,1
0,3,1,0,10,1,1
1,4,2,1,3,3,0
1,2,0,1,35,1,1
1,4,34,1,37,2,1
1,22,17,1,5,2,1
16,9,1,2,3,2,0
1,3,1,3,8,1,0
8,1,10,3,15,1,1
2,15,2,1,14,0,2
0,5,4,2,2,1,2
0,8,3,2,52,1,0
2,4,1,1,41,1,0
0,3,0,2,10,3,1
1,5,5,3,31,1,2
0,2,5,0,53,1,2
1,2,4,0,24,1,1
3,3,13,2,5,3,0
3,12,1,2,14,1,0
15,9,9,1,40,0,1
5,2,13,0,7,1,0
2,0,1,2,38,0,2
2,8,0,1,27,1,1
2,1,5,1,4,3,1
1,7,17,2,66,1,2
1,3,4,3,9,0,1
1,1,27,1,6,1,0
17,1,2,2,20,1,0
3,2,2,1,24,0,2
0,5,3,3,14,1,0
1,4,2,1,0,2,0
1,5,1,2,14,1,0
1,7,2,0,10,0,2
3,2,1,1,8,1,1
1,2,1,2,25,0,1
2,1,43,0,23,1,1
1,3,14,2,24,2,1
1,2,1,3,4,1,0
1,1,0,2,60,0,0
1,1,1,0,7,0,0
15,1,34,2,10,1,0
3,5,17,1,14,2,0
1,3,1,2,7,1,0
0,1,2,1,11,1,1
2,4,23,2,18,0,1
1,1,2,1,8,0,1
2,2,0,5,13,3,0
0,1,9,2,0,1,0
1,3,25,1,3,2,0
6,1,2,1,13,1,0
5,0,0,3,26,1,1
2,1,1,1,7,3,1
2,1,0,0,12,1,0
1,2,1,1,7,2,0
1,1,0,1,10,2,1
5,1,4,1,18,1,1
1,0,0,1,7,2,0
1,1,12,2,2,0,0
1,0,9,1,12,0,2
1,0,2,0,75,0,3
5,1,1,0,7,2,1
1,2,1,2,5,1,1
0,4,4,1,28,4,2
1,0,2,2,6,3,1
0,2,5,0,1,2,1
5,2,1,1,10,2,1
3,1,1,0,15,1,2
3,2,2,2,2,1,0
2,2,10,1,28,0,1
2,3,8,6,68,2,3
1,0,3,2,18,0,1
1,3,2,1,5,1,1
2,7,1,3,7,0,1
1,3,2,1,6,1,3
2,1,1,0,3,1,2
3,1,9,2,6,1,0
1,1,10,0,10,0,1
1,2,2,2,17,1,2
0,1,0,2,7,3,2
1,1,0,2,3,1,0
0,2,1,0,31,0,1
2,2,1,1,4,0,0
1,2,2,1,19,1,1
0,1,1,1,6,1,3
0,1,0,1,10,1,1
4,1,0,1,2,2,1
2,3,2,1,36,1,2
2,0,6,0,33,1,1
2,0,3,0,15,1,0
1,2,7,1,2,1,2
2,2,2,0,33,2,2
1,0,3,1,13,1,0
2,2,1,1,7,0,0
2,1,9,2,3,0,0
1,0,13,5,12,2,0
2,0,2,2,12,1,2
1,0,0,2,21,0,7
4,6,13,0,11,2,2
8,3,7,1,12,0,1
2,19,4,1,13,2,0
1,4,1,2,4,7,2
0,9,2,2,1,3,2
0,1,3,2,3,0,0
2,2,3,0,8,0,1
0,3,4,1,2,0,0
2,2,2,1,27,1,1
1,0,2,2,32,2,1
2,0,2,0,36,1,1
2,0,2,0,16,1,2
0,0,1,1,1,0,1
2,0,1,0,4,0,2
5,1,22,0,8,1,1
1,0,9,1,13,5,0
3,2,2,1,5,8,0
0,0,8,2,101,1,1
1,2,4,1,6,1,1
0,3,1,0,16,0,2
0,1,2,1,23,2,2
4,1,2,0,45,0,2
1,1,2,2,100,1,1
1,1,22,0,17,1,1
1,2,2,1,17,0,0
4,1,0,1,13,0,1
3,0,1,1,24,4,0
1,1,1,2,51,2,0
1,1,6,6,78,1,2
1,7,1,3,16,4,2
0,8,3,1,51,1,4
0,2,14,1,12,4,0
0,2,13,0,4,0,0
1,1,7,0,38,0,1
1,2,1,5,20,0,0
1,1,1,2,11,1,0
3,1,1,1,9,1,0
7,3,2,0,10,1,1
3,18,6,2,30,0,1
2,10,2,1,56,1,1
2,2,1,2,34,2,2
1,4,11,0,19,1,4
2,3,10,0,19,1,2
1,1,3,1,3,1,1
2,1,5,1,7,1,1
2,2,3,1,2,2,0
0,2,2,2,13,0,3
1,1,1,1,8,1,4
12,2,2,1,11,4,1
10,1,0,0,17,0,1
2,1,1,1,7,1,1
0,2,5,2,6,9,0
3,1,21,1,22,2,0
4,1,2,1,4,2,0
1,0,1,1,11,1,2
3,0,8,1,3,0,1
2,1,2,1,27,1,2
3,1,1,1,9,2,5
2,1,2,2,24,1,2
2,2,1,1,2,2,1
2,3,4,11,1,2,1
0,1,18,3,0,2,1
2,0,1,1,10,2,0
1,5,1,0,9,1,1
2,1,9,2,3,2,0
0,2,24,2,3,2,0
1,5,6,0,26,1,1
1,2,3,1,25,1,1
3,3,1,2,23,3,2
1,1,2,0,8,1,0
0,0,1,0,2,1,1
3,2,2,2,7,1,0
0,1,2,4,56,3,1
1,1,0,0,12,1,1
4,1,10,0,2,2,2
0,3,3,0,1,1,1
2,2,1,0,54,1,1
1,1,1,1,17,1,1
2,1,15,1,11,0,4
8,1,2,1,48,0,2
2,3,4,0,43,1,1
2,1,1,1,24,0,1
2,0,1,1,11,2,0
1,1,4,1,1,2,1
1,0,4,1,2,0,1
3,2,1,2,2,1,0
1,2,0,1,6,2,0
1,1,1,1,29,1,1
1,0,4,1,8,1,0
2,2,1,0,36,1,1
10,2,7,1,17,1,1
5,2,2,1,5,1,3
2,1,2,0,53,1,2
1,0,3,1,5,7,2
1,0,5,3,2,8,0
2,1,2,2,21,2,2
2,0,1,1,23,2,1
0,0,2,2,8,0,1
1,8,0,1,1,1,1
0,1,6,1,26,1,2
3,1,26,0,24,1,1
2,1,4,4,7,0,0
1,2,3,2,2,0,1
1,1,3,2,34,2,0
1,1,1,1,11,5,3
2,1,1,0,22,2,1
3,5,0,2,4,1,2
2,2,2,1,16,1,0
2,0,4,0,8,2,2
1,1,3,1,1,0,1
1,0,0,0,53,1,3
1,2,5,1,14,1,4
2,0,3,2,5,1,1
2,2,3,1,64,0,1
3,1,0,2,4,0,0
0,0,0,1,21,5,1
8,1,4,1,1,3,3
2,0,9,1,14,1,1
0,1,4,1,11,1,1
0,0,4,2,35,1,2
1,0,1,1,29,1,1
3,2,3,0,4,2,0
1,2,13,1,25,0,1
0,0,4,2,3,1,0
2,2,3,1,18,2,1
1,0,1,1,8,1,2
0,1,16,1,11,2,1
2,2,13,0,2,1,2
2,3,1,2,0,2,1
1,0,1,2,7,1,1
0,1,2,3,2,0,2
1,2,2,1,9,2,1
0,0,2,1,11,3,3
1,1,1,2,7,6,3
1,1,2,2,9,0,0
1,2,2,4,13,2,1
0,2,0,0,3,5,1
1,1,1,0,0,2,2
2,1,4,1,3,0,1
1,1,10,2,21,0,1
1,2,2,0,9,1,1
1,0,0,1,4,2,1
0,2,2,1,6,1,4
4,1,3,0,10,0,0
2,0,1,3,4,0,0
1,1,4,1,3,3,0
2,2,31,0,2,2,0
2,1,5,1,32,3,0
2,1,1,2,3,2,2
3,3,7,1,2,0,1
1,0,3,1,6,0,1
1,1,2,0,18,1,1
1,5,1,1,9,1,1
1,1,1,1,2,0,1
2,2,1,0,1,4,2
1,1,1,3,2,3,2
1,10,2,12,10,0,2
2,0,2,2,5,0,1
2,1,2,0,1,0,1
4,1,1,0,1,1,0
1,1,26,7,29,2,1
1,2,4,12,5,4,1
1,1,2,3,3,1,0
0,1,0,0,1,2,5
2,3,1,1,11,1,2
1,1,1,0,18,1,2
1,1,1,2,24,2,1
2,2,1,0,3,3,2
2,0,3,1,10,1,2
2,0,8,0,27,0,0
0,1,1,1,5,1,1
1,0,1,1,2,1,0
0,1,1,0,27,0,2
1,2,2,0,5,1,2
6,1,2,0,5,4,2
3,1,5,0,1,2,2
2,1,3,1,1,1,1
1,0,3,5,3,1,1
1,1,9,2,39,1,1
1,2,10,1,3,2,0
2,2,1,2,1,3,5
2,2,0,0,29,0,2
1,1,0,0,2,4,0
0,1,2,8,2,5,0
2,1,0,14,2,3,1
2,1,2,3,8,2,1
2,2,0,2,23,1,1
1,5,2,1,4,2,1
2,1,1,1,23,2,0
0,1,1,30,5,2,1
1,1,0,15,3,0,3
0,2,1,5,2,1,1
1,1,14,26,9,2,0
6,0,4,6,5,2,1
3,2,3,7,0,1,0
3,1,13,79,1,1,0
2,2,1,9,5,2,0
2,2,2,3,4,3,0
0,0,4,1,16,1,2
2,2,1,0,10,1,1
2,0,1,2,3,2,5
2,2,4,1,1,0,0
1,0,3,1,1,1,0
2,1,2,51,2,1,1
0,0,10,7,2,2,0
1,1,1,2,21,2,1
0,1,3,1,13,1,2
1,1,2,10,0,2,1
1,1,2,6,1,2,0
1,2,1,7,12,2,1
0,1,0,5,2,2,1
2,3,2,2,3,2,0
3,2,2,2,2,0,0
3,8,1,2,1,0,3
2,1,7,0,2,3,2
1,2,2,2,5,4,0
2,2,1,1,3,6,0
3,0,2,5,7,1,0
1,2,2,8,2,1,0
2,1,0,3,0,1,0
1,1,1,1,0,2,1
1,1,15,5,0,0,2
2,0,16,1,4,3,0
2,1,10,1,6,1,0
1,1,18,1,2,0,1
3,1,3,6,2,0,1
1,1,2,1,1,1,1
1,1,2,0,2,0,0
0,1,2,0,0,3,1
0,0,3,14,1,0,0
0,0,1,3,1,2,1
0,0,0,2,1,2,0
0,0,1,0,1,2,1
1,0,1,2,10,0,1
2,0,1,0,1,0,1
4,1,2,17,3,1,0
1,0,0,2,4,0,2
1,0,12,0,1,0,0
2,2,9,1,2,1,2
0,2,5,0,1,1,1
1,1,2,1,3,0,1
1,1,0,1,2,4,1
0,2,2,2,2,3,1
2,1,3,0,6,1,2
1,1,0,1,3,1,0
1,2,5,2,1,2,2
0,1,1,0,0,1,0
1,1,1,1,1,1,1
1,0,4,0,1,2,2
1,1,9,1,2,2,3
2,0,26,0,2,1,0
1,1,1,0,9,1,1
1,1,1,1,1,0,2
1,2,15,0,2,1,2
7,2,3,1,4,2,0
3,1,1,2,1,0,2
3,2,0,1,0,1,1
2,2,1,1,2,2,1
0,2,1,1,1,6,2
1,4,0,1,2,2,1
1,3,4,1,4,0,1
1,1,20,1,2,0,2
1,3,1,0,6,1,1
1,0,1,0,2,1,1
2,1,9,10,2,2,1
1,2,15,4,0,2,2
0,1,4,1,1,1,0
3,2,4,1,1,0,2
0,0,2,2,1,0,0
1,2,1,1,1,1,0
1,2,0,1,4,2,2
1,0,2,2,1,2,1
1,2,3,4,1,1,1
1,4,1,1,2,2,6
5,0,2,1,2,0,2
2,1,2,0,0,1,1
2,0,0,1,1,1,0
1,2,1,0,1,1,1
2,2,1,1,2,2,1
1,2,2,0,2,1,1
