HandOpen,HandClose,Wrist Flexion,Wrist Extension,Supination,Pronation,Rest
76,87,57,1,1,1,52
87,47,59,1,0,2,67
85,20,90,1,3,9,78
54,9,80,14,6,23,96
26,4,44,34,10,35,107
11,1,18,55,5,40,67
3,2,8,66,7,45,27
1,2,2,66,6,65,10
1,4,2,32,19,66,5
1,30,2,14,13,34,1
1,59,2,9,8,14,0
14,75,13,4,4,6,2
47,81,38,1,3,4,5
58,95,53,1,1,3,28
69,75,61,0,1,1,59
86,38,66,0,0,5,77
81,18,88,2,3,11,87
41,7,59,11,6,26,108
16,3,27,30,7,39,100
8,2,11,44,5,39,54
4,2,5,50,4,37,22
1,1,2,35,3,62,9
2,5,2,20,14,51,5
2,28,1,9,12,25,3
7,52,6,4,4,11,2
22,63,18,3,4,5,6
46,67,38,2,2,1,71
72,71,80,2,2,11,93
15,7,13,1,1,41,5
2,0,1,23,3,43,1
1,18,25,33,10,2,29
46,78,57,2,14,2,92
62,21,27,0,4,28,27
4,2,2,1,13,60,3
2,2,6,35,0,11,5
18,63,49,33,0,0,66
76,78,84,4,10,16,93
14,6,5,2,4,37,6
1,0,1,11,10,21,1
10,19,14,40,2,3,23
62,80,46,8,4,7,97
45,24,27,2,9,31,30
3,3,1,0,9,56,3
1,1,13,8,11,6,3
41,62,47,37,1,1,61
66,83,48,27,5,16,90
7,5,5,3,7,31,5
1,1,1,1,3,21,1
9,16,35,36,6,2,27
49,75,71,22,0,9,86
69,18,14,1,1,33,27
4,1,0,1,17,55,2
2,4,20,13,9,6,9
17,67,47,26,5,0,71
79,83,25,18,3,12,96
14,6,1,3,0,29,5
2,2,10,1,5,20,0
4,17,46,37,1,2,26
55,89,56,56,17,5,99
59,27,2,4,1,25,30
6,1,1,2,1,57,2
1,0,31,1,2,5,6
19,73,67,33,2,2,72
66,96,13,17,14,21,102
17,5,1,0,1,32,3
1,1,14,0,3,21,1
1,17,54,22,10,1,52
45,105,30,45,4,7,122
65,13,2,4,8,28,8
4,0,5,1,3,53,1
2,19,47,14,1,3,24
14,113,89,30,4,0,92
66,17,7,31,2,15,30
16,0,2,3,13,28,1
1,28,19,2,0,18,1
4,122,53,26,0,2,72
52,17,31,66,7,4,113
50,1,3,6,5,29,3
3,18,8,0,17,60,1
1,119,45,1,1,6,48
20,18,89,34,1,1,112
67,2,8,19,7,11,7
23,14,1,1,4,47,2
2,114,20,2,18,22,25
2,18,59,1,1,3,91
43,2,31,35,2,6,29
82,16,2,24,7,29,2
5,117,5,1,2,50,4
1,17,46,0,14,4,72
11,2,87,15,1,0,110
63,15,8,41,2,15,3
20,108,1,7,7,31,2
2,15,14,1,4,20,56
5,2,55,1,16,2,111
46,20,35,37,2,7,6
60,105,2,43,0,31,0
3,15,5,4,11,60,25
2,1,50,0,2,5,88
17,17,88,5,12,2,32
68,89,9,37,1,5,2
21,26,1,21,5,26,3
1,2,8,1,11,40,70
3,1,47,2,9,2,103
50,64,60,13,4,1,2
76,92,5,45,2,21,0
5,8,2,5,6,47,57
0,1,33,1,6,10,106
18,12,65,7,2,3,8
68,80,17,37,10,14,0
22,29,0,25,0,31,27
3,1,15,1,3,22,85
1,2,59,0,11,2,33
51,58,33,9,6,7,1
78,91,4,43,4,29,1
5,6,6,18,2,68,63
2,2,42,2,4,6,110
13,6,77,0,3,1,4
68,80,8,18,0,11,1
23,69,1,49,7,30,50
1,5,11,5,1,27,104
0,2,59,2,1,3,6
42,31,38,1,15,9,2
87,87,1,19,5,24,22
5,13,4,34,11,60,86
1,1,47,3,1,4,32
9,11,82,1,3,2,1
54,77,9,3,8,11,2
52,28,2,36,2,35,62
2,2,14,28,14,28,107
1,0,54,2,0,3,2
34,57,37,0,3,4,1
78,87,2,28,8,26,48
10,5,6,35,2,61,109
2,1,42,5,9,6,8
15,18,76,1,1,2,0
86,89,6,0,1,19,18
28,31,0,37,6,37,93
3,2,23,41,4,22,37
2,0,60,2,17,3,3
44,54,40,1,1,4,2
76,98,3,0,0,30,61
6,8,4,54,11,69,109
1,1,45,57,2,7,3
9,9,76,3,7,1,0
59,72,7,2,1,11,50
46,66,2,21,1,39,106
2,4,10,72,15,25,7
0,1,54,14,3,1,2
37,41,40,1,6,4,18
70,100,3,9,3,23,78
13,7,3,57,4,66,34
1,2,38,43,15,6,2
8,10,79,3,2,3,7
54,86,8,2,7,13,63
45,33,1,27,2,31,104
2,3,16,70,1,26,2
1,2,60,16,13,2,0
28,60,43,1,3,9,51
72,96,2,12,9,32,108
12,7,3,65,2,63,6
0,3,40,32,2,6,2
10,11,82,1,5,2,16
66,95,10,5,9,12,78
28,33,1,51,27,33,36
2,2,22,84,2,26,3
0,2,59,7,2,2,4
48,71,23,1,2,8,70
82,104,2,11,1,29,112
8,5,4,62,15,67,4
1,1,46,28,2,7,1
9,33,71,2,1,0,54
56,101,4,2,1,13,109
57,8,2,62,0,30,9
4,2,25,99,15,26,1
1,8,59,8,2,3,19
26,80,22,3,1,6,83
70,69,0,16,9,43,35
17,5,10,71,7,71,1
1,1,62,31,16,9,3
11,33,47,3,1,1,68
60,101,2,2,0,6,111
27,10,2,56,6,27,3
2,2,36,112,3,56,2
1,29,81,4,13,4,48
44,101,10,2,1,1,108
84,8,0,27,1,20,9
6,0,23,88,10,44,2
2,9,55,23,6,11,19
13,83,22,2,15,2,91
75,70,2,9,2,15,37
28,4,8,70,2,38,1
1,1,54,70,8,24,4
1,34,84,4,4,3,67
47,105,6,1,19,8,115
84,11,2,29,2,32,5
7,1,41,103,1,71,0
2,27,53,12,4,9,49
9,92,22,2,3,1,112
54,18,1,31,13,5,8
58,2,5,94,2,28,1
3,6,58,18,3,58,21
0,83,83,1,4,6,85
25,67,5,9,1,2,39
75,4,1,74,13,19,2
14,1,18,77,1,44,5
0,32,54,5,5,12,67
11,94,24,2,5,1,112
57,19,3,32,2,10,3
33,2,7,103,10,31,2
2,8,52,11,0,31,43
1,73,71,1,1,3,105
41,72,4,25,8,2,9
85,4,1,101,3,27,0
7,2,24,11,10,68,15
2,24,50,1,0,9,85
10,80,22,28,5,2,38
66,21,1,78,19,13,2
32,1,9,22,4,34,1
2,7,35,1,8,35,68
2,74,79,9,1,3,123
49,68,6,78,2,2,4
81,4,1,75,7,26,1
8,1,16,4,2,62,40
1,28,50,1,12,7,107
5,94,26,28,1,1,8
55,19,2,80,2,14,2
62,2,15,22,5,29,14
5,3,46,1,3,32,95
0,70,48,6,21,1,46
21,75,3,55,1,4,2
73,6,2,84,2,31,4
16,2,36,5,17,59,71
1,29,68,1,4,8,122
7,97,13,30,7,1,4
62,20,0,78,1,6,1
63,2,19,20,2,24,45
4,10,47,2,11,51,107
1,91,24,7,4,4,9
26,41,3,58,5,0,1
67,2,8,75,2,24,15
16,0,43,4,5,48,100
2,48,71,1,18,15,22
15,100,4,28,1,1,1
72,4,2,66,6,12,12
34,1,13,17,1,25,87
2,26,50,1,2,31,44
0,88,26,10,4,3,2
44,18,2,65,0,4,2
86,1,3,42,19,30,58
8,9,42,2,1,55,116
2,75,83,1,2,7,6
5,70,6,53,7,2,1
55,4,2,95,3,13,43
62,2,18,9,15,32,103
4,23,43,2,1,31,9
1,90,26,12,3,3,2
24,20,1,68,10,1,13
79,2,8,46,2,26,84
17,4,48,2,8,70,42
1,82,84,6,1,10,3
6,83,8,45,3,2,3
54,5,3,91,7,22,67
66,1,12,10,2,44,116
4,24,50,3,15,17,5
1,95,30,35,1,2,0
8,20,2,70,1,6,37
64,1,10,22,8,33,95
51,2,50,1,1,52,20
2,75,53,2,10,4,2
1,83,3,69,3,1,12
40,6,2,92,2,24,81
82,2,35,6,14,43,42
9,25,71,1,2,16,3
0,92,15,25,9,2,4
2,21,3,73,1,8,62
49,1,12,24,1,44,112
76,5,51,2,2,59,5
6,71,31,2,2,4,0
1,76,1,44,14,0,35
13,6,8,87,1,20,101
69,3,49,7,6,48,8
21,19,83,1,12,19,2
1,82,8,23,1,1,14
2,22,0,70,3,5,81
51,1,11,21,2,37,43
58,3,57,1,4,57,3
3,74,33,5,9,4,2
3,78,1,57,1,2,59
25,5,5,78,11,20,110
75,1,51,6,2,48,4
21,17,96,2,1,19,0
2,89,9,24,8,1,47
2,20,3,72,1,10,99
54,2,10,26,14,44,21
67,0,50,1,2,42,2
3,72,38,5,3,4,11
1,82,1,61,8,2,77
19,6,6,93,3,34,46
74,2,45,5,8,72,2
20,19,87,2,0,9,2
1,88,9,20,3,2,55
1,21,1,72,17,5,110
53,3,10,28,4,34,5
72,1,52,2,17,58,1
4,62,35,11,1,5,27
1,80,2,77,2,2,98
14,5,6,57,7,17,26
70,2,49,3,3,43,3
19,20,89,2,6,17,11
1,83,9,42,3,2,76
11,24,3,103,7,4,42
78,1,11,7,12,40,2
43,2,62,1,2,68,3
3,65,39,27,7,6,65
1,77,3,76,1,2,115
39,5,2,29,10,18,5
81,2,40,1,15,35,1
9,12,97,2,1,18,33
2,100,11,58,3,2,87
1,14,3,90,1,13,21
54,2,23,9,5,36,3
72,19,58,1,6,35,20
6,85,19,17,2,2,79
1,21,2,75,9,2,46
17,2,14,28,2,20,2
73,0,58,3,5,59,3
22,68,39,5,10,10,58
1,79,3,67,1,1,113
2,7,5,105,4,19,5
52,1,50,4,2,37,0
77,16,85,1,8,17,35
5,89,9,41,17,2,100
2,23,2,90,3,8,11
15,2,10,12,4,45,1
72,2,59,2,2,60,30
23,63,48,19,4,5,95
2,82,4,80,15,0,24
9,5,4,30,0,18,2
56,1,44,1,12,37,7
76,13,81,1,3,17,71
7,88,10,53,5,2,86
2,21,2,96,9,5,6
23,2,29,6,3,35,1
69,2,59,2,1,58,40
23,69,23,19,2,4,98
2,83,3,60,8,1,25
4,6,11,25,18,12,1
61,2,51,2,3,40,11
76,15,45,2,2,22,80
5,93,3,50,0,1,49
1,25,4,87,3,0,3
13,2,46,6,7,35,4
73,2,85,2,1,67,59
22,67,10,16,0,6,106
0,91,2,66,2,2,4
0,6,16,27,16,14,1
52,1,58,2,9,34,30
81,18,24,1,2,21,93
6,95,1,45,1,2,23
1,26,12,102,1,4,3
11,2,57,4,18,33,9
66,2,48,1,19,68,60
25,63,2,33,1,5,91
1,87,2,83,2,2,4
1,8,38,14,1,15,1
48,2,83,2,18,40,27
61,10,12,21,5,20,87
4,83,0,67,2,2,23
0,27,22,28,1,3,0
18,1,61,3,4,35,9
73,2,25,2,25,59,71
29,67,2,54,7,6,87
2,93,3,105,1,1,6
1,6,42,4,0,25,3
44,2,79,1,3,41,30
77,13,6,37,25,20,80
6,87,0,75,10,0,25
0,26,20,15,2,4,2
10,1,55,2,1,33,6
62,1,23,15,9,68,64
24,66,1,67,24,6,44
1,90,8,34,5,0,6
3,6,49,2,0,14,1
46,1,82,3,2,36,7
79,17,8,54,9,22,42
6,85,3,90,25,2,18
1,29,17,7,5,5,1
9,2,55,2,1,30,2
62,1,27,28,2,60,22
49,71,1,89,7,6,48
1,87,4,37,21,1,6
1,8,54,2,2,21,1
40,1,84,1,0,43,2
73,17,6,60,2,22,33
12,84,2,107,16,2,41
1,25,27,5,21,3,5
11,3,59,0,2,30,0
62,1,26,40,0,66,4
29,59,2,104,0,7,38
2,91,10,9,18,1,22
0,6,60,2,16,16,2
45,2,51,11,1,35,0
82,13,3,82,0,24,21
6,86,2,37,4,1,42
2,26,31,3,27,2,3
9,2,81,0,14,38,1
61,1,17,63,2,73,1
52,60,1,109,2,5,31
3,100,9,5,7,1,27
1,2,52,1,15,8,2
29,0,57,29,1,42,2
82,40,4,104,1,51,5
14,93,2,11,2,5,43
2,11,44,1,10,1,12
5,0,70,37,18,20,1
64,18,14,96,2,71,0
47,90,1,18,1,16,19
5,27,15,1,0,0,42
1,2,69,4,19,11,4
23,1,30,61,15,46,2
76,56,2,88,2,26,2
16,81,6,6,2,2,34
2,5,46,2,5,1,28
5,3,83,37,25,38,3
60,19,6,93,9,82,0
55,87,2,18,2,7,6
4,27,17,1,2,0,39
0,2,56,14,0,13,17
27,3,31,73,17,62,1
81,56,2,39,9,34,1
14,93,1,1,2,3,23
2,7,45,4,1,2,48
5,2,87,51,2,38,5
62,11,7,96,27,79,0
62,86,1,8,14,7,1
5,30,19,1,2,1,35
2,1,51,10,2,13,35
23,1,25,72,5,62,3
75,60,1,34,18,29,1
17,90,3,2,4,2,8
2,6,47,1,1,3,46
4,1,80,41,2,40,21
61,17,8,105,10,80,1
57,91,2,6,22,6,0
4,32,17,2,3,1,15
0,1,56,27,0,11,46
30,0,29,75,2,52,6
90,59,2,18,16,29,2
19,94,3,2,21,2,0
1,6,51,12,3,3,30
7,2,86,59,0,42,33
63,6,6,38,5,88,3
63,73,3,2,25,10,1
4,64,16,1,9,0,7
2,5,47,47,2,24,47
23,0,29,89,0,66,22
68,35,2,9,2,13,1
14,94,3,2,23,1,0
1,15,46,10,17,10,18
6,1,98,64,2,44,53
58,11,10,40,1,27,8
59,82,2,3,5,2,0
4,25,36,1,25,9,1
1,2,78,50,6,47,32
21,3,17,105,0,66,33
69,60,1,6,1,5,3
14,93,8,2,4,1,1
1,7,58,20,24,9,4
4,2,70,77,6,36,49
62,5,4,25,0,52,22
65,75,1,1,2,4,3
4,65,36,7,6,1,0
0,4,69,58,26,27,20
31,1,17,79,7,53,47
80,29,1,6,1,12,5
17,94,22,1,1,1,1
2,15,63,38,7,12,0
4,1,37,87,26,38,35
53,10,3,24,6,26,38
60,87,1,2,2,2,2
3,32,42,6,2,6,0
2,1,92,69,10,30,4
22,1,10,84,24,65,38
75,56,1,6,4,6,14
20,94,22,2,1,2,1
1,7,68,28,1,11,1
3,1,18,95,12,37,25
55,7,2,21,16,34,51
65,81,15,1,1,2,5
5,62,65,13,0,2,1
1,4,40,91,2,35,1
20,1,1,56,18,63,30
72,41,4,4,11,6,30
17,109,49,3,2,1,4
1,10,86,54,0,21,2
4,1,9,118,9,38,3
58,34,2,6,26,25,38
67,100,2,2,6,3,16
5,8,54,28,1,2,1
2,2,73,108,2,37,2
18,7,5,12,5,72,29
66,83,0,2,25,8,38
22,74,31,29,8,2,4
1,5,62,97,1,8,0
3,1,23,25,1,40,1
54,34,2,2,9,45,28
65,105,2,4,36,3,30
4,9,53,72,13,1,3
0,1,89,93,1,21,2
23,8,6,5,0,66,6
70,88,1,0,13,18,56
17,67,24,38,24,3,25
2,5,62,106,3,6,1
2,2,15,15,1,44,1
51,33,1,2,1,57,15
73,105,7,23,23,4,40
6,9,55,87,18,0,4
2,1,78,24,2,33,2
15,10,4,2,1,66,0
68,89,1,7,0,16,25
20,42,27,72,12,0,26
2,3,61,91,10,5,1
10,1,21,7,2,51,0
68,58,1,3,0,71,6
40,106,6,23,1,5,41
2,6,41,84,15,2,20
0,1,72,25,5,28,2
40,21,7,1,0,76,1
84,96,1,2,1,17,18
11,26,25,62,0,1,41
2,1,64,107,7,13,6
11,6,21,4,7,73,0
62,82,1,3,2,48,1
21,69,7,54,2,4,26
2,4,54,104,0,2,40
1,1,85,5,3,43,5
45,25,6,1,12,99,0
63,93,1,26,3,9,0
3,19,19,77,4,1,40
1,0,54,23,1,5,20
11,5,19,2,4,56,1
73,77,2,7,16,78,0
23,72,8,69,1,6,15
2,5,58,91,3,0,45
2,1,89,6,2,24,4
42,26,8,2,4,75,0
63,90,2,24,19,23,1
4,22,27,87,3,2,35
2,1,65,30,5,3,44
17,8,25,3,1,53,3
57,72,2,5,3,69,0
20,67,8,68,16,4,1
1,4,48,98,2,1,41
1,0,86,6,4,22,22
44,29,7,2,2,76,1
71,94,2,22,4,22,0
5,19,20,82,18,2,12
2,3,61,27,3,4,43
15,5,24,2,4,54,4
66,67,2,2,2,75,1
22,61,5,66,3,4,0
3,4,51,111,11,1,29
2,0,79,5,1,21,32
44,19,6,0,1,68,3
58,80,1,35,0,24,2
5,19,30,97,5,0,1
0,2,58,16,21,2,39
17,4,22,1,4,49,21
69,68,1,32,3,69,1
20,68,13,78,3,6,1
2,4,57,28,3,1,14
1,2,47,2,14,14,42
55,26,2,1,2,62,5
80,88,2,68,0,23,0
4,18,27,94,2,3,0
1,2,70,6,4,5,29
8,10,22,3,15,42,39
62,82,2,25,0,71,3
50,42,15,85,11,6,1
2,3,57,33,1,1,1
1,1,25,1,6,20,36
33,57,2,3,6,65,20
73,92,4,59,1,24,1
11,7,42,93,5,2,0
2,1,84,7,1,3,14
12,5,6,2,1,43,48
63,75,2,20,11,67,7
21,79,19,73,3,4,0
3,6,60,29,5,2,1
2,0,29,3,1,20,36
54,19,2,4,3,61,42
80,96,14,64,16,18,3
6,26,56,102,2,2,2
0,1,62,4,3,4,1
10,3,4,2,1,42,40
65,79,2,45,3,70,26
24,84,33,104,12,6,2
1,6,86,9,1,1,0
2,2,13,1,13,20,9
45,24,3,20,3,56,42
69,99,12,76,6,18,15
6,21,60,32,17,1,1
1,2,28,1,2,1,0
14,3,1,0,6,43,27
64,74,7,42,3,50,48
25,80,53,108,2,4,6
1,6,87,5,7,1,1
0,1,7,2,2,32,2
43,23,1,47,7,73,43
79,105,14,96,3,14,24
5,13,56,16,0,3,1
1,0,33,0,12,10,1
3,26,1,16,4,58,13
68,84,7,72,2,24,41
75,20,51,31,0,3,4
5,2,91,2,2,3,1
1,6,7,6,17,26,1
26,77,1,53,1,90,33
72,80,13,98,15,22,47
12,6,61,9,1,3,5
1,1,41,3,1,33,0
6,20,3,22,12,91,2
63,99,4,72,2,26,41
50,25,46,32,8,2,22
2,0,85,1,2,89,3
2,2,9,2,3,60,1
27,71,2,83,14,51,11
73,85,11,112,2,4,45
12,5,70,5,7,24,5
1,1,34,2,1,41,0
7,18,2,37,7,93,0
55,84,2,89,16,18,28
47,20,73,17,1,6,34
3,0,73,1,3,2,2
0,1,6,11,1,83,2
29,65,2,70,10,47,2
77,73,15,32,12,3,39
15,4,62,3,1,30,22
0,1,20,7,2,51,0
3,20,1,61,1,70,1
48,92,12,104,10,3,7
63,22,61,5,5,1,37
5,1,62,2,1,146,15
1,3,4,42,11,49,1
29,64,1,90,2,1,2
84,77,54,16,17,113,25
12,5,63,2,4,37,34
1,1,8,14,10,42,3
10,16,1,71,1,9,0
63,85,11,41,7,1,1
26,28,49,2,16,16,39
1,1,125,1,3,25,22
2,0,5,35,8,64,1
58,61,1,111,2,9,0
89,71,46,3,7,3,10
8,6,132,2,8,2,49
0,2,6,55,4,53,8
1,17,1,107,5,5,1
78,81,72,11,3,1,2
63,26,65,0,0,112,27
4,1,23,33,9,12,46
2,2,1,92,4,8,4
10,62,1,19,0,2,0
79,86,122,1,12,61,0
10,5,33,11,0,49,38
0,1,2,83,12,109,25
1,11,103,38,4,3,2
69,85,80,2,5,13,2
95,33,11,2,1,79,10
6,2,1,57,0,91,50
2,1,2,110,19,11,8
2,65,27,7,4,3,1
73,88,327,1,2,11,0
45,6,15,34,1,188,28
2,2,7,89,2,8,39
19,17,75,21,5,7,2
51,93,37,2,2,1,1
51,26,13,13,2,144,2
3,3,131,84,4,26,30
1,0,9,36,1,1,41
54,73,44,2,7,3,3
93,101,24,6,13,27,2
11,3,8,62,2,122,13
2,1,58,114,8,7,49
1,45,72,7,2,2,7
141,100,17,2,5,79,2
121,7,1,31,11,116,1
5,2,80,103,2,42,24
2,22,108,12,6,4,34
16,94,56,2,0,35,2
113,28,63,25,7,76,0
7,3,26,97,2,7,2
2,2,3,25,11,12,41
30,66,63,2,5,1,28
91,90,149,9,0,121,3
5,5,11,79,9,124,1
2,1,285,82,3,5,8
0,18,36,5,8,30,45
74,93,2,1,8,52,10
42,27,6,35,1,48,1
1,1,237,105,10,3,1
14,1,58,13,33,3,26
59,52,90,1,4,2,34
41,104,20,30,5,78,2
14,3,236,98,10,21,1
1,0,9,23,40,19,2
15,47,12,2,10,12,39
36,100,44,7,48,27,25
9,6,153,59,3,42,2
1,0,10,90,14,4,1
37,12,16,6,31,39,8
91,91,3,2,17,5,55
41,30,8,28,1,121,18
4,2,94,88,0,4,1
5,1,92,22,12,2,1
39,62,4,1,3,32,28
94,91,66,11,43,139,41
16,7,170,84,16,13,3
2,0,15,47,7,24,0
5,16,177,2,2,63,1
81,88,12,3,1,74,33
69,27,31,51,49,7,42
4,1,4,108,6,9,2
2,2,169,5,5,77,0
46,61,16,1,6,54,7
39,86,26,26,1,12,44
31,8,2,91,84,0,18
2,2,94,23,27,164,1
3,11,98,2,64,73,1
74,95,65,12,6,15,25
50,29,11,54,5,4,47
4,3,2,59,4,10,5
2,2,118,4,2,50,2
14,62,244,2,53,56,0
128,98,8,48,8,5,35
9,7,0,103,1,23,25
1,1,54,5,46,3,1
1,8,141,2,30,203,2
84,76,15,27,4,9,9
98,71,123,88,2,23,54
6,4,86,26,61,30,17
2,0,32,2,14,113,2
67,37,14,7,42,4,0
78,105,169,65,2,1,31
40,8,13,77,24,7,46
2,1,10,6,72,101,5
53,9,1,0,38,23,0
119,69,151,30,7,6,1
11,62,68,83,13,1,34
1,4,21,21,5,81,25
64,1,0,1,2,66,2
75,37,59,41,3,29,0
51,96,150,52,37,7,7
3,16,46,21,47,76,41
0,0,38,2,32,70,16
14,10,9,18,4,3,1
82,85,2,58,1,3,0
11,40,59,64,8,45,24
48,2,90,5,23,124,40
19,1,40,1,5,23,5
12,65,11,31,75,33,0
6,101,35,121,37,31,1
0,4,21,18,33,65,30
0,1,134,2,1,23,28
101,31,22,31,7,5,1
99,100,12,96,43,20,1
7,7,7,30,12,45,9
2,0,51,3,0,41,44
28,14,183,2,1,10,13
91,83,25,105,107,33,2
17,32,4,54,19,80,1
2,1,2,4,11,90,16
34,0,85,2,6,5,44
31,48,212,40,1,14,7
15,100,65,200,2,36,1
2,4,4,17,3,41,1
27,0,142,51,22,17,35
13,36,12,40,23,13,27
49,101,82,66,22,19,2
2,7,8,5,3,78,1
21,1,9,1,0,5,6
7,4,5,11,26,1,43
46,70,132,127,31,30,16
16,72,4,23,15,33,1
2,4,41,3,1,45,1
29,1,182,25,36,4,24
91,36,9,85,3,2,38
17,95,27,21,37,74,4
2,18,285,2,32,98,0
44,1,75,4,14,5,1
77,3,106,75,7,37,37
35,82,27,63,3,13,29
3,39,35,3,7,31,2
2,3,75,2,3,26,1
46,5,7,70,1,3,1
47,34,25,98,4,43,42
4,84,143,123,35,187,21
7,13,100,4,86,11,1
5,1,7,50,4,2,0
24,3,33,128,4,36,19
66,76,27,25,27,88,50
8,114,93,1,100,41,7
2,3,14,1,16,2,0
2,1,1,63,2,4,1
33,88,67,82,1,62,32
18,151,194,15,12,80,30
3,7,23,8,57,6,2
87,1,2,25,6,1,0
26,2,27,177,23,35,7
69,58,47,12,2,154,47
8,101,97,2,1,11,17
2,2,40,142,2,3,2
16,1,80,126,29,56,0
65,25,10,6,64,48,20
40,82,104,1,17,18,47
3,8,6,3,4,2,4
12,1,83,164,2,11,1
105,22,82,16,5,88,3
25,95,6,4,12,32,38
2,12,90,9,33,2,38
5,2,198,75,15,2,4
96,1,7,61,30,23,0
77,38,127,3,9,136,1
6,107,23,0,6,12,36
2,4,36,51,14,2,20
38,2,55,161,2,72,2
119,71,10,8,8,56,1
28,128,55,1,1,9,17
2,7,4,96,14,0,40
6,0,104,84,18,12,4
124,37,11,11,1,62,0
45,156,12,0,37,93,2
1,14,62,49,53,8,32
27,1,39,96,7,2,32
204,24,16,56,2,34,1
43,116,1,4,11,102,1
3,20,47,1,1,4,4
0,1,92,60,5,6,40
85,10,116,129,48,65,17
150,121,4,3,21,121,1
4,25,49,1,23,26,0
2,1,14,74,6,16,34
56,2,89,184,1,71,52
74,61,24,11,1,84,6
22,108,2,14,28,15,1
2,4,70,28,3,9,0
5,0,160,152,16,9,30
31,162,6,14,25,51,29
150,34,7,4,1,41,2
9,1,102,129,30,3,0
3,10,98,51,4,31,6
28,42,8,4,4,13,42
102,95,2,1,0,136,15
4,6,54,85,0,4,2
1,1,177,151,30,11,0
52,61,26,7,13,36,13
84,70,14,2,5,131,53
18,44,14,44,4,4,8
1,2,179,54,0,37,0
2,2,10,7,4,52,1
74,64,1,3,4,75,32
36,120,66,34,23,11,30
2,11,98,60,9,10,2
3,64,5,65,21,22,0
100,26,2,5,14,101,5
62,36,141,0,5,4,45
5,1,37,51,18,38,22
2,1,70,127,2,69,2
6,14,4,23,2,78,1
74,115,43,1,19,15,19
79,22,31,38,65,2,40
7,2,150,139,13,45,4
1,133,7,46,2,148,2
22,64,2,4,2,8,0
75,3,87,43,14,14,24
15,2,122,79,6,27,44
2,77,5,10,14,101,4
0,80,7,9,13,4,1
20,35,134,2,11,0,4
104,2,28,128,11,2,43
3,53,1,51,4,70,18
2,4,41,2,1,100,2
35,111,18,8,1,4,0
69,13,47,34,41,49,14
5,1,12,38,57,39,39
3,31,2,21,4,65,6
3,51,18,1,0,4,2
75,72,80,17,14,2,1
31,10,72,91,63,58,25
1,1,4,137,65,67,37
2,152,2,5,5,16,3
39,18,35,1,3,2,0
23,8,145,62,9,61,2
5,97,5,73,7,67,44
2,152,2,6,23,66,20
88,8,15,29,3,11,2
29,1,155,33,4,22,2
53,34,13,91,43,62,18
4,130,3,4,35,10,46
2,26,26,2,5,0,5
11,4,88,13,1,0,0
77,3,21,195,2,66,1
15,108,9,37,30,134,36
1,43,45,1,20,4,38
10,3,24,2,8,1,4
42,0,50,99,2,23,0
37,19,5,127,1,108,3
2,133,1,10,35,9,43
8,12,56,18,62,2,15
30,1,92,163,4,2,1
17,17,21,12,0,69,0
69,99,3,1,1,29,18
4,10,66,2,52,7,48
8,10,23,93,5,2,6
86,77,8,157,53,64,1
68,91,7,4,7,77,0
3,6,13,17,6,31,31
1,10,17,81,57,3,30
77,22,126,155,13,4,3
61,68,7,5,6,111,1
34,14,2,0,2,16,3
2,0,84,118,36,3,45
4,93,18,174,10,30,22
71,123,12,9,1,116,2
74,5,20,1,14,27,0
6,1,6,3,20,3,19
18,2,171,175,6,25,57
47,127,24,22,0,40,8
70,86,2,1,0,45,1
4,12,34,1,24,12,0
3,1,61,164,25,5,34
55,93,27,26,1,57,43
91,149,3,1,2,96,2
12,5,59,3,25,7,1
1,49,17,149,55,2,2
19,40,33,29,11,3,42
95,233,42,2,8,31,17
56,15,9,0,6,87,3
3,2,52,7,13,4,1
1,147,96,181,10,6,17
91,58,41,19,10,67,58
126,4,3,2,12,122,8
8,5,54,98,2,8,0
1,75,147,74,53,1,0
4,67,11,22,31,37,28
79,17,78,2,4,67,35
106,3,15,62,2,79,3
3,2,5,148,14,4,0
6,86,19,15,2,57,3
72,82,2,1,2,18,45
61,5,11,24,2,100,19
10,78,161,251,2,4,2
2,20,33,18,68,4,0
73,84,3,1,10,39,14
139,19,43,32,12,113,45
5,1,121,19,21,9,5
1,32,9,63,1,4,1
97,112,1,8,2,14,1
83,6,49,31,5,117,30
28,1,76,10,8,12,32
3,37,12,161,13,2,2
1,134,2,6,2,39,1
72,26,1,8,41,119,1
42,3,67,65,5,8,34
5,5,145,104,8,2,18
1,52,8,5,16,13,2
29,39,79,0,2,35,1
62,12,8,9,2,25,13
44,1,107,33,11,3,38
3,89,32,44,9,0,5
27,123,14,3,10,82,2
52,3,24,2,5,90,1
56,2,55,12,9,18,21
2,34,18,70,5,1,30
4,118,5,138,0,35,3
92,25,94,5,13,94,2
122,5,59,40,9,23,1
4,18,4,10,7,14,29
1,18,1,34,2,23,17
46,38,2,11,77,64,2
77,3,63,88,13,9,0
18,0,189,43,2,1,10
1,144,12,4,30,1,35
2,14,1,20,2,44,3
107,2,69,9,27,109,0
58,39,88,78,2,6,1
3,156,14,47,23,17,23
1,9,15,3,38,82,25
44,2,12,1,5,71,3
86,12,145,55,1,5,0
16,160,8,42,5,2,3
1,65,2,10,24,8,40
7,4,26,0,4,33,17
71,1,211,100,4,72,1
35,1,7,173,1,5,1
2,112,1,12,28,2,10
11,11,13,6,2,42,36
60,59,65,19,18,111,6
47,8,69,121,33,14,2
3,103,4,20,3,2,0
0,6,3,32,5,4,20
36,1,148,76,2,117,34
75,2,11,12,0,13,3
32,96,2,2,31,4,2
3,204,8,2,1,0,2
2,9,74,93,0,41,33
17,12,90,40,28,85,16
119,99,52,85,10,7,3
6,157,2,7,24,3,1
4,11,16,2,13,51,13
49,1,94,98,32,60,38
87,25,76,182,3,31,4
9,96,6,5,1,2,2
1,14,1,2,19,67,0
5,2,30,157,52,63,23
107,9,94,62,6,25,33
29,144,13,4,10,2,2
2,11,2,12,2,2,1
45,5,10,95,3,42,1
45,76,71,92,15,152,34
107,17,19,7,2,5,20
4,11,16,1,12,1,1
1,16,21,1,6,43,0
34,32,108,115,0,51,11
108,35,10,81,2,15,37
3,32,5,5,10,0,4
3,2,45,2,15,53,0
14,34,54,19,30,45,1
82,79,35,112,4,30,29
13,12,1,16,1,3,32
2,23,86,16,3,2,3
23,1,62,90,1,24,1
58,11,66,173,53,88,3
68,200,6,5,10,16,35
4,9,2,3,1,3,21
2,9,78,2,31,70,0
10,73,49,197,3,55,1
144,105,13,53,4,6,5
14,6,1,3,12,0,36
1,2,8,87,21,15,12
44,12,62,111,4,77,0
78,142,49,8,4,49,1
13,40,3,1,7,4,17
2,2,0,100,2,3,31
10,14,98,35,2,53,5
43,84,81,125,5,86,2
73,15,18,3,2,16,0
4,12,2,62,21,2,29
8,71,48,154,2,39,13
38,83,28,14,16,90,1
93,33,86,13,6,54,2
4,3,3,137,36,4,12
2,47,3,42,18,13,45
14,30,91,1,1,95,8
75,116,111,0,14,39,2
35,31,6,0,2,2,1
2,3,1,135,10,1,24
1,16,14,147,4,50,38
75,70,32,4,5,72,3
113,4,2,2,1,19,0
4,2,12,93,19,1,0
3,16,2,49,16,1,36
11,153,58,6,3,56,21
73,14,89,1,51,59,2
29,6,4,25,16,8,0
2,23,3,113,72,4,9
20,199,95,10,9,25,47
73,8,108,1,1,49,14
18,2,5,92,2,16,0
2,56,1,103,4,2,1
23,130,61,3,19,6,27
56,9,144,0,6,50,37
61,4,7,73,2,109,3
4,2,3,173,4,4,1
0,38,19,14,1,1,1
33,130,7,0,16,60,31
73,4,85,95,3,52,26
14,1,34,70,1,16,3
0,34,1,27,15,0,0
31,152,41,6,45,42,8
57,5,43,18,13,85,44
84,24,14,22,2,15,9
4,6,7,29,2,2,1
1,79,70,6,1,22,1
59,30,47,39,11,66,6
114,2,25,59,21,56,46
5,2,3,122,1,3,20
2,80,1,3,1,6,3
19,77,37,1,9,47,1
93,5,67,24,40,94,22
15,39,14,162,7,7,38
1,9,2,11,1,1,3
5,4,40,0,1,24,1
76,129,47,119,1,37,0
46,5,5,212,24,41,40
3,3,1,8,7,15,28
1,33,1,3,1,12,1
100,139,51,8,4,85,1
85,4,91,97,1,15,10
4,5,10,38,19,1,47
2,3,2,3,26,38,7
6,77,97,2,9,62,1
50,80,60,9,2,63,0
56,6,6,115,1,5,28
5,4,2,22,3,2,41
2,19,2,3,3,16,4
2,103,19,52,9,83,1
79,5,90,88,12,18,1
85,18,13,22,13,0,38
5,82,2,3,3,24,25
1,74,71,45,8,48,1
19,6,69,126,14,44,0
108,2,6,29,2,1,13
9,60,4,2,1,4,52
1,104,24,48,53,77,8
21,24,77,68,8,87,2
76,3,33,32,9,13,0
19,29,2,2,9,2,28
2,150,1,11,21,5,48
4,7,86,41,3,87,4
57,2,118,69,3,17,0
30,16,5,16,29,3,2
7,74,17,4,1,0,34
4,34,56,106,17,10,25
27,12,97,75,13,132,4
63,1,18,5,2,12,0
9,67,2,2,0,0,8
2,63,31,78,2,20,43
6,24,39,12,18,109,14
61,2,28,4,22,26,1
67,1,2,2,27,10,0
9,91,33,43,4,20,24
2,91,41,63,5,75,47
14,5,12,74,7,8,5
103,19,2,7,6,2,2
11,65,0,2,1,38,0
2,77,26,26,2,16,35
11,5,38,50,2,2,28
54,2,19,17,32,1,3
51,8,7,3,3,8,1
2,66,4,14,14,128,7
2,29,55,10,5,42,46
30,1,41,81,17,5,17
89,71,9,5,13,2,1
7,65,13,33,8,5,0
2,122,62,75,16,60,21
0,5,34,45,5,119,35
66,1,53,2,6,6,3
49,68,3,0,15,3,2
2,100,12,0,3,37,2
1,7,91,185,2,59,33
67,1,7,90,1,5,26
107,2,3,5,13,8,2
16,26,29,3,6,6,0
1,53,64,0,8,29,5
30,3,114,63,2,58,44
96,27,4,52,10,5,19
17,7,2,4,9,4,2
2,85,63,22,0,66,0
9,22,86,103,45,127,18
48,2,15,5,6,8,31
17,1,6,13,8,2,3
22,138,132,60,6,108,2
2,32,54,43,4,59,2
40,3,4,38,12,66,33
93,23,1,1,1,4,25
8,44,47,22,41,48,1
1,11,50,106,13,49,0
13,2,81,16,2,36,3
67,65,4,2,0,18,40
32,58,1,8,1,60,18
2,54,33,82,14,37,0
2,9,162,55,24,21,1
69,3,8,3,3,1,17
107,65,31,27,8,4,44
5,95,10,61,15,20,5
2,6,47,99,4,114,2
25,3,3,5,2,5,1
88,0,4,1,30,7,32
22,2,57,27,1,14,24
1,157,106,143,16,128,0
3,24,56,19,6,5,0
66,1,2,1,2,3,5
55,35,23,16,3,48,46
2,134,64,47,29,41,20
2,26,60,27,30,13,2
22,3,4,3,8,1,1
83,27,40,1,6,1,20
17,41,41,12,1,40,37
0,134,5,106,3,126,4
2,4,0,4,28,4,1
70,1,2,2,8,2,0
90,89,53,56,3,33,34
6,130,66,50,16,77,26
1,3,60,16,29,14,3
29,5,7,2,6,1,1
84,84,6,3,2,47,5
22,90,78,115,28,80,39
2,5,102,49,8,21,18
3,0,19,3,18,18,1
62,33,2,1,5,51,1
79,142,34,19,3,34,19
5,33,125,168,15,10,46
2,3,41,23,2,1,5
30,2,5,3,16,2,0
83,125,108,86,2,94,1
25,55,43,51,10,111,37
2,27,6,12,2,5,29
2,13,27,2,38,3,3
68,100,46,4,48,48,1
72,17,196,62,10,150,6
5,2,8,119,1,12,41
2,28,1,3,0,3,13
21,38,6,1,32,43,1
82,4,7,104,12,59,0
19,2,209,80,41,24,14
2,46,11,6,3,2,35
0,93,7,2,9,27,3
67,7,4,62,38,33,0
97,2,70,168,3,43,1
7,7,21,10,23,2,32
2,41,2,1,33,1,23
16,59,74,83,10,89,2
77,90,53,15,1,65,0
25,5,53,10,22,9,5
2,2,2,2,3,36,40
3,37,2,38,0,29,11
65,106,38,86,10,89,2
72,14,110,9,15,15,0
4,3,6,3,45,1,21
1,57,14,3,6,46,37
4,76,12,117,0,102,3
71,9,30,48,2,24,1
47,2,2,3,31,3,1
3,2,4,1,4,3,31
0,99,24,21,22,88,28
41,86,77,85,6,42,1
85,4,41,48,9,11,1
10,0,42,2,53,7,8
1,16,6,29,7,52,35
15,75,13,188,23,143,16
69,12,64,37,3,5,1
21,2,4,3,2,67,1
1,2,1,59,1,51,16
5,54,82,33,2,89,40
62,107,122,126,37,15,4
74,3,7,4,5,29,0
6,38,1,4,15,17,0
1,22,36,57,33,45,31
20,5,30,9,12,7,31
78,10,23,1,3,1,4
23,2,13,1,5,67,0
2,18,15,58,38,49,3
6,54,159,19,5,32,32
70,33,13,80,32,2,14
82,3,17,4,14,20,1
7,1,24,2,2,94,0
2,47,24,92,13,60,21
13,51,27,136,8,4,42
74,1,2,5,45,41,5
26,44,142,2,7,7,1
1,86,21,17,2,49,0
3,143,22,134,7,14,30
49,4,10,21,8,0,29
77,2,32,4,8,98,3
6,41,64,37,2,127,1
1,156,5,54,6,11,3
14,8,0,4,56,1,40
72,2,33,0,10,43,21
17,53,156,93,39,42,2
2,48,18,61,4,24,2
3,60,30,69,1,3,18
58,5,2,4,2,40,39
79,2,43,18,16,78,4
5,16,100,36,41,24,1
1,77,12,30,3,3,0
20,10,3,9,18,1,35
75,2,109,1,18,67,40
27,17,23,99,5,177,3
1,104,2,75,2,12,1
2,11,1,18,9,1,3
47,1,40,2,22,32,34
79,24,77,4,5,50,17
5,117,8,0,19,10,2
2,21,4,57,8,3,1
12,2,51,86,29,10,14
68,32,46,12,2,94,38
25,91,72,3,14,26,5
1,17,4,74,5,4,2
0,2,3,48,7,4,0
51,0,51,3,41,56,31
74,60,263,1,15,89,31
5,151,11,60,30,5,3
1,12,5,129,3,1,0
15,1,96,8,32,12,3
67,16,44,2,4,80,42
26,109,4,1,2,64,19
2,10,15,81,1,4,1
1,5,46,237,8,3,0
46,21,129,18,14,81,13
72,97,7,3,4,96,30
5,16,1,100,19,6,2
0,0,18,40,18,1,0
19,11,80,2,17,46,0
69,190,122,62,1,29,34
31,17,10,22,19,31,31
3,2,3,45,7,2,3
1,129,59,3,24,0,1
44,64,60,13,6,60,2
75,6,9,52,2,88,40
5,1,3,96,1,16,24
1,24,105,8,12,1,3
13,102,41,2,19,1,1
59,25,2,44,5,89,16
27,2,2,78,4,46,43
3,18,29,66,19,5,6
3,3,221,4,2,21,1
47,97,16,7,52,23,1
77,6,1,89,25,40,29
6,52,14,55,1,4,26
3,55,70,22,0,2,2
10,31,16,4,7,49,2
62,4,8,113,33,59,1
28,1,1,38,4,10,34
2,15,82,2,21,2,17
1,115,66,0,6,14,1
53,12,6,62,4,69,1
85,1,16,42,4,37,13
8,3,49,71,2,3,43
2,96,114,4,31,1,4
24,77,6,2,14,37,1
89,6,2,57,24,92,0
35,1,2,53,16,9,35
2,17,54,23,6,2,38
2,181,39,9,1,0,3
57,11,1,87,18,21,1
94,1,1,12,10,72,1
8,20,30,22,5,7,44
3,137,94,1,18,2,23
10,21,9,84,4,19,3
80,1,1,91,22,70,0
28,1,4,77,1,12,11
2,33,78,3,0,1,38
1,114,62,2,11,15,6
58,4,5,27,11,45,1
94,6,1,96,55,35,0
7,131,38,44,4,2,23
1,43,64,3,5,4,33
14,4,25,3,3,61,2
88,1,2,83,18,100,0
36,49,10,13,19,3,3
3,107,62,2,4,2,39
2,6,80,99,6,25,21
58,22,6,31,10,63,0
93,42,2,167,11,7,1
7,35,40,8,2,0,13
1,1,82,1,30,33,42
11,9,6,8,15,48,5
82,128,0,82,10,57,1
34,10,7,51,5,5,0
2,16,53,5,11,1,32
2,1,82,55,23,16,41
54,6,6,21,2,31,4
88,120,1,17,4,11,0
5,111,19,2,13,2,2
2,2,34,43,5,13,35
6,58,20,89,9,42,20
60,260,2,51,3,50,1
49,22,35,25,1,3,1
2,2,55,2,3,2,13
1,31,29,81,41,21,40
36,89,2,124,57,70,7
76,79,1,6,4,24,2
13,4,59,19,1,2,1
2,29,126,34,11,16,25
7,147,7,184,28,74,30
55,25,1,14,7,17,2
51,1,13,2,13,1,1
4,0,61,15,11,3,0
0,13,16,121,43,23,34
24,173,1,4,7,74,21
57,11,14,1,1,5,2
7,4,63,5,46,1,1
2,202,45,244,31,8,13
6,49,3,16,6,57,33
45,4,3,1,2,42,4
90,7,25,22,25,3,1
9,1,62,156,5,2,0
0,37,8,41,1,39,24
5,94,1,3,0,80,29
44,7,20,32,0,9,1
46,16,80,122,63,1,0
4,164,41,20,8,2,3
0,13,2,2,9,51,38
20,2,2,8,26,67,24
57,98,27,47,1,5,1
11,71,71,162,8,0,2
2,7,11,5,9,24,14
4,12,1,1,73,49,46
36,1,5,25,51,16,7
51,22,65,101,16,1,1
4,110,75,10,4,5,1
1,30,3,1,10,42,24
20,5,5,15,1,68,40
53,7,45,197,1,6,4
12,58,85,16,5,2,1
1,59,12,1,7,13,2
5,4,2,80,36,61,48
45,0,14,124,14,22,29
53,98,52,5,2,1,1
3,19,29,1,22,8,1
1,51,2,66,2,45,8
19,4,17,184,4,70,40
63,42,53,14,2,6,9
13,82,35,7,1,3,2
1,20,3,49,8,15,1
4,2,5,111,2,53,11
54,180,60,7,53,22,41
61,35,105,2,48,3,6
5,3,5,131,14,4,1
2,56,0,193,3,47,0
13,13,32,11,1,75,22
59,51,60,1,5,5,33
15,132,20,139,2,1,3
3,4,1,127,1,13,1
12,1,3,8,45,83,0
70,121,66,2,18,29,28
37,26,89,40,3,2,23
3,1,8,33,2,2,2
0,1,0,32,38,35,1
42,102,16,97,22,90,9
91,45,54,18,20,6,41
9,3,24,65,2,1,10
3,96,2,34,20,18,2
4,8,4,2,16,60,2
65,99,58,0,39,24,18
75,23,85,51,11,1,43
6,2,5,96,21,1,5
1,81,0,21,2,65,1
23,202,23,3,5,80,1
96,40,51,56,47,5,33
24,1,16,69,15,1,29
2,74,1,4,1,13,2
2,166,18,13,2,71,0
76,133,57,168,19,23,6
87,5,43,131,21,2,36
6,1,1,5,31,1,11
3,85,1,1,22,39,2
22,176,36,0,5,77,1
116,6,95,46,14,6,14
16,1,16,88,2,3,34
2,36,2,13,4,13,4
20,75,17,6,8,55,2
112,8,58,104,13,25,2
14,73,28,28,11,3,35
1,5,3,1,3,1,15
20,64,4,1,7,40,2
106,131,41,70,6,87,1
11,12,86,140,12,7,8
2,3,7,14,7,2,26
27,116,1,1,3,17,20
99,30,14,2,42,65,1
25,3,64,155,19,26,2
2,16,30,16,18,2,28
2,120,1,1,2,4,33
69,38,1,13,23,52,4
83,3,48,128,3,86,1
5,29,87,29,32,5,0
1,146,7,2,4,1,24
19,53,2,2,11,19,25
83,2,26,32,14,64,2
19,49,55,190,8,29,1
3,30,24,11,41,2,15
5,106,2,53,7,5,40
70,6,0,146,2,51,5
85,3,56,10,13,79,2
6,2,109,1,44,7,0
2,58,5,8,7,1,18
17,6,2,53,12,20,31
67,2,34,29,1,46,3
19,33,79,2,7,21,2
4,117,11,30,26,1,1
2,15,1,96,5,13,32
52,57,36,30,14,50,14
67,7,52,1,2,41,2
6,1,25,1,7,1,0
1,50,3,151,12,8,9
10,4,2,123,1,34,36
59,11,37,5,19,57,17
21,64,86,2,2,9,1
2,88,9,1,50,2,2
3,7,1,64,3,10,19
47,52,9,32,32,32,30
63,172,51,1,5,36,3
4,8,61,19,34,2,1
0,7,4,91,10,1,2
14,2,2,191,3,20,29
58,53,35,5,2,64,28
20,68,83,2,4,11,2
1,62,17,2,7,1,1
1,3,2,50,25,10,1
39,119,13,73,4,16,41
44,8,52,10,10,16,17
2,14,27,53,3,1,0
2,1,1,39,17,14,1
27,0,8,28,2,27,20
55,14,53,3,3,37,34
18,127,91,1,3,3,3
1,18,6,26,1,1,1
2,3,2,25,17,21,1
39,6,16,5,3,53,27
59,109,54,0,8,8,16
4,43,31,45,4,1,1
2,3,1,163,2,5,1
12,1,6,10,23,33,4
51,38,45,2,6,56,41
19,102,83,24,3,4,16
1,8,7,271,0,1,3
4,2,0,27,18,19,2
49,29,14,2,11,29,19
68,124,62,0,2,19,28
4,5,48,131,2,2,3
3,1,2,42,1,9,0
13,7,4,3,2,26,0
58,121,41,30,35,54,32
21,30,74,35,8,5,21
3,1,6,7,14,1,1
2,17,2,18,2,7,0
44,88,7,4,1,39,11
77,13,52,53,8,27,42
5,1,64,10,2,2,11
0,1,4,8,1,1,0
15,19,1,1,3,16,1
42,123,30,6,2,70,31
24,19,70,138,15,19,20
2,1,18,45,6,2,1
3,24,2,2,17,11,0
48,98,3,1,2,26,9
75,31,57,27,6,19,34
5,3,74,218,1,1,7
0,6,5,27,0,11,1
14,110,1,1,15,38,1
71,85,28,1,3,40,8
25,4,67,40,3,1,37
1,18,18,44,8,1,11
0,139,1,3,1,29,1
53,15,3,21,17,52,1
95,0,60,86,2,10,20
7,15,77,56,10,0,36
1,64,4,4,16,15,2
10,60,1,2,9,28,1
80,4,17,153,13,17,1
28,6,74,79,2,2,27
2,45,20,6,8,4,19
1,44,0,1,6,37,3
55,5,12,60,0,71,1
80,2,73,54,2,6,3
6,13,45,43,3,2,36
0,109,3,17,13,18,21
17,13,3,16,9,24,1
91,3,45,138,6,16,2
30,0,96,15,4,2,17
1,80,11,1,2,6,32
1,88,1,34,6,35,2
59,6,21,116,18,65,2
94,3,81,30,1,6,0
8,49,25,3,2,0,27
2,97,3,15,1,13,25
9,21,7,52,6,25,4
69,1,53,111,11,20,1
58,0,77,5,4,1,10
4,46,4,1,3,7,41
2,85,1,47,0,20,6
30,7,25,31,13,63,0
87,2,70,3,12,5,2
14,28,22,1,11,2,20
1,115,2,22,0,11,41
11,7,2,69,7,31,5
79,1,53,26,3,22,1
29,1,98,3,1,3,0
2,75,5,5,7,1,30
3,91,1,100,2,32,20
51,6,20,61,1,76,1
105,2,65,4,7,6,1
5,11,21,16,13,2,7
3,104,1,57,14,18,37
29,12,12,7,1,27,10
79,1,61,2,1,21,2
14,24,42,2,5,1,2
2,99,2,27,3,4,13
8,46,3,162,12,28,44
55,1,50,10,1,62,7
57,2,89,1,5,5,2
3,59,9,25,10,2,0
0,95,2,57,2,3,28
31,9,7,31,9,34,29
76,1,56,4,2,59,3
13,5,74,41,8,4,1
1,90,6,52,10,1,4
10,61,1,62,0,25,36
66,4,14,4,10,50,13
28,2,71,0,1,10,0
1,28,28,28,6,1,2
0,90,3,64,10,7,24
43,17,6,34,2,36,38
82,1,48,1,5,48,4
8,10,75,21,2,3,0
2,87,6,78,2,1,3
6,30,1,22,5,27,27
49,3,23,1,1,64,32
49,2,55,11,15,13,2
3,58,21,103,3,1,0
1,90,1,48,3,13,7
35,7,6,3,2,46,34
80,2,43,2,1,26,10
15,9,78,80,12,1,0
2,77,8,92,1,3,0
9,61,2,8,8,34,16
51,3,19,1,9,66,38
53,2,51,17,1,8,3
3,36,25,63,8,0,0
1,80,1,58,1,7,2
18,18,6,3,3,35,30
66,2,40,2,14,54,25
14,5,79,102,3,5,2
1,77,5,66,11,1,1
4,45,1,4,3,26,5
53,2,18,1,5,50,34
47,1,50,27,6,16,9
3,30,18,103,2,2,1
2,90,0,17,8,10,1
27,15,16,2,2,38,4
71,1,52,40,1,26,34
12,8,48,69,21,2,8
2,79,3,25,5,3,3
7,52,2,3,15,32,1
62,3,35,34,1,70,7
60,1,72,76,5,6,43
4,18,14,24,14,1,13
0,90,1,2,2,14,0
13,17,17,1,5,37,1
70,1,52,113,2,30,22
15,9,27,58,4,2,37
2,64,2,4,9,2,4
8,54,5,1,1,46,1
57,5,40,69,13,62,2
57,1,73,58,2,6,30
5,32,6,14,7,2,25
2,96,1,2,9,5,0
19,18,22,31,3,30,1
73,2,53,55,11,53,0
15,4,23,49,3,5,38
2,84,2,4,5,1,22
5,71,3,2,14,24,2
61,6,53,46,1,45,2
60,1,85,111,6,15,17
4,23,7,7,3,1,35
0,94,0,1,5,1,4
22,19,17,28,10,28,0
75,1,49,68,3,64,1
17,4,26,23,4,5,29
2,81,1,1,1,2,27
5,76,5,22,5,11,1
59,5,48,75,20,48,1
62,0,88,53,4,16,7
5,29,7,3,10,1,43
0,104,1,1,1,7,18
22,10,24,51,10,29,1
65,2,62,61,3,56,0
15,29,28,10,8,4,14
2,115,3,0,3,2,30
3,7,4,26,1,23,4
55,1,43,93,14,50,2
63,23,91,27,6,16,2
4,104,7,3,7,1,33
1,20,1,3,1,6,35
20,1,5,87,2,35,4
78,4,54,97,0,53,0
17,90,66,6,19,3,3
2,80,4,1,27,1,37
4,6,2,27,5,20,12
59,1,40,98,4,50,0
63,29,73,29,12,14,0
4,100,15,3,2,1,17
0,11,0,4,12,3,41
20,2,13,78,1,33,4
76,27,61,100,3,66,2
20,116,33,6,8,5,1
2,11,1,1,2,0,22
2,2,5,47,7,29,26
61,31,45,149,3,49,4
70,119,86,5,3,16,1
5,10,8,0,19,2,5
1,0,2,22,3,5,37
19,28,17,114,16,34,16
73,117,70,16,2,63,3
18,9,31,1,4,5,1
3,2,2,26,12,2,20
14,2,5,124,2,17,41
80,70,54,16,3,29,4
39,82,91,2,0,18,1
3,7,7,23,5,2,2
0,1,1,127,7,13,30
41,29,13,17,1,34,27
90,105,60,2,12,29,2
10,10,33,36,1,2,0
2,2,1,142,4,3,4
15,25,2,31,16,27,39
68,100,60,2,2,61,21
19,9,120,17,6,9,3
3,2,6,126,1,1,0
2,5,0,18,2,9,20
55,74,26,1,5,31,37
68,52,69,23,5,51,4
4,3,16,119,12,3,2
1,0,1,16,1,2,1
11,33,11,1,2,33,39
63,94,59,21,8,43,31
24,18,34,111,1,16,1
1,1,2,14,16,2,0
1,1,3,1,1,5,2
46,67,41,36,3,26,37
50,66,97,126,6,59,17
3,6,11,12,3,6,2
0,1,0,2,18,1,2
16,19,36,24,1,17,17
66,88,72,106,2,34,36
17,18,18,15,9,17,3
3,2,2,1,0,1,1
1,3,10,38,12,4,0
51,71,55,108,1,35,25
74,73,34,17,3,51,32
6,3,2,2,8,4,2
2,2,6,17,2,2,0
15,19,61,88,11,19,0
65,86,91,28,2,39,21
16,20,9,3,3,15,36
1,2,2,1,7,1,2
2,2,12,62,2,13,1
55,62,59,93,13,41,13
67,60,40,6,1,29,38
5,4,2,0,5,3,5
1,1,3,18,15,5,1
17,30,39,87,2,27,0
63,95,83,30,6,54,27
21,22,9,2,1,7,23
1,2,0,2,6,1,1
1,1,8,58,17,7,1
52,62,52,91,4,27,4
74,67,72,6,7,50,36
6,6,5,2,1,5,18
2,3,1,19,2,3,3
6,19,20,96,9,14,1
62,84,69,32,1,35,12
49,18,24,3,14,20,31
3,1,1,3,2,1,2
1,3,10,47,1,4,1
29,75,54,85,6,28,1
89,78,37,7,1,58,27
15,6,2,1,7,4,27
0,1,5,18,1,0,1
11,19,37,79,5,22,0
66,90,79,22,20,32,3
23,21,8,2,3,15,44
2,2,2,1,10,1,19
0,2,13,69,2,14,2
53,71,52,113,1,41,2
82,76,50,5,13,38,15
5,4,3,2,3,2,33
1,1,1,32,5,1,3
14,19,38,93,1,18,1
72,88,79,17,0,61,1
24,19,9,1,15,9,27
1,0,2,7,3,3,22
0,5,8,74,13,6,3
49,70,47,76,1,32,1
86,78,65,3,4,58,6
6,8,4,3,15,4,37
2,0,2,41,3,2,15
10,19,33,114,6,15,1
70,87,54,10,1,35,0
28,31,17,0,9,18,16
2,1,2,48,6,2,36
6,1,10,107,2,6,3
57,67,56,11,0,38,0
84,81,44,1,2,57,1
7,6,1,49,15,4,27
0,1,3,132,10,1,32
12,16,37,11,10,16,2
75,96,63,2,1,31,1
28,23,5,47,2,24,2
3,2,0,136,30,2,37
0,1,21,12,5,3,17
50,66,56,2,9,28,2
81,86,43,46,1,66,0
7,6,3,143,1,4,14
0,1,2,14,10,2,38
12,11,37,1,2,19,6
77,97,80,53,10,45,3
31,23,13,175,1,20,1
2,1,1,15,2,1,15
2,4,25,1,0,7,37
46,87,53,50,2,44,3
82,98,21,170,19,79,2
8,6,1,15,2,6,1
1,3,8,1,5,2,35
10,13,48,49,14,7,20
66,92,83,163,2,44,2
29,25,5,14,21,63,1
1,2,1,2,2,4,10
4,1,21,38,4,2,39
57,68,54,150,6,26,5
83,91,20,11,2,87,0
5,6,1,2,8,16,1
2,1,11,51,1,0,25
6,8,62,137,19,9,26
54,84,54,13,18,56,2
52,58,3,1,1,66,0
2,5,2,37,1,6,5
0,1,39,120,2,2,42
29,45,81,12,15,31,22
72,108,12,2,21,81,2
11,7,3,40,13,19,1
2,1,21,126,2,1,16
12,16,58,10,1,4,52
69,93,23,2,9,42,4
31,21,0,34,4,71,0
3,3,11,105,10,6,0
1,0,73,9,1,2,23
46,71,57,1,0,35,30
78,82,2,8,13,76,1
5,6,1,96,6,12,1
2,0,38,75,13,1,3
11,13,79,6,1,13,34
65,93,11,2,5,58,14
28,25,2,35,9,28,2
2,2,25,101,1,2,0
1,2,61,9,7,1,12
50,52,26,1,1,34,39
84,80,3,8,5,86,5
6,5,4,69,16,7,1
2,1,48,75,1,2,1
2,16,85,3,24,13,29
61,86,5,1,2,38,31
62,24,1,32,2,27,2
3,1,14,89,9,2,2
1,0,64,19,2,2,1
24,60,26,1,15,36,30
71,82,2,10,0,78,13
14,8,15,79,2,6,2
2,0,54,45,7,2,1
5,12,69,2,4,25,8
55,77,5,1,13,42,39
60,18,3,53,2,26,10
4,3,40,94,5,1,1
2,6,69,8,12,5,2
26,68,12,1,1,34,22
72,84,2,10,4,74,37
15,6,17,90,0,7,3
0,1,62,35,23,2,1
6,6,30,2,13,18,0
61,65,1,1,9,43,35
62,51,4,52,5,23,18
4,3,57,105,1,1,2
2,1,93,7,12,3,2
29,33,9,1,5,36,11
74,88,1,22,8,76,35
14,12,14,91,2,7,2
1,1,54,21,2,1,2
5,9,32,1,9,20,1
67,68,2,10,5,33,34
55,37,2,100,2,24,40
2,2,50,26,9,3,2
0,0,91,2,2,8,0
28,41,9,5,2,36,1
70,98,2,68,12,76,33
9,14,12,81,1,8,20
2,2,51,5,10,1,1
61,10,33,2,0,10,0
70,84,3,26,1,36,10
55,28,2,92,2,31,47
4,1,42,26,6,2,6
2,2,89,2,11,5,0
20,56,7,4,0,36,0
65,93,0,58,13,68,32
15,7,10,89,4,6,31
1,2,54,6,9,1,2
4,3,34,2,2,13,0
16,88,3,28,2,38,2
27,78,3,91,13,29,42
12,5,46,22,1,2,27
0,2,84,2,14,2,4
18,38,7,3,1,40,1
70,99,1,73,5,79,11
6,15,12,90,17,6,41
0,1,52,5,2,1,6
0,9,34,1,5,4,2
45,88,1,27,0,42,1
49,66,3,94,4,55,19
9,2,43,20,18,4,33
2,2,89,0,1,2,5
22,43,10,15,7,14,1
66,112,0,101,1,61,0
18,8,30,25,2,18,30
0,2,73,1,10,1,21
1,9,22,2,5,1,2
40,90,1,76,15,41,1
24,68,1,91,2,56,6
1,3,47,5,2,4,42
1,2,72,2,13,1,22
58,38,5,25,2,37,1
67,119,3,85,18,72,0
16,9,27,27,1,19,19
0,1,68,1,11,2,35
15,9,17,4,5,15,3
90,92,3,73,7,42,2
85,60,6,93,2,39,0
6,3,52,5,1,3,32
3,0,72,1,6,2,20
25,32,4,22,1,31,2
52,105,2,99,0,80,1
25,7,28,23,6,7,11
2,1,69,1,0,3,42
3,6,15,0,1,7,8
73,83,0,64,7,39,2
46,66,11,106,2,49,1
3,4,53,5,17,4,12
9,2,38,4,1,1,26
8,28,2,45,2,17,4
90,104,7,105,0,51,2
26,9,35,7,2,19,0
2,1,85,1,28,2,32
1,8,9,17,3,9,20
15,87,2,93,3,34,2
104,67,8,29,11,43,1
4,6,40,2,1,2,9
1,0,74,3,5,2,44
28,27,6,66,3,21,11
143,94,3,99,1,53,1
8,13,23,9,15,13,1
1,2,63,3,2,1,24
0,5,18,21,8,7,41
53,67,0,87,2,51,5
39,74,4,27,3,50,1
13,5,58,3,6,4,0
3,0,85,2,3,1,19
54,25,6,65,17,23,30
109,90,2,101,3,57,4
4,16,26,4,3,14,1
2,2,63,2,6,3,8
40,2,19,47,2,17,38
108,69,2,109,8,47,13
7,61,4,7,2,53,1
3,4,59,2,3,4,0
4,1,74,21,18,0,16
65,29,6,92,1,21,35
20,96,1,26,8,73,4
5,16,30,2,1,9,2
19,2,64,8,3,2,0
9,4,22,65,10,12,30
99,57,2,92,2,46,29
23,55,5,6,8,35,1
1,5,53,1,0,3,0
55,2,72,28,6,5,4
57,25,4,92,18,34,40
10,84,2,29,6,63,16
5,15,27,1,14,6,0
28,1,69,2,2,1,1
87,6,23,71,2,9,26
15,70,1,101,1,55,39
2,62,13,4,0,59,5
1,4,61,1,8,4,1
84,2,51,52,1,2,1
122,20,2,113,5,7,29
9,92,4,7,17,47,22
2,18,43,2,1,42,1
18,0,82,18,10,3,1
92,2,10,99,3,2,4
20,69,2,37,2,35,41
1,68,26,3,10,70,13
44,5,72,1,3,9,1
139,0,25,66,10,2,2
20,20,3,102,0,8,20
2,87,7,4,8,37,37
2,16,54,1,6,64,3
73,1,79,51,1,5,0
87,7,5,114,7,2,2
6,80,0,7,2,17,34
1,68,20,2,4,48,24
43,4,64,19,19,18,1
37,2,24,96,3,3,2
2,19,2,35,5,21,4
3,93,8,2,2,15,35
4,17,47,1,1,26,12
29,1,84,63,17,3,2
80,4,5,111,7,6,1
6,77,2,5,7,36,17
2,70,17,1,2,63,37
20,4,57,46,3,10,3
93,2,33,106,11,2,0
20,20,3,9,2,9,2
0,101,2,2,4,57,36
80,12,46,17,2,39,39
51,1,89,87,1,1,3
31,22,7,32,8,6,0
4,81,1,2,11,47,4
0,21,16,2,17,70,39
16,2,57,68,2,9,10
18,1,26,97,9,1,1
53,69,1,8,6,2,0
3,80,10,2,3,17,18
1,7,62,9,8,74,44
45,2,52,99,2,4,6
14,17,3,74,4,2,0
3,92,1,4,12,3,2
1,23,34,2,3,74,33
49,1,80,39,5,51,26
48,2,12,101,3,4,2
25,65,1,8,4,11,1
1,71,17,2,5,68,5
5,6,55,14,1,36,40
93,3,31,87,5,3,12
12,22,0,36,0,12,2
15,92,6,1,2,43,1
3,22,66,0,20,38,30
9,2,99,61,8,58,57
69,4,7,105,13,3,7
23,75,1,5,1,58,1
2,72,17,2,4,44,0
102,5,58,37,13,14,29
52,1,23,98,1,0,22
36,17,3,17,5,60,1
1,94,7,0,2,46,0
8,20,52,14,4,53,2
31,3,88,81,12,5,35
127,1,7,35,1,17,18
6,74,2,2,6,32,2
2,76,22,0,1,122,1
82,4,55,58,1,8,23
97,1,29,97,16,27,39
10,19,1,8,1,34,2
2,94,3,2,19,120,1
4,24,46,16,7,15,0
130,2,91,82,17,30,29
41,0,7,32,4,89,33
2,67,2,3,2,9,3
1,76,19,2,4,1,1
70,5,53,65,1,31,4
143,1,31,96,7,217,42
7,24,3,10,11,18,11
0,99,7,0,2,6,0
50,21,43,37,4,1,0
135,1,76,88,1,105,31
12,2,8,20,8,27,41
1,72,1,2,9,8,5
19,76,18,11,1,2,0
165,5,55,84,8,16,2
10,2,31,39,2,77,25
1,17,3,2,2,35,25
31,94,6,1,1,14,2
121,25,45,63,0,65,1
11,2,84,108,10,44,2
9,2,8,4,20,126,33
20,62,1,1,11,96,21
101,79,13,36,3,21,2
5,6,63,104,1,13,0
1,1,36,10,5,57,18
52,17,3,2,2,3,34
64,86,6,35,4,14,3
34,23,46,101,5,43,1
2,3,85,10,1,34,0
16,1,6,0,8,4,31
48,66,2,33,2,3,20
109,80,14,110,8,92,3
3,5,53,9,2,50,0
0,3,33,2,1,10,7
52,16,2,16,16,2,43
124,91,6,109,2,4,15
4,21,30,23,4,66,1
2,2,90,1,10,52,1
49,1,9,7,2,6,16
79,72,3,81,8,11,37
10,84,13,81,1,96,2
0,7,50,4,10,64,2
4,0,30,0,6,16,0
121,9,3,33,2,26,33
36,79,7,113,9,64,28
3,49,36,11,1,115,3
3,1,79,2,3,5,0
55,0,8,33,11,1,5
90,43,2,112,2,144,41
15,98,16,11,11,55,17
12,11,54,2,1,21,2
29,0,36,33,4,1,1
49,7,2,104,8,23,11
2,75,7,11,3,35,44
0,62,60,0,12,28,7
9,4,81,38,0,3,2
61,2,6,113,1,16,1
37,40,2,12,17,149,24
2,99,11,2,3,58,27
2,11,62,33,5,5,1
24,2,56,112,1,10,1
41,16,2,12,5,9,8
9,90,2,2,11,28,44
3,25,12,31,1,21,24
0,1,66,106,3,79,1
16,2,22,10,0,11,2
74,65,1,1,4,86,13
7,93,68,36,2,8,35
1,7,31,100,1,13,3
10,0,7,11,8,126,0
100,13,1,1,1,98,0
14,88,15,30,3,7,28
1,25,83,94,14,4,28
52,2,11,23,3,43,3
48,1,17,1,0,93,0
43,67,21,7,2,14,3
2,86,18,75,9,1,51
20,5,22,84,21,8,26
35,2,10,6,6,23,2
87,20,32,2,10,123,1
7,104,2,32,2,20,17
2,13,40,91,2,54,32
39,1,61,24,9,64,2
59,7,16,3,2,69,1
12,100,7,9,7,5,0
1,31,134,69,3,2,34
1,1,5,78,5,29,30
33,0,0,4,17,28,1
73,62,102,2,2,42,1
11,85,5,32,13,110,4
7,6,57,90,3,68,44
14,2,58,23,4,29,18
110,14,108,1,14,2,2
4,92,23,4,1,22,1
2,26,9,69,1,26,16
2,2,4,84,8,41,38
81,3,53,5,3,7,4
94,62,9,2,20,2,1
5,84,1,26,18,25,1
4,7,1,89,8,29,16
40,1,100,22,2,50,44
58,7,54,1,9,4,4
11,67,28,9,9,3,1
3,61,34,76,2,12,3
42,4,3,89,14,84,35
58,1,0,7,1,21,15
5,35,71,0,2,2,1
1,98,153,18,17,38,1
2,12,120,85,29,79,22
38,0,4,27,4,25,47
105,13,63,3,0,5,4
5,81,106,4,1,13,0
0,29,5,69,1,110,2
28,1,7,85,27,11,28
135,0,74,6,8,1,31
9,45,42,2,1,25,2
3,91,12,24,3,75,0
12,8,99,91,0,40,1
88,2,12,26,38,4,33
33,3,2,1,17,92,16
2,54,46,4,5,68,3
8,93,163,70,3,43,0
47,6,7,86,3,3,13
100,1,102,5,14,2,38
4,9,126,2,3,27,5
1,99,6,22,3,67,1
42,73,75,83,30,68,1
95,4,76,28,32,9,26
27,2,71,1,1,17,32
1,44,4,5,1,71,2
0,75,16,71,54,20,0
101,5,2,94,6,14,2
44,2,197,6,1,12,37
3,33,23,1,3,70,19
0,58,16,21,1,26,2
39,20,36,86,4,1,0
164,2,41,25,14,27,17
11,0,45,2,48,41,39
44,59,4,10,15,16,4
40,120,7,95,5,7,1
50,5,72,64,25,1,1
6,2,46,4,9,35,35
0,20,24,0,15,71,51
40,83,75,51,3,34,4
73,39,44,106,8,1,2
22,2,7,5,11,77,1
1,3,1,2,13,29,41
5,56,47,27,19,24,26
57,63,28,103,5,2,2
78,5,39,15,21,32,0
6,2,139,1,3,58,14
2,63,23,19,1,63,39
14,69,2,92,0,4,4
41,7,30,29,3,2,1
64,1,131,2,5,42,2
4,2,44,1,20,22,25
3,55,21,71,7,32,36
53,111,1,105,7,2,5
105,7,1,2,36,26,1
4,1,8,2,17,43,2
2,33,180,56,1,86,43
63,99,48,120,1,5,18
103,23,22,8,2,17,1
5,1,2,3,2,70,1
0,0,59,20,27,64,14
2,103,165,97,5,6,44
106,22,18,30,2,1,6
22,2,37,2,1,16,2
2,5,1,0,91,58,1
2,40,18,71,51,14,18
37,100,77,112,5,14,26
49,4,6,4,1,41,3
4,1,19,1,1,60,1
48,9,66,52,64,29,4
38,90,147,118,13,1,41
83,29,27,7,9,39,21
12,1,2,1,24,71,2
1,39,14,19,4,35,1
36,99,40,104,0,5,4
56,73,492,18,2,2,31
17,5,16,1,3,85,15
0,0,54,17,13,43,1
0,31,65,96,3,21,0
55,167,263,38,41,4,25
75,7,13,3,15,56,32
9,1,1,2,4,28,3
4,38,6,69,9,14,0
14,12,86,115,9,2,3
59,38,284,4,4,2,36
33,3,11,2,38,53,17
2,2,21,51,7,62,3
0,115,3,135,16,19,2
47,37,156,10,20,36,9
32,3,25,1,4,35,42
1,1,97,52,2,36,13
1,77,35,127,0,2,1
15,73,8,8,13,1,1
92,11,76,2,61,77,21
21,2,23,24,5,45,32
2,32,31,108,2,62,4
2,76,20,18,13,4,0
67,5,58,1,4,3,5
115,1,59,2,38,28,41
3,39,12,71,1,75,16
1,44,135,80,22,4,1
46,3,7,5,5,1,1
80,6,88,3,31,44,14
32,13,217,19,5,27,41
2,5,24,139,14,18,3
23,56,48,7,32,2,0
76,33,23,1,58,41,1
14,3,308,9,5,12,24
2,1,27,25,1,16,30
1,7,3,52,0,3,2
132,26,29,5,35,5,1
54,19,66,1,119,49,6
4,24,94,29,5,88,47
1,56,35,125,0,31,20
47,10,2,9,0,2,2
94,26,1,2,0,23,1
22,0,154,28,36,68,13
3,0,13,54,34,36,45
0,204,18,22,11,2,5
30,55,20,3,17,27,1
132,4,120,2,12,39,0
4,11,35,91,0,77,24
2,2,37,119,6,5,29
101,171,16,4,48,34,3
17,11,63,2,82,67,0
0,1,138,41,35,48,2
1,34,56,93,2,6,41
76,231,51,17,1,2,23
127,21,3,1,77,7,2
9,1,10,48,27,70,0
1,86,150,122,11,30,9
24,134,46,24,3,4,51
78,8,114,3,3,12,10
48,4,21,11,0,35,3
3,50,47,68,5,69,1
2,16,133,29,42,10,31
36,29,8,3,33,4,32
68,29,118,2,4,32,3
4,48,12,62,26,73,1
1,34,71,91,3,17,1
17,126,68,5,5,2,40
66,6,19,9,16,60,18
28,13,87,37,46,65,1
2,54,49,31,22,14,0
28,38,5,74,2,1,8
71,15,82,6,0,9,42
32,42,32,2,2,38,11
1,280,129,0,111,97,1
2,10,6,76,11,6,1
9,57,63,51,43,7,17
63,12,16,3,8,1,38
54,56,132,1,3,31,4
3,133,27,43,61,52,0
51,4,2,40,5,9,2
51,89,10,2,31,8,36
74,26,3,0,30,4,17
5,72,73,1,6,64,3
2,66,115,118,2,19,0
50,6,46,77,2,1,10
83,86,2,5,2,41,39
23,96,1,1,61,41,6
3,5,4,27,32,54,2
2,18,1,152,17,7,0
69,32,150,8,4,39,20
50,57,106,2,2,36,33
2,13,125,106,3,85,3
1,0,9,135,93,6,0
5,154,1,4,7,8,10
62,44,107,26,4,41,50
69,3,75,31,1,24,12
4,1,70,158,20,22,0
1,24,12,10,3,0,1
61,112,32,5,69,8,23
81,67,16,83,68,40,34
4,5,123,129,56,107,3
0,40,8,5,13,4,2
46,10,83,1,1,2,2
40,81,66,109,0,26,36
17,27,55,62,80,30,24
3,2,54,3,39,20,2
0,99,56,0,20,2,0
68,284,24,59,2,11,12
57,11,224,122,18,18,44
3,49,24,9,88,25,6
1,76,1,1,36,4,1
28,187,70,17,4,22,0
136,6,136,117,2,58,17
12,50,82,6,1,69,48
0,167,29,1,46,8,4
22,18,10,2,25,32,0
35,1,229,14,6,8,3
53,152,53,193,27,94,40
2,25,24,12,55,11,24
5,18,55,11,12,0,1
42,2,6,255,2,22,0
85,44,54,18,7,27,8
5,193,62,1,74,21,42
2,100,52,36,34,4,12
16,1,6,130,26,0,3
96,49,1,29,1,74,1
55,154,95,1,33,114,22
4,24,304,49,28,4,32
10,3,18,51,2,2,4
81,71,22,90,15,25,0
35,10,24,6,38,43,2
2,44,33,0,59,9,44
0,5,12,11,4,0,23
19,53,141,21,18,31,1
53,177,24,29,14,20,1
15,9,3,16,18,66,9
6,6,85,6,29,5,40
2,48,37,54,1,2,9
11,105,47,9,60,18,1
99,28,130,52,18,77,1
6,4,6,10,5,28,11
0,65,1,70,3,7,49
37,32,142,81,63,2,8
81,4,108,5,8,53,1
11,5,10,2,3,54,0
0,2,24,13,3,2,19
13,38,20,96,23,3,56
79,130,114,12,6,30,6
34,15,5,17,2,34,1
3,35,56,40,0,35,0
34,22,151,58,11,3,26
58,200,133,15,17,13,21
82,33,6,3,7,46,2
6,3,2,22,2,53,1
3,123,27,74,90,2,8
3,105,96,94,30,1,39
69,15,73,5,35,25,12
47,0,5,2,1,62,1
2,50,58,2,6,11,1
0,89,9,55,1,22,19
58,12,1,63,11,29,41
113,2,48,3,77,34,3
10,65,148,28,10,14,0
7,143,22,30,4,2,0
61,11,3,52,3,51,32
73,92,14,3,22,30,22
10,127,10,0,52,11,2
2,15,172,10,30,0,0
30,1,17,108,29,32,5
87,0,73,5,1,69,56
42,74,35,19,6,6,17
4,111,2,81,90,1,3
13,9,8,25,16,10,1
130,89,40,3,5,5,28
22,9,90,4,46,22,49
3,3,225,1,3,14,4
25,107,9,53,1,5,1
18,75,4,196,16,20,1
31,6,9,5,5,63,32
1,1,40,116,12,23,19
1,21,229,42,76,2,2
33,20,33,51,63,6,1
122,8,3,1,5,58,10
6,25,94,0,0,50,41
1,79,9,61,41,5,6
2,44,51,165,12,2,2
99,1,83,12,41,30,2
18,3,60,1,5,17,38
0,154,68,88,89,36,39
2,85,85,164,6,2,3
38,4,21,4,46,3,1
72,1,2,2,15,48,0
19,160,61,20,61,101,31
1,56,58,73,4,50,29
1,4,200,187,8,3,2
35,48,7,5,8,40,1
72,28,33,102,19,31,6
7,98,49,177,24,16,40
3,12,34,10,6,4,12
75,6,47,1,14,16,0
64,1,13,41,7,43,0
3,70,25,240,2,18,17
0,32,7,14,5,2,31
14,11,31,6,1,28,3
70,1,13,95,2,83,1
40,127,13,121,137,64,1
2,46,58,8,20,4,39
0,1,4,1,9,1,29
31,13,0,2,7,68,3
87,168,31,70,1,115,1
18,93,97,109,56,4,5
1,5,62,2,25,1,38
7,2,101,3,10,89,14
117,97,15,133,20,117,1
23,232,3,116,6,9,2
2,25,10,4,2,3,16
9,8,14,9,11,42,34
45,130,122,351,9,12,4
85,181,21,49,16,45,1
4,7,87,2,7,2,1
0,0,8,1,3,8,35
24,15,2,1,48,88,21
18,107,7,82,40,94,3
55,5,16,49,7,12,0
3,1,18,4,4,2,5
3,61,61,20,1,5,31
110,147,18,4,4,86,14
34,23,39,40,17,36,2
3,0,3,23,1,1,0
2,101,12,2,19,0,23
46,156,130,18,64,57,38
82,16,56,18,14,114,3
13,3,2,27,8,6,0
3,67,2,3,3,8,1
9,194,41,0,2,9,29
51,16,100,89,7,72,29
36,3,13,40,12,126,2
2,38,0,3,3,3,2
74,8,44,62,3,43,3
76,1,33,13,55,70,31
35,1,10,102,58,34,11
3,46,17,9,11,2,2
2,13,65,3,0,40,0
26,28,10,19,3,94,21
71,4,103,71,76,74,33
27,5,3,8,58,4,3
2,147,45,0,7,0,0
3,92,13,150,5,2,1
103,5,4,79,1,114,31
39,37,33,18,1,26,25
3,73,85,1,17,3,1
2,165,10,108,82,4,2
23,54,72,152,14,69,13
74,3,20,15,6,70,49
11,158,1,1,3,7,7
2,226,62,0,3,0,1
4,6,56,92,2,21,1
72,2,26,199,28,89,18
31,9,39,6,4,19,36
4,124,20,0,6,1,4
0,25,8,16,9,15,1
25,21,9,71,22,64,0
73,44,10,13,5,81,37
32,46,18,3,5,5,32
3,21,210,11,30,19,1
15,52,9,11,35,73,1
81,59,0,18,7,41,6
27,56,25,3,2,4,39
2,2,35,7,1,7,14
1,2,85,61,4,1,2
1,56,35,13,7,85,2
88,156,29,1,10,61,14
69,5,68,56,5,4,37
5,3,4,96,2,3,5
7,18,0,101,88,24,1
64,121,0,2,21,92,0
45,17,92,46,5,15,30
3,3,142,292,2,2,27
1,1,46,45,13,16,3
29,85,27,4,34,46,1
75,87,19,2,4,11,1
13,6,8,16,2,1,23
1,1,36,110,42,24,23
3,7,25,16,44,162,1
93,129,15,3,8,12,0
64,144,4,1,2,1,15
5,5,21,81,22,38,30
2,1,57,57,4,50,4
32,1,83,4,19,67,0
94,107,31,2,30,4,1
21,17,4,63,36,0,31
1,2,5,107,2,58,27
8,48,127,3,17,108,2
64,163,6,2,2,6,2
52,21,121,37,0,2,4
4,0,5,290,5,45,37
1,92,3,19,78,60,18
32,215,169,3,48,15,1
86,18,10,13,3,8,1
14,2,1,170,0,76,19
2,57,79,22,1,45,35
7,46,11,2,8,18,3
78,8,9,18,17,1,1
64,1,53,219,13,1,0
5,8,14,27,80,0,31
2,10,106,3,5,99,26
24,154,9,41,1,20,2
84,10,0,141,44,1,1
14,92,32,9,4,2,4
2,9,24,2,8,57,36
0,39,72,14,1,44,16
73,10,5,149,8,6,1
108,1,55,34,29,5,0
3,38,15,3,4,8,20
1,130,18,62,28,29,48
55,26,10,146,5,38,4
96,0,10,66,19,3,1
8,79,37,4,3,2,1
2,204,133,31,17,63,30
4,15,6,161,25,122,22
83,11,2,34,24,6,1
56,18,5,2,3,1,0
5,42,66,45,1,49,11
0,16,39,260,7,57,65
34,16,61,36,25,22,11
94,129,76,2,44,13,1
17,118,6,2,12,27,1
1,4,2,31,1,34,29
17,1,42,102,16,48,29
65,157,65,11,10,4,1
30,79,21,0,0,8,1
3,7,67,139,19,68,3
13,1,4,90,68,53,39
75,40,109,5,8,4,17
86,68,24,2,22,2,1
6,69,27,148,3,9,1
2,4,35,90,16,106,16
19,2,10,10,1,19,36
85,136,76,1,10,27,4
19,23,22,53,38,13,1
1,3,18,67,2,87,1
5,8,5,4,3,37,39
56,28,91,0,35,2,38
43,130,70,56,14,47,3
3,16,85,153,5,19,1
0,2,11,24,8,45,0
36,40,2,1,2,3,37
70,17,43,1,32,5,24
16,14,65,54,11,1,2
1,18,35,109,1,16,1
3,4,2,4,3,27,13
69,125,60,53,3,3,35
67,11,76,125,12,30,4
5,15,93,10,38,25,1
0,13,55,2,19,29,1
21,51,8,11,4,2,20
77,18,7,65,4,32,16
19,3,25,87,42,25,2
1,3,31,9,23,62,0
5,83,67,7,5,8,4
56,74,58,102,0,0,38
64,31,5,158,13,153,14
3,1,2,6,29,39,2
1,87,2,3,33,4,0
30,122,72,13,3,1,15
74,12,46,79,5,12,42
12,13,29,43,2,79,4
0,96,145,2,3,32,1
29,166,10,151,26,3,0
76,4,57,80,8,0,29
33,10,16,9,1,19,29
3,94,38,3,17,71,3
0,106,10,1,3,7,1
47,8,124,25,1,4,2
92,3,14,163,0,2,36
9,139,2,27,112,28,16
2,124,14,1,46,49,0
4,3,30,0,46,3,2
62,27,41,117,3,14,15
67,134,107,17,22,49,45
5,62,10,3,5,4,5
0,4,83,26,1,22,2
24,2,12,95,0,3,0
68,3,0,20,1,28,32
16,36,6,1,49,43,30
1,18,41,14,17,69,2
8,0,99,73,15,5,0
63,38,4,104,2,6,5
68,117,2,3,11,95,38
4,21,62,2,18,68,21
2,2,54,34,3,37,1
33,2,47,110,8,2,1
93,99,16,5,4,17,11
16,106,1,13,4,56,37
2,10,0,29,19,14,3
3,9,39,90,16,1,0
63,12,39,7,2,3,1
76,7,68,2,0,18,35
7,9,137,13,38,44,30
1,3,16,90,9,15,2
24,59,1,78,2,3,0
60,75,12,4,13,26,3
14,5,101,10,5,67,37
2,1,12,90,25,6,21
5,0,55,69,3,3,2
66,110,141,3,1,14,0
77,154,33,1,2,60,10
5,4,3,39,46,92,40
1,1,22,194,22,8,4
21,3,76,7,4,1,0
69,32,88,1,4,43,0
21,142,78,51,2,49,23
2,4,11,73,19,22,34
3,4,4,19,17,18,3
63,43,18,1,6,15,1
77,134,29,20,13,77,0
6,4,9,200,3,34,50
2,1,77,17,5,2,26
33,141,100,2,9,32,3
84,65,11,16,2,100,0
15,4,0,77,5,7,17
0,18,59,110,13,2,35
4,84,76,3,58,0,3
61,110,54,1,7,84,1
73,9,143,64,14,55,1
4,0,24,112,1,8,28
2,90,34,5,19,2,38
22,102,13,3,47,35,4
81,5,90,50,5,25,1
25,14,8,60,0,78,2
2,2,155,27,20,4,38
2,2,5,2,10,6,20
57,41,47,23,7,50,0
73,15,50,147,13,58,0
5,30,23,37,6,4,8
2,109,14,3,3,8,31
9,9,11,102,3,6,14
72,2,49,126,49,81,0
57,1,18,6,36,63,1
3,98,180,0,7,4,29
1,203,6,17,16,0,27
43,6,8,95,1,51,2
88,2,7,39,0,74,0
11,37,48,3,9,20,3
2,105,35,1,6,3,34
12,25,12,99,36,25,14
71,5,5,60,34,70,1
25,10,54,8,2,45,0
3,53,88,1,2,2,15
3,69,5,14,5,1,37
54,13,8,180,46,47,5
69,21,4,15,11,101,1
4,28,26,2,2,4,2
0,43,19,23,1,1,26
16,2,7,237,30,36,31
76,1,69,27,10,98,3
16,142,103,1,12,12,1
1,25,26,48,4,0,0
9,3,5,135,5,44,35
57,12,42,21,17,80,16
73,32,60,2,4,21,0
5,14,67,24,3,2,1
0,3,4,95,2,1,18
14,0,2,30,1,31,45
64,29,90,3,27,101,6
24,112,51,0,28,4,2
2,7,2,124,2,1,0
3,1,0,110,2,25,32
50,1,24,4,4,79,34
72,134,94,1,80,17,3
4,153,52,54,18,1,0
2,3,2,70,18,7,1
15,17,21,10,2,47,37
74,108,37,12,34,49,23
28,41,3,68,18,2,1
1,2,7,129,26,2,0
0,57,9,4,2,35,10
50,8,15,3,3,68,41
78,44,98,44,16,15,5
5,32,11,129,9,3,2
2,18,5,10,3,20,1
11,105,39,3,27,52,20
62,31,46,44,38,37,21
25,5,88,246,3,2,2
1,1,6,9,7,7,1
1,121,11,2,3,40,1
49,137,14,4,14,88,38
84,3,9,206,8,12,21
7,44,88,50,11,2,2
1,144,6,3,32,31,1
11,8,26,12,8,100,15
68,0,28,120,2,10,40
23,7,30,34,20,2,5
0,49,7,1,3,46,1
1,136,1,33,36,57,0
64,14,24,52,14,17,21
93,1,35,157,17,1,33
6,1,9,7,2,7,4
3,113,2,2,2,43,0
9,129,9,28,5,74,1
70,5,21,105,11,4,42
62,1,28,3,11,2,22
3,34,23,23,6,39,2
2,64,2,109,13,57,1
37,5,5,86,2,15,10
88,12,15,6,3,2,38
11,71,3,1,0,12,8
2,117,32,96,19,29,1
16,4,3,124,16,39,0
84,1,29,8,10,1,20
34,36,44,2,18,9,31
3,119,3,15,13,42,3
3,20,5,39,6,74,0
51,1,8,217,3,10,1
87,122,18,8,1,1,36
7,108,14,47,16,25,21
0,14,14,52,35,62,1
12,0,7,26,15,16,1
72,47,19,1,4,2,15
27,133,6,0,26,17,42
1,44,9,8,6,23,4
1,5,1,238,12,58,0
53,33,5,19,1,3,1
85,87,3,3,16,8,34
6,18,11,36,10,36,42
1,0,21,21,20,80,4
8,109,1,23,3,12,0
70,19,22,2,2,3,1
74,50,4,31,32,21,33
4,5,37,72,1,53,18
1,79,2,38,35,23,1
26,113,9,2,37,3,0
72,2,5,1,6,15,7
12,1,8,65,2,45,42
1,17,18,124,0,27,9
11,30,2,3,28,3,2
59,56,2,14,3,3,1
18,7,0,192,15,33,15
2,49,1,46,5,69,57
6,3,0,2,4,8,7
59,34,3,2,3,1,1
81,13,1,32,20,17,1
7,42,1,224,11,28,16
1,194,30,21,26,38,35
8,45,20,4,15,1,3
55,2,2,53,1,8,1
52,22,1,143,2,24,1
3,106,2,18,18,81,36
0,62,23,1,2,9,21
18,3,8,51,1,2,1
68,1,2,157,6,8,2
15,43,5,12,21,40,4
2,343,12,1,3,58,36
5,27,11,26,9,5,19
65,1,27,96,69,1,3
72,0,8,26,8,30,1
5,61,2,1,32,48,26
2,19,7,5,6,12,30
25,81,10,96,7,1,1
69,32,29,171,2,11,0
15,7,2,5,13,47,2
2,4,2,2,11,35,34
2,27,17,48,6,4,20
55,89,10,72,7,4,1
71,52,9,11,2,39,0
6,4,5,2,7,73,5
2,33,1,81,40,10,32
22,29,1,101,29,3,15
79,12,1,6,9,26,0
15,43,0,0,1,53,1
1,45,0,18,31,16,33
9,119,89,123,13,2,40
60,4,21,20,13,19,2
52,82,19,1,2,47,1
3,207,2,8,18,33,0
1,21,0,121,22,2,31
32,3,2,32,16,4,17
91,140,13,2,2,36,1
17,33,8,84,1,78,0
0,13,31,130,47,11,12
7,230,1,47,34,0,43
67,10,50,3,5,28,6
64,27,39,1,2,40,1
5,116,33,110,13,21,1
0,173,29,94,10,2,20
26,24,5,5,36,9,25
88,3,3,0,28,35,2
17,41,79,130,8,62,1
1,226,6,152,6,5,2
5,50,20,8,1,1,30
72,4,22,2,15,18,21
73,1,4,59,2,63,1
5,80,2,161,5,18,2
1,94,2,14,35,1,8
20,156,20,2,22,10,45
90,7,20,0,3,42,10
18,28,1,148,19,48,0
2,118,1,103,9,3,0
3,15,3,3,6,2,20
71,27,6,16,20,34,33
53,52,4,135,6,63,3
3,10,1,12,1,7,0
1,30,1,2,21,1,2
31,9,8,46,5,21,30
99,131,15,130,5,48,15
24,80,8,14,1,43,1
1,5,2,1,21,2,1
3,11,1,31,18,1,10
72,200,4,7,3,38,42
77,33,31,73,27,77,8
6,9,41,27,27,11,2
2,0,2,27,17,0,1
23,7,2,73,2,24,24
90,144,10,63,10,42,37
20,25,35,3,4,23,4
0,47,5,2,14,3,0
4,2,1,47,8,9,1
66,65,0,143,4,42,34
70,110,3,7,29,76,18
4,3,13,3,2,4,1
1,153,7,18,63,1,1
26,61,0,134,10,19,9
100,5,1,14,1,63,43
12,7,5,2,0,30,11
0,251,27,33,15,3,1
18,10,6,111,45,10,0
73,69,2,12,3,40,31
19,5,1,14,23,53,49
2,2,2,67,4,3,5
4,176,9,107,1,1,1
57,105,12,4,51,36,1
64,11,2,1,5,69,32
4,1,0,41,17,11,25
2,231,0,103,1,0,4
21,21,10,11,5,15,0
67,2,7,0,3,38,7
14,122,1,30,19,20,41
1,103,0,109,2,3,13
10,17,0,10,42,12,1
69,2,11,9,16,46,1
38,0,4,131,3,49,25
2,77,1,126,13,3,35
2,114,0,6,0,3,3
38,9,1,2,41,26,0
79,1,2,41,6,66,1
10,88,13,128,2,11,30
1,151,1,18,13,1,27
17,6,0,2,1,10,2
59,2,2,13,21,25,2
15,81,10,120,38,23,9
2,69,3,40,18,0,45
3,4,1,3,2,3,11
33,0,1,24,11,34,1
50,77,8,146,17,79,1
5,141,30,16,24,7,29
1,86,9,2,3,2,39
27,5,2,32,12,13,5
57,1,0,118,46,40,1
14,18,1,19,2,26,1
3,128,12,3,1,3,33
1,8,5,135,1,2,29
42,2,1,113,0,41,3
60,32,1,6,17,78,0
5,110,4,2,2,4,3
2,8,18,26,22,1,52
19,1,7,137,11,20,21
59,5,0,20,39,50,3
17,92,2,1,3,26,0
2,145,16,10,4,3,22
4,5,16,116,2,3,36
46,1,4,25,3,35,4
67,91,2,1,13,83,1
4,58,3,38,21,7,0
0,4,15,98,15,2,31
18,0,11,35,3,16,20
62,8,1,2,14,38,2
20,140,1,1,19,26,1
1,24,1,103,7,3,12
0,12,13,101,0,8,50
48,2,17,2,23,38,7
74,46,1,18,23,72,0
4,67,2,201,2,6,0
1,5,0,52,28,1,17
22,1,10,1,14,22,19
80,14,7,3,20,66,2
22,104,2,101,2,30,1
1,13,1,101,17,3,1
2,2,0,3,2,5,29
56,24,14,2,14,32,17
76,122,7,104,11,71,2
6,13,2,84,1,6,2
2,2,1,5,2,2,10
12,38,1,2,2,8,41
79,82,12,75,33,37,6
25,13,8,132,19,48,1
0,2,2,11,18,2,0
0,2,1,2,7,3,19
55,39,1,60,29,26,36
84,99,24,101,9,57,2
6,6,8,17,23,12,0
1,2,2,3,10,2,1
13,12,0,93,1,14,39
74,108,3,101,13,42,26
29,15,12,6,3,26,2
3,1,1,1,46,3,1
1,37,1,13,4,1,8
62,93,0,69,4,26,39
83,17,0,79,21,82,11
5,1,8,6,4,8,1
1,3,16,3,3,1,1
17,125,3,74,0,24,21
87,35,2,96,6,39,40
26,1,2,6,14,25,3
3,1,11,1,4,1,1
0,38,3,16,18,4,1
60,126,0,89,19,35,28
90,6,0,38,17,74,14
7,0,2,3,2,6,2
1,41,15,1,1,0,0
15,97,6,67,1,6,7
83,32,2,116,13,30,36
27,3,0,5,18,60,17
1,11,2,4,1,4,2
2,85,14,40,5,1,0
65,35,2,114,1,29,17
78,6,1,10,5,56,35
6,2,8,1,45,13,3
1,19,19,53,15,0,1
14,139,19,122,2,13,0
85,3,8,9,4,41,31
28,5,2,1,22,27,33
1,89,1,33,3,2,3
1,37,2,67,25,3,0
51,3,12,39,4,37,4
89,0,2,2,5,79,42
7,9,2,5,25,7,14
2,103,1,86,2,1,1
10,127,6,82,32,11,1
78,4,14,4,6,43,16
31,11,2,1,33,28,38
2,107,2,19,10,2,3
0,61,2,96,1,5,2
48,3,1,37,0,30,5
79,27,37,3,14,71,48
5,126,7,0,32,7,20
1,31,2,81,3,2,2
9,3,0,80,13,9,1
57,0,4,7,6,45,11
50,90,13,2,25,55,54
3,157,3,21,35,3,8
2,8,0,94,2,1,0
35,5,2,33,0,27,1
79,3,31,3,3,55,16
13,93,31,1,23,14,34
2,43,5,68,4,1,4
11,2,1,110,14,14,0
56,0,5,5,1,49,2
24,127,6,1,2,30,30
3,69,17,54,43,3,27
1,4,3,108,20,6,2
38,0,1,8,1,38,1
77,26,0,3,2,74,9
7,103,10,6,11,6,39
0,15,12,96,24,2,12
7,2,1,80,4,18,1
52,42,0,5,20,40,1
35,126,11,0,15,27,17
3,13,36,44,10,3,30
1,1,7,92,3,2,5
28,51,1,16,15,38,1
70,105,1,1,4,86,1
13,7,1,22,32,8,31
1,2,18,87,6,1,25
10,1,5,33,10,15,2
54,128,0,2,3,36,0
23,26,2,2,23,27,1
1,2,0,68,11,2,36
1,2,9,105,10,1,9
45,70,23,5,2,28,1
84,108,4,2,15,76,1
6,4,1,36,26,8,17
2,1,5,99,4,2,53
6,36,14,18,4,11,7
53,150,3,0,3,33,1
51,6,1,17,1,26,1
3,0,1,89,20,2,16
2,16,3,37,17,5,36
25,100,15,1,21,31,5
74,21,3,2,1,69,1
14,1,1,62,56,7,1
1,28,0,116,14,2,37
11,52,6,5,4,9,29
71,34,20,3,1,34,3
25,2,4,39,9,48,0
1,0,0,101,48,2,4
1,59,1,10,7,1,39
43,73,4,2,11,12,14
76,12,6,40,9,49,1
6,1,12,98,12,17,2
2,15,7,18,12,2,18
7,94,1,1,17,7,39
70,23,6,13,17,37,4
66,2,25,80,17,49,0
3,5,5,36,1,2,0
2,82,3,2,2,0,30
26,58,0,1,48,27,25
79,6,3,54,5,46,2
15,2,47,106,38,14,1
1,47,3,4,5,1,21
4,81,3,2,35,11,62
61,38,0,56,11,34,13
65,3,6,72,10,34,1
5,18,37,20,36,2,0
0,132,9,2,14,2,26
22,26,2,25,1,32,25
82,2,1,75,25,74,3
19,11,7,55,11,9,2
0,116,16,3,3,1,3
1,24,4,2,14,6,45
60,1,1,48,2,41,15
65,1,0,95,18,61,2
4,122,7,10,40,4,0
0,49,26,3,7,1,12
29,2,7,28,1,21,40
92,0,1,85,10,52,3
21,17,2,18,7,21,1
1,157,7,1,3,2,0
6,9,32,8,11,11,30
59,1,11,73,10,41,17
68,30,1,65,14,35,2
5,128,1,4,3,2,0
1,13,10,0,4,7,6
24,2,7,45,2,44,40
82,15,1,102,2,72,18
15,115,0,9,15,8,1
0,15,0,2,8,2,0
4,3,16,14,5,8,19
58,25,24,82,1,37,42
63,116,3,45,0,60,4
5,11,2,4,12,4,1
2,0,0,2,22,1,1
19,24,12,67,2,22,29
70,119,16,133,3,43,35
16,13,4,7,11,17,2
0,1,2,2,22,0,0
4,27,4,21,3,7,2
71,109,24,165,12,36,42
73,16,14,19,10,60,19
5,0,1,3,5,4,2
0,37,0,29,3,2,0
23,124,17,158,18,13,18
68,13,38,17,9,57,46
17,2,4,1,32,22,4
1,21,0,33,11,1,2
4,104,2,151,1,11,0
61,9,19,17,4,43,26
66,1,15,2,0,36,28
4,2,2,32,14,3,2
1,76,0,139,16,2,1
20,72,3,15,5,35,4
69,6,24,2,2,67,40
19,2,11,48,3,8,19
2,17,1,154,11,0,1
1,86,0,15,3,6,1
49,19,3,1,2,35,15
58,1,26,32,3,60,36
4,54,13,146,0,4,4
2,68,1,15,20,0,1
24,49,0,1,5,22,0
68,2,18,36,6,42,17
17,0,37,134,3,17,28
1,46,3,15,0,2,3
3,95,0,2,9,9,0
49,10,2,36,11,36,3
64,1,18,110,8,48,34
5,21,11,11,4,5,15
1,69,1,2,1,1,2
16,32,1,48,20,14,0
66,3,2,98,3,44,16
17,11,20,24,19,19,45
1,85,8,2,3,1,5
5,44,1,8,1,7,1
59,2,1,72,1,32,0
64,2,13,80,20,60,19
4,44,24,6,17,4,31
1,97,3,2,2,1,2
12,10,0,34,7,23,2
63,1,0,76,22,39,3
23,14,26,20,2,19,34
2,93,24,2,9,1,16
0,28,2,10,3,3,2
58,3,1,79,4,37,0
86,1,0,60,24,77,14
7,82,17,5,1,7,40
2,93,8,4,4,2,4
16,6,2,30,1,14,2
64,1,2,85,1,35,1
18,17,2,7,16,18,22
2,117,25,2,11,2,34
3,15,10,8,8,7,3
51,1,0,56,2,35,1
67,28,2,72,12,64,4
6,154,9,6,3,5,36
2,28,29,1,14,1,18
17,2,5,25,8,19,0
69,12,0,59,2,39,1
21,123,1,15,11,20,5
3,17,9,2,4,1,36
2,2,17,16,16,13,11
45,20,4,67,1,46,0
71,140,0,42,0,45,1
6,18,0,4,17,3,27
1,2,21,2,6,2,27
27,18,34,38,11,27,1
73,129,5,81,1,58,2
22,20,0,10,13,10,3
3,3,0,2,15,0,42
2,18,10,25,23,22,18
50,129,16,67,1,39,1
77,16,2,20,1,24,1
6,2,1,1,5,2,14
1,14,1,13,1,2,44
18,143,18,57,24,30,7
68,18,8,48,2,68,0
22,1,2,3,2,7,2
3,16,0,3,10,2,22
1,122,7,46,6,8,24
49,17,32,87,18,39,1
76,2,9,11,0,45,1
4,11,3,2,4,2,5
1,119,1,19,10,1,39
18,16,2,73,6,30,16
70,2,18,26,2,56,2
26,15,7,2,0,9,1
1,124,1,1,14,2,14
2,16,1,52,8,6,44
48,1,2,87,6,39,5
76,13,22,6,8,70,0
5,116,6,1,3,5,2
1,14,0,21,2,2,27
11,1,2,90,9,9,34
73,16,0,29,1,42,2
30,105,22,1,9,54,1
3,18,25,0,1,4,2
0,3,3,90,0,2,36
49,8,1,132,3,28,22
81,95,5,5,3,59,1
7,54,31,0,35,11,1
1,4,6,66,2,2,22
8,0,1,157,1,19,53
63,45,1,10,2,46,8
52,105,7,1,7,26,1
2,7,31,71,21,2,2
2,2,9,167,4,8,25
30,12,2,9,1,32,35
81,100,1,0,6,66,2
12,15,7,18,3,5,1
2,1,29,143,17,2,4
9,12,7,22,2,17,39
64,95,2,3,0,41,23
53,30,0,15,7,25,1
4,2,20,134,3,2,1
1,0,41,20,17,9,11
25,64,4,2,2,36,41
83,88,1,20,0,74,5
13,6,1,145,10,6,1
1,1,15,22,17,1,0
9,12,29,2,3,13,22
59,79,3,16,1,42,41
49,25,1,130,8,24,3
4,2,1,20,15,3,1
2,1,24,3,12,8,3
34,65,14,16,3,38,38
80,84,1,138,1,72,19
14,5,0,23,6,7,2
1,2,10,2,12,2,0
11,17,36,19,13,11,10
68,86,5,139,1,42,37
29,38,0,24,1,26,6
2,4,1,2,12,4,1
1,2,17,16,8,4,2
45,81,28,139,17,27,26
79,110,2,20,1,71,37
5,4,1,3,2,6,4
1,1,1,18,11,2,0
11,51,24,127,12,12,5
66,121,14,20,5,38,48
29,8,1,2,0,34,26
2,1,1,19,13,1,2
1,9,5,110,8,3,1
45,110,29,16,18,35,8
83,45,7,1,4,75,44
8,4,3,20,1,8,17
2,2,0,124,9,2,0
9,77,6,20,1,16,1
56,123,50,3,12,46,19
39,5,21,13,2,25,31
4,1,2,82,2,2,4
1,42,1,30,24,6,0
30,139,13,2,5,43,1
70,9,25,3,6,78,39
15,1,2,58,2,8,19
1,6,0,99,2,1,2
6,109,1,7,19,7,0
59,49,23,0,18,41,18
58,3,19,15,6,68,32
3,1,3,79,1,5,4
1,80,0,32,2,2,2
24,134,0,3,6,23,2
77,6,17,3,1,53,21
16,0,17,49,10,12,33
2,39,2,87,3,2,3
8,140,0,6,4,16,1
58,12,9,0,24,45,0
53,1,36,16,7,27,37
3,35,5,57,9,1,21
0,131,1,23,2,8,3
24,10,1,2,3,48,0
80,1,20,11,6,81,9
15,41,22,77,2,8,44
2,123,3,66,12,0,10
7,9,0,4,1,24,2
66,2,2,1,8,41,1
64,6,23,29,22,29,18
5,99,16,73,6,2,39
1,76,2,14,5,6,5
23,5,1,1,2,37,0
67,1,9,13,6,72,2
13,41,37,61,13,7,38
0,109,17,28,5,1,22
14,10,2,2,4,14,2
67,1,1,3,0,44,1
37,37,12,48,7,32,9
1,105,26,89,6,3,42
1,9,3,7,1,7,11
38,3,0,2,14,38,2
90,6,0,14,2,70,0
9,95,17,60,0,8,24
2,83,15,31,12,0,43
8,4,1,2,9,17,4
47,0,1,1,10,42,1
55,33,5,48,0,33,1
2,123,23,75,8,2,31
0,11,6,6,4,7,16
8,0,1,0,5,35,1
35,35,0,26,15,71,1
47,114,2,83,0,7,12
3,10,26,31,1,2,45
0,1,8,3,12,11,7
49,25,1,1,21,33,2
85,104,2,44,1,31,0
8,11,1,83,11,3,22
1,2,15,8,5,5,38
3,24,11,2,13,34,3
52,115,1,14,11,76,1
54,9,2,70,2,7,0
4,0,8,35,8,1,39
2,5,27,3,7,14,25
17,88,5,1,4,44,2
68,77,2,54,8,35,2
12,6,3,102,2,3,4
2,2,15,4,4,9,47
5,23,43,1,10,33,18
57,96,7,30,3,71,1
56,18,2,99,9,8,0
4,1,0,20,1,1,16
1,3,22,2,3,16,40
24,94,15,16,15,43,4
75,71,2,94,3,31,1
17,5,1,43,9,2,1
2,1,1,4,1,7,35
2,29,24,1,3,34,20
23,109,9,63,11,67,2
56,10,1,121,10,6,0
6,2,1,6,8,1,6
2,26,1,1,2,14,37
25,109,21,42,7,45,11
57,11,12,131,11,36,2
10,0,2,13,21,3,0
1,25,1,3,2,11,26
3,104,9,33,2,42,37
93,9,33,125,9,58,4
54,2,5,12,6,5,2
4,3,2,3,22,2,1
1,90,0,35,6,25,38
2,95,10,138,1,50,25
63,5,26,14,6,16,2
53,2,4,2,9,2,0
2,30,0,27,22,14,10
0,109,1,132,2,44,51
18,10,32,14,1,34,6
62,1,41,1,8,2,1
12,27,3,31,4,7,0
2,103,1,129,16,40,25
8,9,2,13,3,70,38
60,1,24,0,2,9,3
42,5,11,42,8,2,1
1,94,1,123,5,16,0
1,96,2,12,14,50,38
16,8,8,2,3,29,24
62,2,29,31,5,3,2
5,24,5,120,26,4,1
50,112,1,12,4,36,10
4,11,1,0,17,68,51
13,1,23,32,2,9,9
47,32,22,109,1,1,3
3,98,7,12,9,12,1
5,22,1,1,5,31,17
78,2,0,25,12,32,36
58,2,18,108,2,2,5
4,81,21,15,0,5,0
0,87,1,3,33,32,2
18,7,1,27,8,70,39
65,0,1,94,11,9,26
33,16,18,23,1,3,2
2,119,25,2,5,13,1
4,16,2,6,15,31,6
54,2,0,74,9,41,39
59,25,6,75,3,1,13
7,107,31,6,1,3,1
2,12,6,2,7,32,0
1,1,1,31,12,69,28
114,20,1,90,11,10,30
54,122,8,22,3,0,2
4,12,30,3,1,18,1
2,0,6,2,13,32,2
33,16,2,67,4,20,35
98,110,0,80,11,2,24
12,14,7,4,1,10,2
2,1,26,2,6,27,0
33,25,3,26,21,31,6
86,133,0,84,3,3,52
49,11,1,20,9,10,19
3,1,11,3,2,42,1
2,22,36,8,2,47,0
78,114,4,83,12,3,19
98,13,1,82,2,0,34
13,1,1,6,4,27,3
3,11,13,2,1,40,0
23,109,20,23,3,20,1
97,13,1,82,25,2,23
7,2,1,22,6,11,30
1,12,3,2,29,37,4
3,103,20,3,1,42,1
44,13,11,50,3,3,4
107,2,1,76,7,2,40
5,18,1,6,2,27,16
1,106,1,2,6,50,2
1,10,25,27,1,7,1
20,0,7,80,0,1,23
40,23,1,20,10,15,37
3,105,1,1,2,31,4
10,11,7,4,7,35,1
54,2,25,63,2,4,1
18,17,7,82,2,2,35
0,91,2,6,10,19,26
1,21,1,1,2,62,2
60,2,3,20,9,10,0
68,2,32,74,1,3,9
9,70,7,22,1,19,46
0,91,2,2,7,40,18
1,7,1,8,7,23,1
135,1,5,67,17,3,1
24,21,25,89,1,1,10
2,113,5,7,1,28,49
1,15,2,2,14,46,7
32,0,0,21,3,3,2
140,15,5,75,9,1,0
13,120,25,25,3,14,32
0,18,20,3,1,43,27
0,1,2,2,12,18,1
66,18,1,63,2,3,1
29,126,11,91,5,5,5
4,17,20,5,2,31,41
15,2,1,0,1,62,12
110,15,1,19,20,4,2
21,118,1,78,3,1,1
2,15,20,25,7,25,19
40,2,12,2,1,27,22
40,15,1,4,1,20,2
57,128,1,61,10,1,1
4,16,3,87,7,21,0
1,2,31,6,22,22,31
24,18,12,2,1,40,30
69,123,2,17,5,3,3
13,17,1,75,6,4,1
14,1,20,27,2,40,4
25,14,24,3,9,50,41
10,132,4,4,2,8,16
4,15,0,67,1,0,2
1,1,1,93,7,4,1
0,8,22,6,10,34,21
54,122,12,2,12,61,33
80,47,1,19,2,4,4
4,3,1,82,13,0,1
12,0,5,27,8,17,0
3,93,26,2,16,31,24
40,111,7,4,3,20,20
43,4,2,63,1,2,2
4,1,0,95,0,12,0
2,49,5,7,5,38,6
34,127,29,1,36,41,41
92,8,5,17,5,2,11
6,2,1,74,1,3,1
2,13,1,24,24,21,1
4,118,4,3,12,48,20
42,15,12,6,12,13,33
52,1,5,65,0,3,5
3,5,2,97,1,14,1
4,85,0,6,15,35,1
16,85,3,1,15,25,32
75,6,25,15,5,2,31
12,1,6,75,0,11,2
0,41,1,29,11,23,0
10,121,1,3,12,55,2
71,9,6,2,13,4,40
40,2,27,62,0,9,11
3,7,12,96,4,52,2
13,96,1,6,10,45,1
83,60,1,2,14,3,25
53,3,13,17,4,8,44
4,1,26,87,1,8,4
1,40,2,31,9,11,0
75,116,0,3,9,61,1
37,8,1,1,10,4,29
19,3,10,68,3,2,30
2,9,16,104,1,6,4
20,92,3,3,10,30,0
67,67,0,1,7,45,3
38,3,5,41,23,3,36
2,1,26,106,3,2,16
3,36,4,8,1,37,1
48,103,0,2,9,18,2
99,8,0,14,16,26,10
7,2,6,92,15,2,42
1,6,24,30,2,17,5
2,87,17,2,4,44,1
5,63,1,2,10,14,0
111,3,0,69,10,1,31
20,1,11,105,2,18,26
1,38,22,5,1,74,2
45,106,2,0,13,63,1
88,8,1,47,12,10,5
11,1,0,107,6,42,36
1,6,22,9,2,14,14
2,82,15,1,7,88,2
47,73,2,17,18,5,1
38,5,1,94,4,14,10
1,1,3,33,11,3,38
67,37,33,3,0,15,5
89,108,15,1,6,24,0
42,9,2,69,10,4,1
3,1,1,115,8,13,33
12,4,7,4,7,8,31
111,89,18,1,1,31,2
51,70,3,40,6,5,1
2,4,1,110,18,9,3
6,1,0,8,5,40,47
99,41,3,4,3,82,38
90,125,27,15,0,20,3
9,9,10,91,10,5,0
2,2,1,37,5,9,14
0,4,0,1,2,42,44
55,104,17,0,4,34,5
112,44,28,66,2,4,1
5,3,2,115,3,1,0
2,1,1,5,28,37,35
43,75,2,2,11,80,32
127,115,25,38,9,33,3
8,5,9,101,2,3,1
2,2,3,8,10,13,4
40,43,0,1,4,24,45
82,132,3,12,15,13,20
15,11,24,92,1,12,1
1,2,10,39,6,21,1
9,36,1,3,15,30,17
24,128,0,1,2,36,45
89,12,6,57,7,2,4
7,0,22,109,1,1,1
2,33,6,5,4,68,0
3,119,2,2,15,64,42
66,11,0,34,2,3,41
109,1,9,96,13,3,2
4,31,26,18,3,50,0
2,107,4,2,8,30,6
65,13,2,13,6,51,47
88,0,1,83,1,3,20
8,26,10,36,16,39,1
1,123,28,2,2,56,1
9,11,2,1,11,13,20
68,2,0,59,6,7,54
64,28,6,103,3,4,9
4,123,26,5,4,42,3
1,11,16,1,1,70,0
16,0,2,29,14,12,25
10,19,1,89,5,1,47
84,118,2,17,3,30,3
6,13,23,1,8,25,1
3,1,8,14,1,19,4
63,30,2,83,13,2,46
16,124,2,37,2,2,19
2,12,10,2,5,30,1
2,1,27,1,9,119,2
25,32,4,61,2,3,20
45,123,1,102,11,75,52
7,12,2,5,16,11,4
1,1,10,1,6,79,1
23,30,24,32,2,6,1
62,128,3,97,2,12,35
11,10,1,21,14,47,49
2,1,2,2,3,9,4
15,33,15,8,13,7,1
13,129,20,69,3,6,2
99,13,2,74,3,1,46
22,1,0,5,7,94,20
3,27,3,1,2,35,2
24,114,28,27,19,8,2
56,10,13,88,3,2,14
13,1,1,22,1,27,60
1,26,2,1,11,16,9
74,114,5,7,1,41,3
61,6,27,66,17,28,1
85,2,5,72,2,14,27
4,2,2,5,3,37,36
6,89,0,2,8,45,3
36,102,12,36,7,3,1
87,2,24,90,27,51,8
13,0,2,21,2,60,52
8,79,1,1,1,45,22
15,138,0,7,16,52,2
50,4,25,67,4,4,0
53,0,28,70,14,7,18
3,28,1,6,1,34,45
1,123,0,3,25,26,3
37,11,6,35,7,5,1
75,1,28,93,8,32,0
8,29,17,20,2,18,36
2,116,1,1,2,10,37
53,8,0,8,4,3,4
52,2,8,70,6,54,1
25,13,26,80,14,6,2
3,102,8,5,4,52,49
6,21,1,3,2,35,26
60,1,0,31,10,62,3
43,2,0,95,6,16,1
5,81,41,21,9,20,17
0,98,9,1,5,5,51
42,9,1,6,3,9,8
87,2,2,74,1,70,2
16,8,4,79,7,8,1
2,108,25,5,5,21,31
53,17,9,1,7,4,36
86,2,2,29,1,0,3
49,2,1,94,1,52,2
2,82,6,23,7,46,8
1,87,22,1,2,21,50
68,6,8,4,14,3,22
120,2,3,73,3,3,3
8,24,1,84,1,54,0
3,85,21,6,6,37,14
14,18,30,0,17,13,54
71,1,4,29,7,55,9
36,9,1,100,3,30,2
2,62,0,12,8,65,2
2,53,17,1,14,17,31
62,8,34,26,3,1,44
85,1,4,102,12,53,2
4,20,1,13,1,37,1
0,107,2,3,4,44,4
16,10,30,25,6,5,54
73,1,16,105,9,40,28
48,33,2,12,12,38,3
3,103,1,2,3,25,1
25,15,7,23,2,1,13
43,0,30,102,6,36,48
89,19,8,15,7,71,5
4,132,1,1,3,76,1
2,13,1,22,1,9,0
34,0,7,95,6,5,30
129,11,30,26,27,50,47
9,113,9,1,5,69,2
3,17,1,4,9,11,1
10,1,1,77,1,1,3
81,109,4,90,4,47,36
28,109,30,7,24,12,15
2,4,11,1,8,36,0
0,2,0,23,8,6,0
49,8,2,97,0,33,9
35,97,17,26,1,2,48
3,101,26,2,25,76,12
47,4,2,3,6,19,0
28,0,0,72,1,8,2
68,88,1,95,5,52,32
10,119,23,8,7,6,36
1,4,20,3,6,48,4
8,2,1,23,5,3,0
56,55,2,97,10,57,1
52,135,9,30,2,77,40
5,5,40,2,27,9,21
0,0,11,2,6,4,1
55,33,1,74,3,21,2
89,91,1,91,2,45,18
10,30,54,5,0,19,49
1,4,27,1,19,73,6
16,1,2,29,5,16,2
64,94,0,94,1,28,0
21,91,2,29,2,4,25
2,7,28,3,3,20,30
0,2,17,2,5,6,2
38,8,0,70,4,14,2
72,70,1,96,1,24,6
8,51,6,7,6,43,44
1,3,34,2,1,4,16
25,2,7,18,11,34,1
111,50,1,84,20,15,1
10,122,1,30,2,75,12
2,10,17,2,1,7,41
39,1,22,3,2,24,6
49,20,9,64,31,32,0
34,114,1,89,11,4,1
2,7,1,6,1,9,19
1,1,21,1,1,8,38
48,18,32,18,1,9,3
86,75,2,83,25,71,1
4,71,0,28,4,7,1
1,5,0,1,3,40,42
29,1,12,4,6,1,21
52,58,16,63,1,86,2
13,91,5,91,12,10,0
2,4,4,6,3,85,11
1,2,41,2,1,24,37
29,3,44,20,1,4,2
69,112,5,82,2,15,1
8,19,2,28,25,63,1
1,1,4,2,5,80,33
25,6,36,2,7,30,39
58,96,11,68,3,73,4
17,82,3,97,1,15,1
2,8,2,6,10,13,1
23,1,34,2,1,21,36
95,66,43,16,7,28,24
80,103,4,80,22,62,2
3,6,2,28,9,8,1
4,1,7,2,15,2,8
13,1,18,2,1,11,40
94,151,13,62,9,38,11
12,55,6,92,1,22,0
0,4,2,8,11,14,1
19,0,18,2,11,25,36
104,38,43,15,2,10,43
14,125,7,80,4,57,3
2,21,2,35,7,4,1
13,1,27,2,27,86,0
85,10,36,6,7,17,32
32,126,24,65,2,64,16
3,32,5,94,5,12,1
2,4,6,7,1,10,1
33,2,2,3,5,41,8
47,127,15,18,6,113,38
19,39,0,80,2,18,12
1,3,4,31,10,40,1
84,8,42,3,1,14,0
101,69,4,2,8,20,25
3,102,48,61,23,14,30
1,4,34,100,10,13,1
0,1,4,4,5,9,1
97,94,63,1,2,54,3
88,34,17,41,10,2,39
9,4,0,95,6,11,20
2,1,31,15,1,28,1
25,38,142,1,2,25,1
86,129,7,17,1,13,7
20,7,53,87,13,7,41
1,2,19,31,14,29,11
5,8,3,3,17,4,1
70,56,0,2,2,57,1
118,159,104,61,4,5,23
4,3,103,100,16,20,52
1,20,5,5,1,12,4
70,103,80,0,17,53,2
65,73,104,43,3,11,1
9,4,105,98,14,51,34
1,0,3,17,5,13,21
11,85,147,3,4,2,2
28,237,189,14,5,19,0
45,12,7,86,2,63,16
3,1,25,33,4,23,52
2,94,1,1,19,16,8
53,249,122,1,5,6,2
21,27,14,54,8,30,2
4,1,177,98,2,79,26
1,44,7,8,9,8,37
26,180,90,2,12,19,3
46,15,41,14,9,3,2
24,1,90,84,6,56,1
2,64,12,36,2,69,40
9,90,2,2,14,13,22
75,8,16,0,2,7,3
72,2,123,63,8,7,1
6,207,9,106,13,6,15
2,82,80,3,3,28,57
11,6,156,2,18,27,7
51,1,17,41,14,1,1
40,4,2,105,26,34,1
4,39,49,8,2,32,26
7,105,42,0,17,34,49
45,11,10,29,2,11,5
48,47,69,90,10,28,0
5,217,5,39,7,7,0
1,6,120,2,2,50,45
12,3,34,4,20,15,38
41,11,313,62,3,84,4
53,141,28,100,12,18,0
3,27,46,4,2,13,9
3,4,175,1,9,4,46
21,2,349,45,20,66,14
91,21,9,93,3,8,0
5,91,7,14,15,2,0
2,10,93,0,2,67,23
2,2,149,11,19,25,42
78,34,10,119,5,31,4
69,208,34,36,7,6,0
4,39,3,2,8,11,2
0,1,1,27,3,12,44
23,5,238,63,14,21,28
85,216,50,106,3,61,2
18,105,3,4,4,22,1
1,27,2,17,8,4,10
9,2,148,13,1,14,52
45,1,243,12,19,76,6
84,177,9,71,7,8,1
7,65,81,17,3,6,1
2,14,46,28,3,72,26
25,82,37,23,1,90,43
95,92,16,2,17,15,4
17,7,156,20,8,59,2
0,74,72,75,2,33,0
5,20,4,75,3,14,33
74,2,92,6,0,4,22
96,2,107,0,15,2,0
8,54,41,35,7,32,0
1,10,61,78,5,5,10
25,28,104,21,10,107,47
67,93,13,2,2,10,7
21,48,329,12,32,41,0
1,3,25,55,6,9,1
15,0,3,52,9,27,28
54,197,167,3,1,12,42
54,21,73,0,4,44,3
3,14,54,81,21,7,2
9,119,64,86,3,61,0
23,17,76,8,19,30,37
83,2,71,1,3,8,34
18,156,14,28,8,43,2
1,29,56,8,20,10,1
13,16,139,88,2,27,6
74,2,15,8,8,18,51
31,1,21,2,1,5,22
1,147,41,75,0,43,3
18,23,210,94,14,22,0
62,0,54,21,4,15,24
67,0,1,3,7,4,43
4,148,43,29,1,24,3
0,125,86,125,15,35,1
36,12,124,20,15,20,1
99,1,86,0,2,49,37
14,128,5,15,3,20,31
1,228,56,58,0,88,4
51,15,30,31,13,5,0
86,2,111,3,5,26,11
26,221,40,10,1,89,51
2,139,6,61,4,90,7
27,4,181,77,1,36,1
38,13,7,4,14,10,1
35,130,18,1,13,26,26
3,229,87,2,7,17,44
2,8,166,79,4,82,4
29,31,19,143,3,5,0
88,183,2,5,20,4,1
7,235,17,2,1,10,37
1,4,95,72,7,14,33
3,44,45,176,3,10,2
5,177,172,13,3,62,0
136,69,12,0,17,16,6
25,58,110,2,3,30,43
2,2,25,118,8,3,16
42,74,166,10,3,46,2
85,55,41,1,0,16,1
12,34,54,26,10,48,22
0,16,8,112,2,10,37
10,173,24,8,15,9,7
82,17,99,1,6,4,1
23,2,210,32,21,51,2
3,73,9,54,9,35,33
0,160,66,21,3,12,30
7,4,142,2,12,61,2
100,57,11,1,3,5,1
24,18,4,147,3,30,9
2,275,60,20,8,17,44
45,17,26,11,3,18,18
71,4,54,23,13,21,1
11,233,48,16,2,11,0
0,196,52,141,3,13,17
3,6,27,5,7,43,50
71,2,7,19,1,7,7
57,130,61,197,20,115,2
2,200,125,9,2,26,0
1,8,7,1,8,41,41
31,1,84,1,8,13,20
84,5,17,58,3,43,2
11,289,78,85,13,17,0
0,84,194,76,0,30,8
36,4,16,6,9,59,47
103,74,2,18,8,11,19
27,280,83,73,3,31,1
2,65,178,96,14,10,1
15,5,63,5,2,1,26
54,32,3,74,8,5,47
40,139,1,158,14,36,5
3,181,103,28,4,4,0
0,9,101,1,7,17,1
71,9,49,1,2,16,41
88,262,234,29,7,32,33
7,61,7,126,10,7,1
2,3,72,9,1,27,0
2,2,44,25,5,34,5
47,45,55,3,1,49,47
77,149,133,22,1,8,12
5,28,5,65,20,114,0
1,2,12,5,4,10,1
38,101,156,0,13,50,37
119,37,28,1,4,9,51
6,48,2,120,15,12,4
2,52,128,33,5,3,1
13,3,14,4,11,14,1
51,83,1,14,2,17,38
31,11,67,98,2,49,34
3,148,16,74,11,13,2
15,77,22,7,3,81,1
56,4,98,4,7,87,6
68,1,98,54,2,54,45
6,17,53,12,10,2,18
3,228,22,2,16,3,2
54,106,71,6,2,56,1
70,3,17,71,13,42,19
11,20,3,80,1,22,55
2,262,2,6,17,27,6
7,81,213,76,3,6,1
59,7,9,64,12,3,1
71,2,3,30,4,54,32
3,126,63,60,5,9,26
3,114,107,4,9,42,1
4,8,52,1,5,17,1
53,36,2,141,11,23,8
39,315,79,127,3,42,53
3,55,79,4,2,5,22
85,4,11,22,3,29,2
85,5,18,93,9,2,1
35,158,10,46,18,25,17
2,417,23,3,4,1,39
0,11,130,1,7,1,4
45,16,17,10,16,36,0
96,192,62,215,3,16,2
14,68,95,14,12,72,28
1,6,6,2,1,6,27
1,30,34,102,2,11,2
45,82,5,70,19,45,0
123,171,97,3,8,31,10
4,7,89,3,14,4,60
11,1,10,175,1,48,9
55,93,29,95,12,9,1
75,112,14,7,3,26,1
5,5,66,1,15,45,20
1,65,43,0,5,15,45
12,102,19,257,11,33,5
78,3,21,92,31,37,1
24,2,115,5,3,2,1
3,35,17,29,7,20,28
4,16,7,69,1,9,25
42,191,18,87,22,12,3
76,8,98,9,8,10,0
4,9,11,1,6,1,7
1,65,36,2,15,30,44
16,17,347,111,8,8,17
101,9,11,63,2,31,0
13,4,20,5,19,8,1
1,153,7,1,33,13,16
27,9,82,134,2,35,42
72,14,208,11,1,17,5
12,1,11,68,35,6,0
1,31,1,72,10,14,0
2,307,67,56,38,26,20
77,38,164,9,2,37,28
62,4,51,1,6,16,2
4,1,4,1,63,2,1
1,23,0,186,33,79,2
27,351,43,55,4,11,35
87,36,105,5,2,19,15
25,2,9,13,17,2,0
1,152,138,5,23,8,0
2,152,30,250,24,15,24
61,22,3,29,2,64,39
81,10,2,2,6,6,4
7,103,10,2,58,1,0
2,90,133,121,25,21,0
14,5,91,35,4,13,26
86,29,5,3,1,45,24
12,267,25,0,0,17,2
0,16,38,59,13,18,2
17,2,122,225,14,68,9
95,182,16,9,20,38,39
51,59,9,32,47,5,11
2,4,43,144,6,17,1
1,0,50,24,2,22,1
52,50,16,2,43,42,18
110,39,176,11,16,9,41
4,117,30,108,15,4,5
2,10,5,100,5,23,2
43,4,6,3,0,26,0
92,139,80,1,16,11,25
15,61,104,64,31,1,26
2,28,98,97,16,5,2
0,5,10,11,39,117,0
48,2,7,19,14,15,7
111,84,107,57,26,20,42
4,33,101,32,9,4,19
1,3,3,66,3,7,2
46,57,30,4,1,3,1
87,63,16,139,36,66,16
9,3,111,58,103,5,38
2,7,11,21,7,1,5
2,1,2,36,1,31,2
26,38,31,214,1,34,0
74,181,107,13,29,9,27
6,71,4,1,37,2,37
0,2,3,0,8,16,3
5,1,29,33,2,35,1
70,89,57,54,6,13,4
56,137,23,10,56,20,45
2,7,3,3,10,7,22
6,41,153,10,0,30,1
40,24,38,49,0,22,1
97,126,18,27,45,3,6
11,3,55,2,42,11,53
1,31,84,43,9,12,17
7,221,156,47,3,68,1
50,19,16,4,37,6,0
102,1,2,1,16,7,28
3,8,42,94,6,10,36
0,159,134,25,0,3,2
53,66,48,46,2,108,1
103,4,4,9,0,8,2
4,1,2,14,24,8,38
2,68,127,98,13,16,15
42,135,19,24,11,8,2
99,55,7,4,5,5,0
12,3,29,1,23,2,9
1,109,72,1,25,20,44
10,85,5,125,3,33,13
80,8,2,55,10,63,1
23,33,206,4,1,5,0
2,175,118,10,22,4,36
4,69,42,44,9,18,37
64,6,14,49,41,29,2
66,0,4,36,20,62,1
5,233,81,2,2,17,5
2,136,152,2,1,12,36
17,3,25,121,1,42,17
67,1,4,148,18,14,1
20,112,40,5,52,2,1
2,416,105,2,5,51,11
8,14,25,2,3,50,43
48,6,100,172,7,77,4
56,141,38,25,44,3,2
5,129,17,2,5,25,1
0,6,18,42,13,8,26
39,18,242,113,3,52,37
64,195,82,17,34,15,3
23,58,5,3,2,23,1
2,5,22,12,6,17,3
1,13,6,183,79,24,30
48,49,105,14,10,6,11
66,314,67,2,2,2,1
4,35,16,37,70,22,0
2,2,2,155,43,11,13
7,1,79,8,10,42,40
56,159,93,1,13,3,4
44,152,48,105,2,7,2
3,5,60,148,0,18,0
2,2,47,10,6,117,24
46,160,104,64,2,4,33
79,16,29,150,2,8,2
10,10,82,37,6,4,1
2,147,33,2,5,4,4
14,54,2,0,3,29,34
73,2,20,72,4,7,29
24,19,183,250,63,7,2
1,126,28,16,15,39,2
2,87,2,2,83,10,8
64,5,1,94,12,9,36
86,8,73,229,9,3,8
4,160,204,11,2,1,1
0,246,155,2,0,15,0
34,6,5,6,9,11,10
62,11,2,165,2,5,36
27,79,11,38,2,3,3
3,17,62,7,2,64,0
1,2,15,28,0,4,1
50,47,67,116,13,56,27
61,31,40,22,20,19,21
6,169,50,2,52,3,2
0,24,2,97,11,8,0
28,1,27,93,2,21,1
69,167,160,30,93,24,34
23,224,95,2,17,33,21
0,7,8,31,8,11,2
2,135,1,62,8,37,2
63,7,52,82,39,52,13
84,87,372,4,5,6,45
6,28,14,1,9,12,5
1,3,14,24,3,27,0
10,223,3,105,1,31,1
70,57,35,3,6,5,22
21,2,30,2,5,14,32
2,21,15,81,1,9,3
4,113,120,80,8,49,2
52,53,9,7,1,22,2
79,3,26,2,6,5,43
6,8,25,73,8,5,25
3,141,32,63,19,3,4
12,70,41,43,14,50,2
74,6,65,2,2,6,10
24,2,37,18,0,3,43
4,0,3,56,28,0,6
0,72,15,43,56,12,0
49,192,4,15,11,58,1
79,12,102,6,9,6,21
6,1,10,153,41,19,36
2,98,127,57,19,16,4
12,135,9,5,4,31,1
72,4,1,0,3,2,3
32,1,46,2,11,5,41
3,15,167,63,5,1,21
8,427,31,97,7,41,1
49,51,4,6,5,33,0
83,4,1,1,2,4,11
6,168,24,27,12,4,42
1,104,105,131,17,14,6
11,134,125,9,8,77,1
70,3,8,2,3,7,0
29,110,40,2,7,18,22
2,134,73,91,10,35,27
2,15,5,125,2,16,2
51,6,153,4,10,14,1
76,36,163,39,13,1,3
6,25,6,81,3,1,36
2,3,1,9,8,31,21
19,16,6,1,4,31,2
73,259,55,1,6,11,1
31,9,147,95,1,25,10
2,3,18,80,9,30,35
1,1,1,21,17,18,4
50,152,121,3,2,5,1
88,132,27,3,7,3,0
8,5,45,33,1,7,26
2,96,163,39,19,21,35
7,10,5,10,14,69,3
65,125,50,26,44,5,1
61,7,12,36,22,3,1
5,2,48,106,6,36,31
1,37,30,7,23,23,18
26,206,4,1,4,9,1
78,48,3,27,8,3,1
15,20,115,150,2,35,11
1,0,21,18,6,5,42
6,218,30,3,3,74,4
58,34,14,56,1,8,1
59,44,62,8,13,3,1
3,279,86,80,1,14,25
2,9,5,5,50,34,36
28,2,87,1,28,32,2
79,3,21,88,3,4,0
17,41,44,109,5,26,1
2,138,11,7,26,38,32
5,19,106,0,54,21,25
55,17,43,6,4,3,3
45,2,4,81,4,7,0
3,127,3,41,2,23,11
2,119,40,2,12,27,43
28,2,70,4,10,14,5
73,37,57,118,2,0,0
15,176,125,62,16,32,0
0,24,4,4,2,48,32
8,3,5,2,33,18,40
57,116,53,91,4,3,4
56,237,30,6,18,5,2
3,4,22,61,7,22,2
2,6,68,58,12,41,34
23,164,248,13,5,4,16
65,94,10,65,1,19,1
15,10,2,36,17,19,0
1,1,69,2,2,22,10
13,44,73,0,26,19,42
64,146,64,75,16,3,6
38,13,24,61,2,8,1
4,2,31,10,0,29,1
1,32,30,1,3,34,29
29,260,14,0,25,4,36
86,45,4,69,8,2,3
6,1,18,65,3,7,0
1,50,17,2,4,5,1
4,93,102,1,1,66,33
40,15,46,36,9,5,30
47,2,30,92,24,8,2
3,74,2,8,3,14,0
0,165,12,33,1,26,5
28,40,40,156,0,9,37
64,2,58,111,49,0,19
18,45,8,4,11,12,1
2,173,47,0,16,36,0
5,64,44,5,5,36,22
53,4,4,63,4,2,38
61,2,7,111,6,0,5
5,84,3,2,3,11,0
1,82,124,18,11,22,0
26,6,96,20,2,21,32
81,2,37,37,18,2,21
19,51,1,1,7,25,2
2,159,48,0,2,5,2
2,8,69,1,10,38,10
64,33,26,130,8,3,48
73,173,40,38,10,2,7
5,15,8,4,6,23,0
1,2,55,6,1,20,0
19,0,15,81,2,12,29
85,18,2,32,1,2,33
23,106,15,4,36,19,3
1,53,91,8,9,19,1
2,2,37,29,8,24,2
92,3,23,26,12,2,33
79,102,7,3,8,4,26
6,43,1,1,42,14,2
2,2,38,22,2,40,0
23,18,31,74,30,7,9
96,144,9,43,5,2,50
23,63,33,3,2,20,18
1,3,32,24,3,18,1
1,0,3,145,12,21,0
73,91,28,33,5,0,18
86,216,4,2,0,22,46
6,30,43,0,7,18,4
0,1,52,55,31,29,2
26,0,49,27,2,3,1
98,118,2,4,7,0,45
27,17,6,0,2,15,33
2,2,70,106,10,11,2
3,77,33,54,6,10,0
72,153,129,20,1,1,8
89,19,11,2,6,0,43
7,9,1,35,1,51,13
2,20,37,82,36,98,1
18,21,49,37,13,7,1
85,1,16,4,0,2,18
30,1,121,9,4,17,39
2,1,31,67,1,17,3
5,127,1,81,6,18,1
76,80,2,6,28,2,1
84,5,30,1,16,18,29
5,2,54,2,0,22,28
2,57,45,51,3,12,2
16,179,24,118,43,2,0
76,9,39,4,5,16,7
24,1,7,1,29,47,42
1,13,23,82,3,53,13
2,159,12,247,7,5,2
55,36,37,13,11,2,1
66,1,40,2,1,7,29
4,2,9,52,22,11,42
2,96,170,79,2,30,3
7,59,164,8,21,4,1
53,4,54,1,8,12,1
47,2,67,34,2,6,37
3,63,54,195,16,41,27
1,172,74,34,1,8,2
39,16,29,2,36,1,2
77,1,12,3,13,14,10
11,11,28,37,3,19,36
1,159,11,109,1,22,4
15,18,94,4,0,2,0
60,1,11,1,35,16,1
16,24,51,19,19,23,24
2,147,32,69,3,51,47
26,18,88,9,1,3,3
60,1,16,2,24,2,1
46,47,68,1,28,7,0
2,143,8,73,6,15,29
2,7,83,95,6,50,26
32,1,78,10,2,4,2
68,3,6,2,10,3,0
10,126,2,1,4,20,6
0,52,45,107,24,38,43
13,5,107,86,4,7,16
50,1,54,5,2,2,1
18,46,66,24,33,7,0
2,150,28,111,3,19,8
0,9,54,19,12,57,35
43,2,2,1,3,5,13
75,27,7,2,27,1,2
7,151,1,86,9,12,0
1,21,116,62,3,38,31
28,2,69,4,4,14,26
67,16,56,1,1,0,2
18,164,57,22,22,32,0
2,10,5,112,43,15,9
4,0,34,5,5,23,43
44,34,2,2,4,0,14
66,121,14,14,9,10,2
5,22,38,78,3,21,1
1,2,102,23,10,41,17
3,37,35,1,13,4,31
39,143,179,2,2,1,3
48,17,76,54,3,11,1
2,2,76,67,21,20,0
1,33,14,5,8,10,29
34,93,3,0,6,1,18
72,40,55,40,2,17,1
11,2,87,9,0,18,0
0,1,34,88,8,20,11
11,73,59,4,7,1,45
64,120,21,1,12,9,7
26,6,5,54,1,25,1
2,2,8,65,4,29,0
1,50,24,23,46,10,19
43,140,76,2,4,1,39
80,9,24,2,4,17,4
5,2,8,69,1,2,1
2,23,0,55,7,22,0
13,122,9,2,0,1,32
78,12,3,12,12,6,31
29,1,29,4,18,17,3
1,2,7,44,2,18,0
2,111,51,60,6,3,0
59,36,30,4,6,2,27
98,3,61,2,1,11,24
8,0,9,132,21,27,2
2,72,2,25,2,12,2
5,91,1,2,4,2,15
90,10,3,28,14,13,34
73,4,86,77,7,16,3
4,56,24,73,3,31,1
1,136,2,5,2,3,1
50,7,17,2,8,0,39
147,2,73,10,3,32,37
12,25,22,110,1,5,2
2,154,45,21,27,15,0
39,18,43,1,3,3,4
129,1,63,0,10,5,37
11,35,4,99,1,18,14
0,119,2,65,2,19,1
41,8,11,12,34,12,0
125,1,40,1,7,2,11
9,1,92,65,12,11,35
2,97,6,83,3,10,6
7,108,17,9,2,14,1
73,3,32,1,1,2,1
90,1,114,27,8,4,33
5,48,7,17,3,16,29
1,144,2,14,17,50,2
33,14,12,1,45,6,1
107,1,54,15,3,1,3
8,48,32,61,0,10,41
1,170,4,33,14,15,17
8,14,13,1,7,22,1
84,2,47,1,14,1,1
64,33,34,16,1,19,23
4,142,2,160,6,20,38
1,10,6,11,5,31,5
23,1,27,1,8,2,2
104,94,57,111,16,2,0
13,113,9,11,2,10,20
1,5,2,107,15,43,34
26,2,28,9,2,12,4
85,8,46,33,1,2,2
17,94,29,51,4,11,1
2,75,2,3,0,23,37
6,4,13,1,4,20,20
64,2,48,79,8,2,2
59,69,48,134,1,6,2
4,121,4,13,31,22,17
1,9,6,0,5,47,36
27,2,18,31,9,2,3
80,11,87,91,2,1,1
18,116,15,25,2,23,1
1,15,2,1,26,19,33
6,1,27,1,6,22,37
53,14,63,95,8,2,3
51,108,44,99,23,12,1
3,29,2,6,2,28,4
1,2,18,1,11,49,38
16,18,42,31,1,4,12
63,129,59,67,19,2,1
13,18,4,45,20,16,1
0,1,4,2,27,40,19
9,8,48,123,2,9,44
42,114,44,15,4,1,6
58,37,11,49,3,8,2
5,4,0,3,15,14,0
2,3,58,19,13,55,29
26,78,74,72,4,7,29
61,85,31,63,9,3,2
16,5,2,5,2,9,2
1,2,1,42,0,24,4
5,32,22,30,2,36,42
56,110,90,78,3,3,18
50,17,11,3,30,2,2
2,2,1,1,6,27,0
0,26,31,2,1,33,17
18,119,116,75,6,7,40
61,16,9,106,2,0,5
14,2,2,3,6,20,2
2,1,47,5,8,38,1
12,112,57,87,1,46,21
42,38,30,30,8,2,40
30,3,2,4,2,2,4
2,1,2,6,2,10,1
1,65,83,135,10,32,3
49,110,81,24,1,9,41
60,4,7,8,8,2,24
5,2,2,2,3,9,2
0,68,2,23,8,25,1
9,135,32,63,20,48,13
55,7,77,62,3,5,37
80,1,4,4,15,0,4
5,3,6,26,5,9,1
0,140,29,53,1,24,2
15,21,44,124,1,34,30
66,2,19,4,13,3,36
15,2,4,1,10,1,3
2,77,10,37,4,18,1
7,108,66,93,8,43,4
49,3,34,13,2,10,38
62,1,2,0,14,1,21
4,54,3,52,10,1,2
2,130,37,68,9,23,0
18,13,84,13,8,49,19
79,1,9,3,3,5,46
14,47,2,55,25,0,7
1,142,14,23,2,15,2
13,8,45,72,21,24,1
60,1,26,4,15,7,28
41,22,1,12,8,2,33
2,126,11,37,9,10,1
1,21,70,44,1,24,0
33,1,68,2,2,38,2
93,27,6,1,6,2,38
12,113,1,13,2,1,15
2,21,18,106,18,20,2
18,1,65,21,37,24,1
93,2,22,1,21,6,13
22,110,2,6,1,2,30
3,52,3,146,30,2,3
2,3,41,28,4,20,1
65,0,66,3,1,48,1
78,83,4,30,20,5,29
6,127,1,98,2,0,35
2,6,35,56,44,10,2
21,1,47,3,6,12,0
85,64,12,1,9,17,2
29,110,1,129,18,1,38
2,11,5,34,1,2,18
1,0,35,15,8,20,0
73,47,18,0,3,40,1
91,134,2,34,1,8,11
6,12,1,77,5,2,35
0,0,33,17,5,1,5
16,50,33,2,13,27,2
111,148,11,14,3,26,1
15,12,1,88,3,2,24
2,1,0,82,7,1,38
24,34,11,6,2,7,4
87,133,57,11,2,16,2
29,16,5,82,8,11,1
1,2,1,33,24,1,35
1,36,2,3,11,1,31
67,147,21,27,4,29,2
102,13,9,5,3,37,0
2,1,2,124,2,7,18
1,47,2,21,13,2,50
46,117,3,2,23,12,5
103,12,32,38,9,16,1
7,1,4,110,37,16,1
1,32,1,16,2,1,31
20,146,1,2,13,3,40
78,18,4,17,12,15,3
26,1,23,106,2,43,1
2,33,11,10,1,4,2
1,154,1,1,4,3,41
55,11,0,51,17,1,21
67,1,10,67,1,16,1
4,31,26,25,11,40,0
1,127,2,1,3,3,22
20,11,1,11,2,0,54
76,0,0,106,21,12,8
22,30,13,18,15,15,1
3,119,36,3,2,8,0
1,14,4,1,1,3,15
54,1,1,55,30,6,42
83,28,1,193,4,15,3
7,111,25,8,27,25,1
0,13,8,3,2,4,1
16,1,1,23,5,0,35
74,29,0,96,31,18,19
27,121,7,7,4,14,3
1,11,29,1,25,14,0
7,1,11,4,5,2,16
60,14,2,56,6,18,42
85,119,1,62,20,17,5
7,16,21,5,4,40,2
0,1,11,7,9,2,2
17,36,2,19,1,1,24
59,122,1,53,13,13,36
22,12,1,8,2,20,2
3,1,32,1,32,7,1
0,26,21,77,5,0,4
54,104,2,63,6,1,42
75,10,1,51,9,26,20
6,1,3,2,2,57,2
1,23,23,2,4,9,0
9,102,13,24,2,3,13
62,9,2,70,0,9,48
49,2,1,15,9,16,7
4,6,18,1,41,25,2
0,103,37,32,4,3,2
28,40,5,38,33,0,20
64,2,1,44,10,11,32
15,2,0,4,1,15,3
1,49,18,7,2,15,1
16,95,31,44,18,0,1
54,10,5,86,2,15,31
22,1,2,7,1,16,18
2,19,3,3,21,29,2
3,100,19,2,2,1,1
55,11,13,61,9,10,17
80,2,1,64,1,21,44
6,11,1,3,5,37,4
1,100,14,0,44,3,1
15,7,10,64,6,1,1
78,2,2,64,13,16,21
22,24,1,15,4,27,33
2,106,3,0,20,12,3
5,23,17,27,2,0,2
43,2,20,55,1,17,1
74,2,1,37,5,21,41
6,80,1,1,0,23,29
1,90,1,8,10,1,2
11,6,6,53,0,7,0
75,2,15,84,3,21,11
33,20,3,9,10,42,36
3,118,1,3,6,6,2
1,15,17,12,11,3,1
47,2,19,59,2,4,1
89,21,12,47,12,15,25
8,125,1,2,1,29,37
0,14,1,12,5,3,3
9,2,19,45,14,2,1
66,25,22,57,0,37,2
60,116,2,3,1,12,35
5,14,1,1,0,13,18
1,1,1,13,36,1,2
41,12,16,75,25,15,0
82,120,13,28,4,24,15
19,17,0,1,2,26,50
1,1,1,3,0,2,7
6,10,6,65,16,4,1
72,117,25,75,13,11,1
66,23,15,5,4,29,20
5,1,3,1,8,7,35
1,16,1,25,6,0,3
26,130,34,76,25,12,1
87,17,22,19,5,20,1
16,2,3,2,6,25,26
2,30,1,17,0,1,27
6,130,3,71,4,3,3
65,18,31,43,20,14,2
63,1,13,4,5,39,8
5,17,1,5,7,6,41
1,126,2,41,1,0,9
32,16,20,98,7,4,1
83,2,53,9,9,16,0
16,16,8,2,2,46,10
0,123,2,11,0,3,43
3,17,3,72,3,1,5
66,1,5,48,5,17,2
74,13,15,3,19,12,1
5,122,22,1,5,10,24
1,16,0,43,5,2,37
19,2,4,91,5,7,3
93,11,32,10,2,20,1
19,121,17,2,21,38,4
1,15,0,23,2,3,46
5,2,0,81,1,3,26
67,17,3,25,1,21,1
73,106,36,1,1,9,1
4,15,12,8,4,35,8
1,2,1,61,28,4,43
29,18,4,82,3,3,12
89,135,16,5,15,19,1
21,18,22,1,11,38,1
2,2,2,25,14,4,28
2,22,2,83,2,1,36
62,113,2,25,1,8,3
69,17,31,3,1,17,1
4,1,20,10,9,29,1
1,10,2,73,7,2,32
24,106,1,43,3,1,22
75,15,7,2,16,15,2
25,1,30,3,3,16,1
1,34,5,50,4,7,12
4,109,1,103,16,1,36
66,14,2,5,1,18,4
74,2,7,0,3,11,0
4,12,31,17,4,32,0
0,104,18,76,2,3,31
21,14,2,24,36,1,33
67,2,1,1,3,13,3
12,8,10,3,2,10,1
0,104,29,55,2,9,0
12,30,6,91,2,1,32
76,2,2,5,9,0,22
34,0,0,2,10,1,1
2,60,18,38,34,1,2
1,106,18,68,5,41,9
35,4,2,17,8,4,50
88,2,2,1,3,9,16
10,39,10,4,11,13,3
1,122,31,58,0,17,1
19,8,2,89,1,7,23
66,2,1,7,4,1,40
21,13,10,0,14,5,5
0,113,35,16,2,13,0
4,18,20,66,7,26,0
60,2,2,25,2,3,25
68,10,0,2,9,1,18
4,116,6,10,13,10,1
1,19,30,62,2,17,0
28,1,12,56,4,13,11
82,4,2,3,5,0,40
22,91,0,0,4,2,5
1,95,11,42,24,16,0
4,7,25,91,4,31,0
53,2,3,13,9,1,21
70,36,3,3,1,2,31
6,131,2,20,9,20,4
0,12,24,74,16,25,1
20,2,25,28,3,14,1
70,42,1,2,1,1,33
17,129,0,0,0,5,21
1,9,1,63,24,15,3
0,1,27,108,16,38,1
60,8,12,4,10,4,10
65,105,1,2,2,1,42
5,40,6,39,4,7,5
2,2,8,93,12,14,2
17,2,20,12,1,23,0
65,70,5,2,10,2,19
18,121,1,18,4,3,43
2,6,2,83,5,15,4
1,1,17,29,6,18,1
59,34,32,2,1,3,0
72,131,2,2,55,0,29
4,11,1,66,5,8,29
1,2,4,102,10,21,3
15,22,24,4,6,33,0
71,130,18,1,4,3,14
22,12,1,63,13,1,42
2,2,2,122,3,7,6
1,37,2,9,17,6,1
58,133,30,1,2,35,1
70,11,14,16,18,3,20
4,1,1,76,2,1,29
2,34,1,31,9,14,2
13,135,8,2,17,6,0
82,10,23,2,2,26,1
28,2,5,56,16,2,29
3,29,2,94,2,3,30
1,131,1,8,5,15,2
55,11,13,1,3,20,1
78,1,22,16,1,4,5
5,46,3,69,22,1,31
1,124,0,28,4,1,23
6,10,1,1,3,14,1
61,1,19,8,25,37,1
62,28,20,73,4,2,19
5,139,2,99,4,1,40
2,11,1,9,1,9,4
42,1,6,2,8,27,1
81,42,41,17,11,29,2
11,120,30,57,2,2,30
1,9,1,27,8,4,22
24,1,1,2,1,15,1
75,4,3,4,42,21,0
27,100,37,45,15,6,6
1,54,8,82,6,2,40
1,2,2,6,3,3,20
57,2,1,1,20,11,2
85,75,14,18,12,36,0
8,135,17,48,1,4,22
0,5,5,27,4,0,41
11,1,1,1,1,28,4
72,33,1,11,1,20,1
25,122,20,52,30,11,0
2,12,20,50,5,1,35
0,0,2,3,11,5,38
64,30,1,2,3,14,3
100,127,2,33,10,34,2
4,13,39,65,3,3,6
0,1,16,12,1,1,40
33,17,3,1,6,24,13
85,113,1,19,0,22,1
17,8,10,50,6,17,1
2,3,31,28,11,2,24
19,1,3,3,3,6,43
67,94,2,4,7,8,5
25,96,4,43,3,39,0
3,7,24,85,19,9,0
1,1,18,8,4,1,34
58,31,1,2,1,4,27
84,130,0,14,0,11,2
5,13,6,44,1,35,0
2,1,37,27,2,5,5
4,26,21,3,26,0,45
54,122,1,4,6,9,15
62,11,6,40,5,7,2
4,3,19,78,0,40,1
2,38,15,6,12,6,17
37,119,2,1,57,1,45
87,13,0,11,4,15,6
13,2,2,42,0,22,1
2,38,22,25,1,10,1
14,120,33,2,46,0,29
66,13,3,1,16,3,18
32,2,2,45,24,26,2
4,20,3,84,10,45,0
4,122,21,7,20,5,7
36,14,11,1,7,2,43
87,2,1,8,2,16,13
8,27,0,58,3,16,1
0,127,5,72,4,13,0
8,14,20,4,0,2,19
65,2,6,2,26,6,37
64,23,1,26,2,16,3
4,122,1,68,4,35,2
1,12,18,15,3,3,2
48,1,35,1,36,0,40
98,16,4,8,7,0,28
15,118,1,54,7,28,2
0,13,1,60,16,45,2
6,0,19,4,0,4,5
62,18,38,0,22,1,40
60,125,5,34,4,15,13
3,14,0,84,21,12,0
2,1,1,17,2,5,0
30,16,26,2,7,0,17
82,115,20,8,13,9,36
15,11,3,71,1,15,5
1,1,2,78,30,29,2
8,25,9,6,3,3,1
61,117,31,2,21,0,30
63,14,5,19,5,5,31
4,1,1,120,7,26,2
0,20,1,17,5,39,2
21,111,11,1,0,2,4
83,13,36,39,18,1,39
16,1,6,163,15,11,9
0,16,1,17,17,17,2
10,122,2,1,9,7,0
68,15,20,37,23,2,5
30,2,23,144,3,3,37
3,17,3,16,3,10,16
1,121,2,0,5,39,2
52,16,0,34,2,4,0
87,1,42,141,13,1,21
8,28,22,15,6,14,33
2,103,1,2,6,22,3
10,14,1,34,9,15,0
71,1,26,137,2,1,1
33,15,32,17,10,2,30
2,131,5,2,11,17,29
1,15,0,34,8,34,3
41,1,1,141,16,4,0
95,15,13,16,10,3,4
8,141,38,1,25,8,40
3,19,5,36,1,17,21
21,1,1,149,9,21,3
69,15,6,18,2,2,0
39,125,31,2,3,4,8
3,14,22,32,4,20,38
1,1,3,139,0,29,12
51,13,1,14,21,8,1
95,123,7,1,2,1,0
7,15,24,37,6,8,26
2,2,4,141,12,15,23
6,14,2,15,1,40,2
58,124,1,1,4,6,1
61,17,5,32,0,2,2
4,1,33,106,7,5,43
1,14,9,14,9,13,21
25,122,3,2,2,27,1
80,16,0,25,8,1,0
21,1,8,93,1,1,15
1,12,32,24,9,15,38
2,108,9,2,21,18,5
64,18,1,9,1,11,1
69,2,1,65,10,2,0
5,15,8,81,2,1,26
1,113,29,6,8,15,34
18,17,4,1,14,50,2
78,0,1,26,0,6,1
19,14,0,70,3,1,8
2,122,9,20,1,8,46
0,18,28,2,4,12,15
66,1,6,16,12,12,1
67,9,2,73,1,0,0
5,123,2,43,7,11,15
2,37,1,2,2,14,35
19,2,20,6,2,38,4
79,1,6,52,9,4,1
20,83,2,73,2,1,1
2,119,1,6,7,20,27
2,3,13,3,2,11,30
67,1,32,7,2,9,4
72,45,5,48,12,1,0
5,115,2,72,4,11,2
1,8,2,7,19,25,40
21,2,23,1,3,35,20
80,7,30,22,1,2,2
21,109,4,50,7,1,1
2,40,2,21,3,1,3
1,3,10,2,19,14,35
47,1,31,8,3,35,22
75,64,18,41,1,3,1
5,115,0,65,6,6,0
1,5,0,5,2,22,23
17,1,15,1,13,31,30
78,42,24,27,1,6,2
19,127,3,54,2,1,1
0,8,0,22,12,5,4
3,1,0,2,2,21,44
59,15,22,6,11,32,25
74,129,7,43,1,2,2
5,22,2,68,2,2,0
1,3,1,5,0,8,14
21,7,15,2,3,11,37
76,104,28,21,22,25,4
22,41,9,53,3,1,2
3,2,2,21,6,4,0
1,1,1,2,6,18,27
58,75,4,6,2,32,31
75,120,27,41,4,5,3
5,4,8,74,1,0,0
1,2,2,5,3,5,2
13,32,0,2,14,13,30
69,138,1,20,1,31,26
29,12,26,52,3,2,3
2,1,12,26,0,2,0
3,40,1,1,3,21,13
55,125,0,5,5,42,33
85,10,12,46,2,9,3
6,1,16,76,13,1,1
1,39,6,5,2,3,1
13,126,2,3,4,19,25
79,10,2,19,7,38,37
26,2,18,61,1,8,3
3,36,16,25,6,1,1
0,111,1,1,3,4,3
57,11,1,3,3,19,37
79,2,3,54,12,38,20
6,34,29,87,2,3,2
1,117,8,7,8,1,1
16,8,2,1,3,30,16
81,2,1,18,1,21,38
21,2,7,70,13,10,4
1,93,32,30,3,0,1
2,74,13,1,16,4,1
60,3,2,4,3,20,30
83,1,2,59,4,39,28
7,34,14,96,5,3,3
0,123,28,6,0,2,0
6,9,2,1,10,13,4
59,1,0,18,1,35,42
54,5,1,84,1,15,20
3,106,27,33,2,2,1
1,42,15,2,3,8,1
41,4,3,5,16,12,12
87,1,0,50,3,35,40
12,67,5,113,1,4,4
2,119,28,5,5,0,0
15,6,8,2,2,16,0
74,0,1,50,13,18,31
22,32,1,120,2,12,34
1,123,6,9,2,0,3
3,12,24,1,13,8,0
60,1,9,19,4,23,5
86,36,2,107,15,38,42
6,143,0,21,2,2,22
0,11,1,0,0,2,2
14,2,22,15,1,13,0
74,29,9,107,1,19,14
23,130,2,20,24,14,37
2,10,1,1,2,2,4
6,1,1,17,2,6,1
72,24,14,105,17,20,1
89,130,13,18,12,47,26
6,11,1,2,7,2,29
1,2,0,19,2,1,3
13,29,6,100,6,13,1
72,126,22,18,6,6,2
27,12,4,0,4,28,41
1,0,0,14,10,1,22
1,30,0,99,1,4,1
56,127,6,38,5,29,2
83,13,23,4,12,32,13
7,2,4,1,19,7,35
1,31,1,61,2,0,3
14,106,1,105,0,12,1
77,15,5,4,8,5,0
26,2,23,1,2,35,21
3,31,4,41,15,2,28
1,131,1,93,4,2,2
45,13,1,17,1,13,0
98,2,12,3,9,11,1
8,17,25,11,3,9,38
2,125,3,72,15,3,27
11,13,0,33,2,4,2
61,0,3,2,4,27,1
29,24,38,5,20,35,9
2,129,25,56,7,8,34
1,13,4,99,13,1,9
51,0,1,7,1,3,1
85,27,1,2,4,20,1
7,125,16,16,5,53,11
0,14,12,73,1,5,33
12,0,1,30,14,0,5
70,24,1,3,1,6,2
29,114,7,2,6,18,2
2,13,21,54,13,22,24
0,1,5,102,1,1,33
52,29,1,4,8,1,3
88,121,1,2,1,18,2
8,14,8,35,2,38,2
1,2,29,86,11,7,35
5,22,8,16,1,1,18
63,123,1,1,13,26,3
61,14,1,19,1,19,0
4,1,6,69,18,28,6
1,21,25,37,4,1,45
23,136,5,3,9,4,14
95,15,2,3,2,33,2
20,2,1,45,2,34,1
1,21,7,94,13,6,24
8,127,35,9,2,1,33
61,15,11,2,7,7,2
61,2,2,14,2,8,1
4,19,1,68,0,24,2
2,126,17,36,17,7,32
22,12,21,3,3,2,17
87,1,2,3,9,10,2
13,32,0,39,2,22,0
1,151,0,100,1,30,12
30,16,24,6,12,2,46
79,2,1,2,2,2,5
25,20,0,35,6,11,1
1,126,1,77,4,19,1
0,16,8,17,1,11,22
33,1,29,0,18,0,32
109,23,11,12,3,24,2
5,127,1,66,7,12,2
4,16,1,39,4,14,1
16,2,6,2,1,1,39
91,19,26,3,14,10,20
10,120,11,48,3,25,1
1,13,0,92,9,31,1
10,1,0,9,4,2,13
43,19,18,2,1,2,37
61,136,26,15,11,24,4
3,16,1,73,2,32,0
1,2,1,43,15,7,0
45,27,1,3,1,1,25
80,130,20,3,10,3,32
5,16,15,49,13,13,2
1,3,1,94,2,42,2
31,25,1,9,8,5,0
95,136,6,1,1,0,32
16,15,33,13,2,13,19
0,1,7,65,6,22,0
25,17,2,39,2,17,0
69,125,0,3,15,2,11
56,14,11,4,1,1,38
4,2,24,48,3,15,4
1,16,3,95,8,54,1
67,107,0,9,2,4,5
63,18,2,1,17,1,39
9,2,14,9,1,9,34
2,13,23,61,2,16,4
5,122,3,68,8,23,0
63,15,0,5,2,2,1
91,1,3,2,13,2,34
15,4,24,28,1,18,21
2,83,10,77,3,33,2
21,83,1,18,13,9,1
76,5,1,2,4,2,6
16,1,18,7,13,8,44
1,36,34,61,2,22,15
4,94,6,71,5,38,1
61,32,0,4,8,3,0
61,1,0,3,1,1,24
3,13,15,26,21,12,35
0,169,25,75,2,18,3
44,27,2,22,6,17,2
137,2,0,3,5,1,0
14,37,1,6,1,8,33
2,105,22,54,11,20,24
4,15,16,77,1,43,2
91,2,2,6,4,4,0
93,14,0,2,10,2,6
5,123,4,29,15,12,37
0,26,28,78,5,16,14
83,3,6,22,2,19,0
111,6,0,1,8,3,1
9,124,0,6,4,15,34
2,38,7,58,10,21,40
1,3,29,77,2,31,4
66,2,15,6,2,1,1
68,28,0,2,8,1,2
3,116,1,28,8,36,39
2,7,13,85,12,29,20
45,1,32,24,2,12,2
140,31,2,2,1,2,1
6,121,1,7,30,34,7
2,6,1,62,11,3,44
6,1,20,80,12,103,11
73,19,11,4,2,29,2
43,148,0,1,4,26,1
3,12,1,25,10,8,25
0,2,4,79,13,17,37
71,12,24,22,2,21,4
118,148,6,3,1,11,1
7,10,1,4,14,14,2
1,1,2,57,9,60,38
74,6,6,96,20,15,19
92,109,23,6,1,3,1
24,35,9,2,1,85,1
1,3,1,28,8,122,8
11,12,1,81,3,11,50
121,124,2,23,18,6,15
22,53,19,2,2,78,1
1,3,7,4,1,38,1
2,0,1,62,7,2,27
71,54,1,83,2,52,34
37,154,5,5,18,15,3
3,8,26,1,3,3,1
0,1,7,25,2,28,1
38,53,1,76,10,7,39
89,140,2,27,2,65,28
18,19,6,3,10,117,2
0,1,34,2,1,11,2
24,42,17,58,6,4,8
80,122,3,87,9,18,41
68,6,0,7,1,69,10
4,1,3,1,8,17,1
14,41,27,24,2,15,2
71,68,6,79,2,113,22
46,42,0,27,6,9,34
3,3,0,4,5,38,3
1,10,21,3,18,5,0
7,101,23,52,1,105,1
71,37,2,94,5,34,36
36,2,1,8,9,100,13
3,12,1,0,2,3,2
9,12,15,27,13,23,0
73,54,18,74,3,10,10
46,3,3,24,1,186,41
6,1,0,1,10,16,6
1,66,4,5,2,36,1
4,36,15,61,9,70,2
64,38,1,87,1,18,20
61,3,1,7,2,6,39
6,1,2,2,9,52,4
2,89,7,20,3,45,1
43,50,18,72,11,117,1
51,3,5,25,2,7,27
16,1,0,1,0,83,24
10,34,1,9,14,13,3
3,165,2,63,14,14,1
45,10,17,86,12,35,11
58,2,12,6,2,33,44
2,22,1,1,8,98,7
1,135,0,21,3,94,0
101,27,10,73,7,14,1
88,1,23,28,4,2,25
8,13,2,2,1,108,36
12,132,1,4,7,10,2
12,17,0,53,9,10,0
76,35,20,84,2,1,1
9,6,17,7,9,45,49
1,52,2,1,2,77,31
7,16,1,27,2,5,3
55,1,1,79,13,15,1
66,1,14,27,7,6,7
4,69,9,2,23,59,44
1,82,2,3,2,25,11
110,8,1,52,7,15,2
51,2,8,85,6,83,1
8,69,21,5,3,56,17
3,128,4,1,9,85,43
1,18,0,22,3,6,6
66,26,0,66,2,38,1
105,78,5,30,10,43,1
4,76,23,2,1,24,32
2,45,8,5,11,12,25
53,3,1,55,1,4,1
127,27,1,89,4,56,1
11,44,6,6,9,49,3
4,93,25,2,1,7,44
19,10,9,18,10,9,17
130,1,2,63,1,1,2
11,133,1,26,8,81,0
1,65,0,2,7,26,19
29,11,18,4,1,6,37
91,3,22,56,16,2,2
11,228,3,93,2,64,0
2,66,2,7,5,10,2
13,3,15,2,5,45,34
83,66,27,16,2,4,23
26,142,4,65,11,14,2
2,15,2,31,1,86,2
8,2,1,1,6,21,4
60,0,18,2,15,3,44
164,58,26,58,4,20,16
7,116,2,89,6,6,2
1,35,2,7,0,101,1
39,4,8,2,6,34,20
97,90,32,14,12,3,36
16,96,21,61,10,31,2
2,6,1,30,5,45,0
28,29,1,2,1,8,1
87,106,5,5,8,5,22
38,123,27,52,9,20,22
1,3,4,95,7,112,3
2,1,1,8,10,8,1
50,105,0,2,2,3,6
100,130,8,15,6,5,50
3,13,28,64,7,29,15
6,1,7,32,7,61,0
29,2,0,2,6,16,0
139,3,0,4,2,14,18
9,79,12,54,3,34,35
2,41,35,96,15,22,3
19,3,5,9,7,5,1
83,156,0,2,6,0,1
40,39,1,18,2,112,31
3,2,11,77,5,31,26
1,13,25,29,8,18,2
81,271,4,2,2,57,1
95,96,1,7,19,5,7
10,4,1,58,2,26,45
1,2,19,97,5,97,16
25,39,11,8,16,18,1
102,123,2,1,8,7,1
11,12,2,15,7,39,21
0,2,19,67,0,32,36
24,94,43,33,6,3,3
70,12,8,2,11,28,2
23,28,2,2,2,26,2
3,1,0,52,8,26,36
2,18,14,104,2,60,35
39,68,27,5,7,3,5
49,4,2,2,9,48,1
5,2,1,35,1,38,4
2,105,1,87,12,7,38
15,17,25,16,0,3,15
86,48,14,3,3,5,1
28,3,3,16,14,35,1
1,1,1,74,4,5,19
5,169,5,37,6,69,41
81,129,13,3,1,9,5
39,4,16,1,6,7,1
2,32,2,52,11,20,1
2,155,9,102,5,29,27
1,25,46,5,9,8,30
79,3,19,1,2,3,4
26,84,3,31,4,35,0
2,74,2,82,9,48,8
1,10,0,19,0,33,41
33,19,20,0,14,14,9
70,25,33,11,1,40,1
6,37,4,69,15,66,0
0,70,2,40,21,40,17
44,48,1,4,10,15,44
75,2,6,2,2,21,7
13,118,3,42,2,49,1
5,88,2,95,12,41,0
5,11,0,9,1,2,18
39,2,36,2,16,12,39
93,43,59,15,3,48,4
9,157,38,66,4,26,1
3,15,33,37,6,0,1
8,1,1,3,0,5,31
72,86,1,0,11,66,26
40,158,49,49,2,95,1
2,8,9,99,4,14,1
2,2,14,9,10,20,4
35,13,16,2,4,39,41
60,194,3,13,6,93,18
9,15,102,67,2,10,2
1,2,17,39,3,1,0
12,56,9,3,16,7,7
37,165,38,5,5,53,34
56,7,12,52,10,32,22
12,10,41,96,2,2,2
2,114,3,10,9,2,1
45,144,2,2,6,82,28
64,7,90,19,3,16,24
19,1,8,75,4,29,2
2,74,29,21,0,1,1
4,171,7,2,5,29,2
52,18,39,10,14,79,35
54,1,3,65,4,11,21
3,40,69,40,7,2,2
1,191,61,2,1,32,1
32,20,40,2,2,25,15
89,1,29,44,8,33,37
11,58,15,92,2,2,3
1,161,185,10,11,9,0
45,14,14,3,2,56,0
72,0,0,28,10,79,26
21,97,54,74,6,17,23
0,205,44,16,1,2,2
69,13,187,1,6,3,0
130,1,7,24,2,27,2
10,62,2,65,4,58,29
1,49,118,26,14,4,23
3,17,88,1,1,7,1
108,2,5,2,7,10,1
50,1,1,98,2,58,12
2,153,76,91,1,37,43
1,79,127,9,4,6,5
73,3,42,2,2,15,1
120,12,19,2,15,11,1
10,196,107,49,3,41,30
4,50,206,112,3,2,32
10,4,16,6,16,2,2
137,0,2,2,2,78,0
8,5,60,48,10,60,2
0,169,91,125,1,21,34
24,25,65,5,4,22,16
85,2,8,1,5,43,2
30,151,3,40,0,52,0
1,16,121,44,10,5,13
9,2,31,17,2,1,43
95,1,8,1,9,25,7
84,50,34,2,10,60,0
5,197,92,76,13,13,0
0,12,30,47,3,34,33
61,0,4,4,1,9,43
66,80,103,1,9,20,5
26,121,32,4,3,33,2
1,51,1,17,14,5,3
1,8,8,116,5,1,37
76,1,274,3,3,55,15
60,10,18,35,10,67,2
5,169,27,15,1,12,2
0,13,76,59,15,0,15
6,5,55,3,1,16,39
68,160,30,2,3,13,4
150,29,4,10,11,38,0
4,3,5,161,3,13,0
1,2,14,21,14,58,30
43,119,170,2,2,16,26
90,254,16,10,9,27,3
5,9,2,35,7,9,1
1,1,1,1,3,18,5
19,232,2,13,9,9,33
78,104,83,18,2,104,25
30,2,25,69,1,5,3
3,170,0,116,12,5,2
13,15,24,2,2,20,24
83,118,28,4,9,36,41
46,6,297,98,2,25,3
2,17,9,70,2,2,1
1,187,22,4,12,1,1
42,114,106,20,2,30,25
80,4,182,36,15,44,32
13,19,4,115,2,3,4
0,83,1,6,7,59,2
19,5,81,2,7,52,2
90,2,204,0,0,21,40
24,53,6,62,6,3,20
1,133,2,130,2,24,1
1,47,50,3,2,32,0
70,3,151,6,13,28,13
102,1,141,74,9,4,34
3,41,7,146,15,2,4
25,129,12,5,2,1,1
28,53,70,4,9,28,0
127,4,183,239,4,34,24
4,6,30,47,2,39,31
2,66,42,4,13,12,2
51,40,117,2,2,29,0
90,22,5,29,6,49,8
12,17,1,22,4,9,48
1,171,195,44,1,0,21
13,39,48,5,12,27,2
54,1,36,29,1,44,0
43,59,17,10,5,9,14
3,125,77,81,13,2,36
5,21,76,4,12,2,4
42,1,4,35,4,35,0
98,19,3,35,2,16,1
10,308,43,67,6,40,29
1,21,13,2,4,2,39
18,0,86,1,8,45,4
74,95,157,24,6,7,0
15,204,4,159,0,61,2
1,11,2,12,11,5,42
11,1,107,2,5,6,20
81,185,47,26,9,20,2
25,83,27,106,9,28,0
2,5,35,7,2,14,15
0,0,4,9,6,1,41
21,29,10,135,10,7,5
44,100,34,36,10,25,1
18,137,59,5,3,38,0
2,3,22,1,4,2,39
75,88,71,1,9,5,37
131,188,5,112,1,3,3
7,17,47,73,10,79,1
2,1,14,5,7,52,3
33,106,2,3,3,3,37
55,185,144,16,12,29,17
27,16,8,137,2,34,2
3,2,7,14,14,11,0
13,45,93,8,2,3,13
81,285,25,66,2,1,40
52,19,2,5,14,23,3
3,4,195,1,1,40,0
0,75,27,5,16,8,0
21,342,3,142,1,2,37
58,24,108,32,8,4,40
51,92,142,55,11,11,4
2,84,133,4,6,41,1
21,176,10,2,1,19,3
58,7,90,123,0,1,36
55,1,49,88,14,79,17
2,78,27,5,7,51,1
1,268,73,0,6,23,1
57,36,7,0,3,2,14
101,2,286,16,1,16,27
5,13,16,162,5,28,3
1,218,6,9,6,26,0
11,25,153,2,0,3,0
56,78,29,14,16,4,27
22,18,96,10,3,18,32
2,99,7,25,6,46,3
6,142,2,17,9,6,0
74,3,26,82,1,21,1
79,154,107,72,9,1,33
5,98,21,4,2,92,22
1,4,66,1,2,44,1
77,33,67,225,19,4,1
49,182,36,35,2,109,12
12,64,2,2,10,17,43
1,6,10,0,1,20,6
1,2,56,6,6,1,1
66,0,148,118,8,1,2
71,62,25,188,2,37,22
3,58,28,6,9,51,38
1,22,119,2,3,5,4
9,154,28,91,2,1,0
149,26,67,110,14,2,1
24,2,21,7,3,34,40
2,16,189,17,15,56,29
5,0,9,1,2,4,3
40,73,70,45,4,3,1
87,379,10,55,6,72,10
6,25,208,3,1,19,36
0,111,20,2,7,2,5
7,335,24,74,1,0,2
71,21,35,8,3,68,0
26,1,57,56,12,29,29
2,0,50,6,2,28,36
26,192,2,48,13,2,4
79,14,1,115,2,2,2
54,52,16,9,3,23,1
4,197,40,0,7,32,35
2,18,36,15,2,11,14
27,0,46,365,15,1,1
91,0,58,36,1,39,1
9,78,137,3,3,17,16
2,235,4,25,9,37,46
3,55,10,196,2,3,4
29,3,32,35,10,26,2
111,10,62,2,2,22,0
3,194,43,43,4,96,43
2,108,6,132,11,8,44
8,3,58,14,6,2,3
71,79,25,1,8,40,1
71,282,5,4,2,48,1
4,44,77,156,2,13,31
1,4,6,69,2,2,16
36,1,16,5,1,5,1
87,162,82,1,20,20,0
11,84,60,33,1,87,14
2,6,4,221,2,9,45
22,15,2,9,1,1,4
57,401,20,52,3,15,0
17,21,10,86,19,26,1
2,9,162,67,1,27,27
7,25,55,11,5,2,41
41,113,91,1,14,2,2
82,35,22,62,4,38,1
6,24,3,133,6,58,1
1,131,11,5,2,5,37
25,4,130,7,4,13,24
90,6,52,41,8,39,1
19,1,38,273,2,39,1
1,5,10,17,10,21,13
3,125,23,1,1,1,51
76,105,99,1,5,79,6
83,17,43,305,10,17,2
5,1,41,61,5,18,1
1,107,3,5,11,1,31
2,74,1,18,1,55,35
61,5,8,62,7,59,2
51,2,85,120,4,26,1
3,24,109,4,7,4,1
9,175,27,41,8,17,37
32,158,28,11,1,32,12
85,4,4,264,4,55,0
7,26,63,30,10,6,1
0,136,13,7,3,0,10
3,7,52,45,5,31,43
69,14,3,136,2,31,7
95,289,58,6,5,14,0
7,12,17,45,11,6,0
2,2,65,32,6,27,20
14,8,5,286,6,29,36
77,122,3,9,1,43,2
21,162,121,2,3,1,1
3,6,89,69,8,38,0
1,1,31,30,3,27,37
5,95,18,2,10,97,21
81,278,115,0,0,10,1
71,12,18,6,1,14,0
4,1,10,88,5,20,12
9,77,4,54,3,78,42
61,188,139,27,16,15,6
42,29,6,1,1,2,2
3,3,1,53,2,24,0
0,1,17,127,11,80,13
46,73,46,5,2,17,40
103,89,17,1,7,1,4
5,8,2,79,2,88,1
2,26,55,201,2,56,2
47,218,24,10,6,10,37
82,17,33,0,1,1,21
22,2,11,5,20,3,2
2,103,77,94,1,71,1
2,266,5,61,2,45,9
49,25,74,9,5,5,43
119,2,49,53,2,2,11
4,2,44,3,8,2,1
1,212,41,87,1,49,1
39,42,34,8,1,76,24
84,4,2,7,17,5,39
31,4,7,71,5,9,4
2,143,120,23,14,7,2
20,84,99,34,1,28,1
67,3,7,3,16,16,33
26,0,2,1,13,2,23
2,69,15,19,45,2,3
1,326,2,103,28,53,0
77,22,185,16,3,53,2
102,4,24,24,30,2,46
5,183,20,2,10,2,29
1,129,7,142,6,3,3
34,4,90,18,8,50,0
73,37,10,10,6,34,27
17,170,54,127,7,6,49
2,96,93,23,17,6,5
30,35,81,1,75,11,1
64,1,3,12,5,29,0
26,19,25,58,13,18,42
3,175,2,102,16,1,33
3,10,75,3,16,15,3
58,88,52,30,11,26,0
79,22,6,95,32,13,10
5,3,39,22,8,2,51
0,0,20,4,6,43,8
23,3,169,124,3,23,1
79,85,9,118,6,30,1
28,83,68,54,59,3,24
3,23,46,4,31,8,55
24,2,64,0,10,8,6
81,73,23,150,31,36,0
55,27,3,244,8,16,2
4,162,1,17,2,3,39
2,25,77,1,59,7,32
11,31,6,28,20,14,2
95,210,97,160,8,51,1
17,85,16,53,1,6,9
1,6,2,3,0,1,46
4,84,1,2,35,12,21
72,251,76,69,16,20,2
61,9,45,6,67,18,0
5,0,10,50,8,1,23
2,7,5,90,1,69,33
51,222,25,66,4,12,3
86,256,30,6,1,30,1
10,10,101,2,5,6,0
1,1,40,2,52,1,32
8,165,1,108,4,13,24
66,111,12,91,9,6,2
38,17,47,5,2,30,2
3,1,131,1,8,3,1
2,69,5,6,19,3,40
34,219,2,144,45,30,20
81,8,13,58,44,92,2
13,3,102,3,6,7,1
2,66,13,0,17,2,19
2,115,10,5,2,18,31
64,4,8,226,10,21,2
65,138,63,16,2,15,2
5,151,44,110,27,1,1
4,22,124,20,22,22,28
25,2,6,251,19,89,24
105,32,0,7,2,15,1
9,216,92,44,2,2,0
2,13,17,199,1,102,8
1,2,41,26,15,22,43
48,100,34,2,12,8,11
62,191,53,120,81,34,0
9,63,3,59,17,17,0
1,5,0,8,5,21,17
11,184,11,79,46,74,40
73,242,56,4,3,5,4
17,25,29,39,10,8,1
1,6,3,125,2,9,1
19,118,1,29,8,29,33
83,183,66,19,3,10,23
31,14,41,110,21,0,2
2,97,7,45,112,4,1
0,6,2,2,6,12,8
44,104,2,43,0,93,40
121,5,84,168,15,11,9
4,92,26,17,65,3,1
1,51,7,0,10,1,0
33,138,11,2,1,19,14
63,4,26,280,7,36,49
16,127,4,80,1,3,6
2,107,18,5,4,6,2
9,25,38,1,1,15,0
62,1,21,34,1,37,20
62,69,27,58,34,4,33
5,351,106,121,30,13,3
1,48,3,8,7,39,2
31,3,2,2,3,25,0
91,7,67,36,8,13,37
15,35,53,30,6,14,23
1,123,68,52,17,6,2
9,23,22,63,42,37,0
59,1,11,6,8,10,6
77,145,15,90,10,4,45
4,135,1,33,7,14,14
1,9,43,3,25,3,0
17,57,96,10,5,29,1
90,33,76,58,3,62,22
24,2,11,4,16,14,34
2,36,23,3,3,4,2
9,17,15,0,19,38,1
49,1,1,93,16,11,2
41,99,11,191,1,4,48
3,13,31,8,13,2,27
0,105,194,5,7,21,2
33,256,14,77,17,14,2
79,7,1,14,4,0,4
17,1,35,40,2,1,43
1,118,75,147,1,30,17
7,138,79,6,4,10,1
65,5,27,39,26,12,2
60,1,5,16,3,12,17
5,0,12,3,21,2,36
2,63,1,8,1,27,5
38,152,47,23,15,17,1
90,21,33,48,13,1,0
17,2,2,3,27,5,39
1,109,9,20,3,32,37
3,95,78,171,3,14,2
83,9,24,20,10,16,0
70,0,1,7,2,19,6
6,0,43,9,2,21,37
1,445,175,3,2,35,15
19,46,7,88,3,12,0
47,4,24,10,41,2,0
36,3,66,1,4,4,20
2,93,17,166,3,11,40
2,192,5,50,2,11,2
54,14,9,10,6,10,1
65,22,41,0,2,2,0
6,162,45,24,10,11,33
1,26,10,187,13,62,27
9,1,60,28,2,28,2
67,57,3,2,1,11,0
51,263,48,1,14,4,15
4,19,98,30,13,33,58
5,31,43,12,13,4,7
52,2,15,35,4,7,1
102,125,2,11,13,37,1
5,224,3,59,3,5,16
1,58,13,141,31,14,37
17,3,30,26,5,2,4
60,72,29,47,8,11,0
16,98,97,15,12,1,0
1,31,98,14,0,22,29
3,7,6,6,1,68,29
58,81,2,2,26,4,2
64,26,5,19,47,9,1
4,38,47,22,6,23,3
1,135,81,16,6,5,39
18,39,97,3,2,7,16
80,2,16,5,5,5,1
19,0,25,72,16,1,2
0,61,31,114,7,5,9
7,153,26,6,22,15,46
66,177,23,2,10,13,15
64,9,50,7,4,27,1
5,1,36,29,3,50,0
2,1,2,18,8,40,32
42,102,3,29,12,4,40
90,52,20,30,7,21,3
24,11,196,3,12,2,1
1,1,32,6,2,33,4
2,63,25,25,1,16,45
62,16,30,9,8,17,22
72,82,19,68,17,17,2
5,164,17,100,27,11,1
1,36,112,2,1,23,22
19,2,56,0,0,1,53
77,15,5,69,36,0,5
22,88,0,14,31,43,1
2,188,0,18,5,19,2
2,20,124,84,1,4,45
64,2,261,12,25,2,40
79,119,9,62,20,45,3
6,22,2,2,12,21,1
2,1,42,0,2,49,6
18,1,144,23,2,4,42
88,5,60,54,8,1,15
27,119,9,128,17,1,0
3,71,9,4,34,2,1
0,4,122,28,2,65,22
66,23,40,69,12,20,42
86,84,17,17,2,3,5
6,67,5,1,22,9,1
1,4,244,7,21,16,1
17,1,50,178,2,6,33
84,59,2,25,19,1,30
19,170,77,3,77,49,2
3,18,192,0,15,10,1
7,2,92,37,1,3,3
63,83,8,115,28,2,45
76,109,7,37,45,1,12
6,5,2,3,18,1,1
1,2,112,85,4,29,0
16,20,177,61,6,12,19
78,111,6,6,27,26,42
20,21,40,2,21,10,5
1,1,65,26,4,9,2
1,2,60,22,15,3,0
61,117,83,4,8,24,33
81,36,42,65,8,9,33
5,2,10,9,31,9,3
1,1,10,1,2,12,2
12,79,12,66,1,36,5
71,122,54,46,35,6,45
24,6,195,2,57,3,21
2,1,5,6,10,8,1
2,18,113,133,2,14,1
47,121,26,80,0,6,17
85,9,56,9,6,1,42
6,1,53,1,34,1,6
2,18,9,0,5,7,1
10,146,9,18,1,43,1
74,17,111,25,22,34,30
27,2,4,8,47,13,23
3,6,8,21,4,0,1
2,133,318,60,1,30,0
54,30,19,63,34,11,17
87,2,83,2,43,3,52
6,1,5,0,11,2,6
0,64,162,8,20,14,1
9,130,30,37,5,5,1
71,4,30,56,6,6,19
55,2,18,62,33,29,43
3,27,16,21,14,22,4
1,150,4,23,4,29,1
32,10,12,8,0,6,1
84,2,20,1,24,2,24
15,37,173,113,56,1,31
2,125,104,109,11,22,3
11,5,2,14,2,21,1
72,1,56,1,1,67,5
29,9,19,1,42,11,41
1,130,196,26,21,18,21
1,31,80,39,3,55,1
52,3,30,15,4,7,2
85,0,4,26,1,6,22
5,52,227,73,15,9,58
2,113,45,5,17,49,9
9,6,4,1,5,6,1
65,1,59,0,25,10,0
56,35,8,27,29,2,27
2,64,104,177,4,1,35
2,38,82,10,2,6,3
30,2,5,1,5,41,1
90,4,0,32,12,5,5
20,143,191,104,11,2,39
2,30,79,24,3,14,16
7,2,28,3,12,29,1
65,3,57,0,4,19,0
56,67,66,167,49,9,19
2,123,95,57,7,2,45
2,6,5,49,16,2,4
28,1,155,41,3,29,1
84,16,12,8,1,38,0
14,114,47,0,17,2,35
1,7,179,27,12,52,30
8,1,149,27,7,6,2
72,1,18,41,0,63,1
66,93,56,39,7,12,4
3,95,84,92,51,6,46
1,7,283,4,18,2,22
33,1,16,88,1,32,2
89,32,3,116,1,5,1
16,112,9,6,44,3,14
2,12,35,0,43,2,41
5,2,208,1,4,2,3
55,26,37,67,1,3,2
74,100,101,42,1,2,1
4,11,24,3,34,2,30
2,0,89,1,14,1,37
32,13,36,146,6,28,3
94,100,221,89,1,46,0
17,10,17,19,1,13,3
2,1,2,1,26,5,38
4,9,58,1,64,9,17
64,64,36,37,13,8,2
65,39,199,25,1,9,0
5,4,41,1,26,2,22
1,3,15,103,17,5,46
25,46,80,42,1,1,5
87,40,48,2,1,2,1
16,8,24,99,10,30,0
2,1,88,21,30,3,26
6,2,19,23,5,10,37
70,53,24,70,0,2,3
65,38,73,3,2,4,2
5,3,6,0,21,9,2
0,0,173,2,14,7,40
19,4,90,68,9,0,18
101,75,22,57,1,1,1
11,26,18,13,8,1,0
2,2,278,3,37,14,16
25,1,15,21,26,10,49
85,33,19,8,1,1,4
19,71,25,17,1,1,2
0,8,55,1,27,25,0
5,1,62,41,36,29,30
64,2,25,82,4,2,45
61,57,88,116,1,1,4
3,62,36,3,0,0,1
0,4,8,32,18,16,3
27,1,2,35,31,16,45
88,11,14,17,5,3,27
20,56,83,34,2,1,3
1,18,13,14,6,2,1
4,1,81,64,59,5,13
57,0,5,9,15,36,46
61,31,1,1,3,5,8
5,51,76,87,0,4,1
0,3,27,90,72,0,1
12,1,21,45,34,4,35
72,5,174,4,2,15,50
24,59,8,4,1,1,3
1,29,57,0,1,1,0
5,1,24,1,20,2,2
55,1,43,10,23,6,43
61,21,235,56,4,1,29
3,48,7,2,1,1,1
2,7,15,1,1,1,1
13,2,52,88,17,2,10
64,2,30,18,11,2,49
19,41,11,4,4,1,8
1,51,55,5,27,5,2
5,4,19,15,53,2,1
54,1,2,106,8,0,30
59,14,57,7,2,12,38
3,66,55,2,2,38,3
1,18,17,33,2,7,2
20,0,116,4,20,4,8
64,1,2,9,32,1,51
16,34,1,3,3,0,22
1,47,25,3,1,7,3
6,3,38,4,2,25,1
62,1,132,60,34,7,14
73,5,4,73,10,2,49
4,56,2,4,2,10,5
2,27,54,0,15,3,1
16,1,35,2,37,1,1
66,1,17,89,59,0,29
18,22,2,46,5,21,35
2,65,49,3,0,28,3
3,7,11,13,3,5,1
47,2,1,41,30,2,4
51,1,0,92,15,1,45
4,40,11,6,1,4,24
1,52,38,0,0,2,1
24,4,98,0,15,0,2
66,1,32,0,155,19,12
17,5,4,123,8,6,48
0,59,1,24,3,3,6
2,33,1,77,0,2,1
53,2,74,76,34,14,0
69,2,15,6,10,4,33
5,35,1,0,1,1,34
0,55,74,45,2,0,2
6,12,31,13,32,2,0
66,1,3,78,51,8,9
59,5,9,5,8,13,52
3,68,2,3,4,2,23
1,39,27,103,3,2,2
39,4,6,8,8,3,1
86,1,1,4,41,9,14
9,30,1,0,9,1,47
2,79,7,28,2,1,6
0,12,21,126,1,6,1
58,1,16,8,21,0,1
