HandOpen,HandClose,Wrist Flexion,Wrist Extension,Supination,Pronation,Rest
4,0,24,25,2,0,7
1,1,25,20,2,2,6
2,5,18,22,1,17,6
0,22,8,18,1,45,20
5,38,3,8,2,54,41
28,41,1,3,8,49,51
44,33,1,2,25,42,43
49,20,1,0,32,33,19
54,8,2,1,27,17,8
55,3,2,1,25,8,3
50,3,12,1,24,4,1
28,1,31,6,16,2,2
12,1,34,19,7,2,1
5,0,32,28,4,1,0
2,0,25,24,1,2,2
0,2,24,21,1,1,5
1,5,15,19,1,19,10
2,24,6,15,2,44,29
3,39,2,7,2,61,63
20,42,2,4,11,56,75
41,33,2,1,25,47,60
46,21,0,2,31,34,24
49,9,2,1,27,16,10
52,3,2,2,26,6,3
44,2,16,1,23,3,2
23,2,34,5,12,1,2
9,2,37,16,6,1,2
2,2,28,24,1,1,2
1,2,22,23,2,8,15
29,1,1,12,2,58,25
48,32,1,1,27,24,22
8,24,22,1,24,1,1
1,2,38,23,3,2,0
0,1,4,17,2,34,7
43,3,1,3,6,40,45
52,40,0,0,38,6,11
6,11,35,4,20,1,0
2,1,39,26,1,2,11
6,1,3,17,2,57,31
43,18,2,3,13,28,22
41,34,10,2,23,2,1
3,4,22,14,4,0,0
1,2,8,23,1,13,11
25,2,0,7,1,51,49
54,33,1,2,24,10,5
9,22,37,1,26,0,0
2,3,35,24,1,3,16
2,0,5,20,2,56,26
40,3,2,2,3,35,23
50,42,1,0,36,2,0
6,11,33,2,21,2,1
0,0,26,28,2,14,8
7,2,4,19,0,50,44
44,16,1,2,15,9,10
42,32,5,0,24,1,1
3,3,27,12,5,0,8
1,0,23,27,1,39,19
24,0,3,5,1,41,47
54,30,0,1,30,6,3
11,21,17,1,22,1,2
1,2,25,25,4,0,7
8,1,6,25,0,46,29
45,2,1,3,5,35,24
42,39,0,1,31,3,2
1,11,41,0,22,0,1
0,0,31,27,3,8,8
25,1,3,21,0,54,42
57,17,2,2,13,22,10
11,33,6,0,24,1,1
1,1,19,10,5,0,7
7,0,26,22,0,38,15
50,1,4,12,1,43,45
41,30,1,0,29,5,2
3,24,19,1,24,1,1
2,2,31,28,2,0,13
27,2,3,20,0,50,44
53,1,1,1,1,35,12
9,39,1,2,32,2,1
2,12,36,11,20,0,6
0,2,23,21,2,9,17
38,0,1,8,0,62,36
49,13,1,2,14,24,1
6,33,17,2,30,1,0
1,2,36,19,6,0,20
7,0,8,25,1,28,43
44,0,2,3,0,40,12
40,29,1,0,29,5,0
1,26,30,0,19,2,7
2,1,33,30,3,0,12
25,0,5,18,1,49,52
53,1,1,1,2,36,3
10,39,1,0,36,3,2
2,12,38,16,24,0,17
8,2,27,23,1,13,41
50,1,3,15,1,54,11
42,14,2,1,18,11,0
2,30,11,0,28,1,5
0,3,33,30,8,0,24
25,2,10,38,2,53,50
53,0,1,2,1,36,2
11,27,0,2,29,2,3
0,21,36,13,22,2,14
4,2,21,18,3,10,44
49,1,2,15,0,48,13
43,3,1,3,3,9,1
2,35,4,3,33,1,10
2,12,37,22,21,1,29
25,1,22,16,3,34,24
55,0,3,8,0,39,2
12,13,0,2,13,4,0
1,33,23,13,27,1,13
2,1,30,25,6,1,48
47,2,9,17,2,51,5
44,0,3,2,0,39,1
2,28,1,1,21,2,6
1,24,29,25,26,0,14
22,1,32,17,4,11,53
54,0,5,1,0,52,3
11,2,0,0,1,10,0
0,40,5,10,39,2,17
5,11,31,21,20,0,43
47,2,19,7,3,54,11
45,0,1,2,0,35,1
3,13,0,0,18,2,2
0,34,24,21,22,1,17
23,3,29,22,4,10,51
55,1,5,3,0,52,3
11,1,2,0,0,12,1
2,31,2,1,26,1,14
3,25,27,24,27,0,44
48,2,29,21,4,48,14
43,0,2,2,2,34,2
2,1,1,2,1,4,4
1,39,15,11,36,0,15
23,13,30,23,25,15,45
57,0,7,8,2,58,3
12,0,1,2,1,8,0
1,11,0,2,11,1,16
5,32,19,27,30,1,38
50,3,18,21,6,31,15
47,0,2,3,2,45,0
1,2,2,0,1,7,6
0,26,0,3,29,0,14
23,26,29,29,24,2,47
57,2,23,22,3,56,3
10,1,1,2,2,35,0
0,2,2,2,3,3,18
3,40,1,11,34,2,43
51,13,34,22,17,10,14
42,1,18,8,1,55,0
2,1,2,2,0,13,6
1,11,2,0,16,2,12
20,33,17,22,26,1,46
58,3,22,21,10,50,3
13,1,5,5,2,38,1
0,0,1,0,3,2,14
4,27,0,1,39,0,38
49,28,41,29,23,12,15
40,3,26,20,2,55,0
2,1,5,3,1,13,3
2,1,1,2,12,2,14
26,39,3,8,31,2,48
53,14,24,27,9,50,3
10,0,29,15,1,39,2
1,0,3,0,2,4,17
1,8,0,1,23,2,39
108,43,18,19,22,10,13
44,7,24,21,5,49,2
3,0,5,4,1,12,2
1,2,1,1,2,1,17
36,8,1,1,31,2,50
50,44,28,25,22,47,3
5,7,18,18,1,37,0
1,3,2,4,1,3,14
2,1,1,0,11,1,33
30,7,6,9,29,9,16
46,41,26,24,7,60,0
3,8,19,13,1,27,5
1,3,1,0,2,1,17
19,1,1,1,23,0,47
50,7,22,21,38,28,4
13,43,37,20,4,53,0
1,6,4,6,2,8,22
2,2,2,2,2,1,36
44,2,2,16,31,1,15
41,9,28,52,21,48,2
4,40,47,31,1,41,2
2,6,7,2,1,3,16
13,1,1,12,11,0,31
51,1,1,12,21,9,3
12,8,32,16,6,60,1
3,42,23,3,1,21,15
8,5,2,1,0,2,33
49,2,0,6,25,2,20
46,2,17,39,28,26,2
4,7,28,13,2,46,0
0,40,7,29,1,6,4
17,8,2,1,1,2,62
49,2,0,45,33,0,9
13,0,27,59,23,49,1
2,7,27,7,3,38,3
1,40,4,1,2,4,17
44,7,1,14,10,2,45
47,1,3,39,26,9,2
4,2,42,25,10,53,1
1,6,30,2,1,25,16
14,41,3,11,2,2,32
51,7,1,37,37,0,22
14,2,15,11,21,27,0
2,1,22,33,1,43,2
1,6,4,1,0,6,16
42,41,2,18,12,2,51
42,8,0,20,28,2,4
3,3,30,2,7,50,1
1,0,18,1,1,36,13
10,7,4,14,2,3,31
47,44,1,37,24,1,18
13,8,4,22,24,8,0
2,0,37,6,4,56,1
5,0,18,2,2,27,14
46,7,1,17,3,1,52
48,41,0,19,35,1,4
4,8,13,2,16,29,1
0,3,29,13,1,46,13
12,1,8,19,1,6,29
49,6,1,14,17,2,17
15,43,2,4,24,1,1
1,7,29,0,6,48,2
2,0,27,1,2,47,9
44,1,3,25,0,3,57
48,6,1,20,27,0,9
4,43,8,1,25,3,2
1,8,35,1,4,56,2
12,2,23,3,2,25,10
49,0,1,24,0,1,55
19,7,0,18,36,0,4
0,39,17,2,28,29,2
1,8,32,1,3,54,11
43,0,5,25,1,7,32
48,0,1,126,13,1,19
4,8,0,3,29,2,2
2,40,31,1,7,49,1
10,6,41,16,1,37,11
49,1,6,18,1,2,58
17,2,2,7,23,0,5
0,6,2,1,23,8,1
1,42,32,4,4,58,10
42,7,27,122,1,30,30
50,2,2,5,1,1,23
5,2,1,3,33,1,2
2,5,10,1,23,27,1
10,44,26,2,1,44,7
53,8,10,26,0,8,36
19,1,1,33,17,1,10
1,1,6,5,26,0,0
0,5,37,1,9,46,4
45,43,24,18,2,41,23
54,9,2,17,2,5,58
6,1,1,198,15,0,1
0,1,22,4,31,9,0
11,5,29,29,5,59,23
49,42,7,10,0,31,45
20,8,1,2,1,2,11
1,1,2,0,35,1,0
1,1,21,12,21,25,7
44,5,35,26,1,51,17
47,41,8,110,1,9,52
4,9,1,15,7,0,3
0,2,4,4,33,0,0
8,0,32,14,17,44,16
45,5,22,17,0,39,47
40,40,3,27,2,3,12
2,7,1,2,20,0,1
0,2,9,155,21,5,9
32,0,31,12,3,57,15
52,7,10,65,2,23,54
9,42,0,9,2,2,2
0,10,2,4,39,1,1
2,2,23,16,18,22,18
48,1,21,44,2,50,45
50,19,3,2,2,7,14
4,31,1,184,17,1,2
2,2,3,5,24,0,8
8,1,37,296,8,43,13
45,1,17,9,1,36,53
39,35,2,69,1,4,2
1,18,0,13,22,2,0
1,3,2,60,26,8,12
28,1,20,9,3,57,43
53,4,9,2,1,31,12
9,40,1,12,2,2,2
0,7,0,21,34,0,12
2,2,7,5,21,34,31
41,1,27,1,2,46,30
51,4,15,2,1,7,2
4,39,1,27,13,2,0
0,8,0,21,26,2,11
8,2,27,2,10,46,52
49,1,23,2,0,41,5
39,5,3,3,2,5,0
1,42,1,26,32,2,11
1,9,2,17,21,6,26
26,2,21,2,2,63,29
52,0,31,41,1,25,2
10,2,4,19,5,1,1
1,41,0,16,28,0,11
8,11,5,1,13,27,53
50,1,24,0,0,49,4
41,1,22,36,2,9,0
3,18,2,72,24,1,3
0,32,0,5,26,1,16
25,2,35,13,3,46,61
54,2,19,2,1,40,5
8,0,3,19,0,4,2
1,33,1,16,32,2,20
1,22,1,2,20,8,47
46,1,29,48,1,57,13
52,1,27,5,1,27,0
4,3,3,14,9,2,10
0,41,0,7,29,0,22
7,9,8,1,17,26,33
51,2,28,2,2,46,2
41,2,21,13,0,5,0
2,4,1,19,19,0,9
0,36,0,4,24,1,37
26,8,30,1,4,47,15
57,1,32,1,1,35,2
10,0,5,26,1,3,6
0,4,1,21,32,2,12
4,36,2,2,22,6,48
49,8,31,0,3,51,2
45,2,24,9,2,30,1
3,0,3,20,5,1,20
1,1,1,9,35,1,41
26,42,15,3,14,20,14
52,9,31,0,1,49,0
11,1,7,1,1,10,3
0,1,2,29,18,0,18
7,3,1,12,19,2,51
51,40,29,1,3,54,4
41,11,17,0,0,29,0
3,3,1,12,1,2,13
2,1,1,20,28,0,43
23,15,2,5,23,22,16
53,32,43,1,3,51,0
11,3,19,0,1,7,4
0,0,0,26,4,0,14
4,2,2,20,28,2,47
46,31,10,2,22,39,3
43,20,30,2,1,37,1
2,1,8,3,0,3,16
0,2,1,26,17,2,38
23,3,0,17,30,5,12
54,41,33,1,4,55,1
11,8,26,4,2,31,6
1,1,5,9,2,2,19
4,1,0,22,30,2,48
47,1,2,11,20,18,2
44,39,25,0,1,51,2
3,9,29,0,2,8,17
1,0,2,26,7,1,43
19,2,1,17,33,2,16
51,2,13,3,16,47,1
12,39,29,2,2,42,3
0,9,8,2,2,5,12
4,0,1,33,18,1,53
45,1,1,13,23,8,4
45,2,32,0,4,56,0
3,42,23,1,1,32,15
0,9,3,13,2,1,36
20,2,1,20,33,0,16
52,2,4,5,27,24,2
11,0,29,2,2,51,4
0,40,24,1,0,7,16
4,10,2,24,5,0,44
47,1,0,21,34,2,3
43,0,9,3,22,41,0
1,17,35,0,3,34,16
0,32,12,3,1,4,39
19,3,2,27,23,0,16
52,1,2,21,24,5,1
11,0,20,1,4,58,2
1,29,31,2,2,31,12
1,20,5,13,0,1,52
42,2,0,22,36,1,6
49,0,2,6,21,18,2
2,2,37,1,1,47,14
1,39,23,2,1,7,38
16,12,3,23,9,1,21
53,1,0,20,31,0,0
14,1,8,3,16,39,4
0,13,26,0,1,40,8
1,30,16,3,2,5,6
47,3,1,28,18,0,13
45,1,1,18,29,5,0
3,0,42,1,4,64,32
0,29,29,2,2,28,35
17,20,4,11,1,2,48
51,2,1,25,30,0,2
14,1,2,5,25,18,1
1,3,35,0,3,54,8
2,36,26,0,1,10,38
45,11,1,25,3,0,18
48,0,1,23,31,5,2
3,0,6,1,19,55,7
1,17,34,1,3,34,12
17,33,21,2,1,2,55
51,4,1,25,17,2,4
15,1,1,20,23,17,0
0,1,23,3,3,44,11
2,28,30,1,1,10,34
44,24,6,13,2,2,17
45,0,0,25,31,6,0
3,0,1,5,27,53,2
1,2,35,1,4,28,20
15,40,14,2,2,2,41
51,12,4,19,8,1,3
15,0,0,24,38,20,2
2,0,9,2,19,44,16
3,13,26,0,1,7,32
48,32,22,3,1,2,20
45,1,1,30,17,0,2
3,1,1,10,29,46,3
1,0,29,5,3,46,17
13,28,23,0,0,5,48
49,23,5,46,2,1,5
19,1,1,11,34,3,1
1,2,2,5,28,59,9
1,1,37,2,3,33,22
43,39,20,2,2,3,46
47,13,1,22,6,0,2
4,1,0,15,31,16,2
1,2,4,2,19,47,17
15,12,20,0,2,9,48
49,30,26,2,0,2,9
14,3,2,28,20,2,0
2,1,1,28,23,41,2
1,2,16,6,5,39,15
48,29,18,1,2,4,56
50,25,4,18,1,1,6
2,3,0,13,36,3,1
2,1,0,15,22,62,17
15,1,39,1,2,30,28
52,39,24,21,1,2,21
16,13,2,31,6,1,1
2,0,1,28,41,18,1
1,0,10,3,11,52,16
49,11,26,2,0,10,33
45,33,9,26,1,1,4
4,2,1,9,17,2,0
1,1,0,3,29,61,15
13,0,22,2,5,30,45
51,28,25,0,0,2,30
15,27,4,36,2,2,1
1,1,2,7,30,13,0
1,1,2,4,20,43,8
44,0,30,4,2,9,47
49,39,23,1,0,2,11
4,13,4,30,5,0,1
1,2,2,13,34,34,16
15,1,5,4,19,41,30
50,10,28,2,0,5,23
16,36,20,11,1,0,1
1,4,1,16,17,2,0
2,0,2,9,26,54,9
47,0,23,1,4,33,47
51,30,26,6,2,3,9
4,29,6,5,1,0,0
2,2,2,53,34,20,1
14,3,1,9,20,41,7
52,1,39,1,2,9,46
15,38,18,0,2,1,7
1,14,2,8,6,2,2
1,1,2,21,35,38,2
47,2,12,12,26,42,11
47,9,25,1,2,4,60
5,45,10,31,1,2,6
2,8,1,7,19,1,1
14,1,3,35,22,57,8
51,0,34,8,6,32,22
16,8,24,2,2,1,50
1,46,2,18,0,1,2
1,7,1,28,27,16,2
46,0,6,6,22,47,14
48,0,30,2,4,8,46
4,8,33,3,1,1,15
1,41,2,13,5,2,1
13,5,1,13,38,41,9
53,0,18,14,19,45,16
17,0,21,5,1,4,49
1,10,5,31,0,1,3
0,34,2,14,19,2,0
44,3,1,41,27,61,7
51,0,34,10,4,32,35
3,1,32,1,0,1,36
2,26,2,23,1,1,1
10,27,0,34,23,17,1
54,2,8,14,32,48,16
19,0,25,5,4,8,55
2,2,15,41,1,1,7
0,37,1,4,4,0,1
44,13,0,17,37,35,10
50,2,27,2,20,42,30
4,0,38,0,1,5,26
0,11,4,23,2,2,1
10,32,1,17,15,3,2
51,3,1,7,26,54,9
21,1,40,7,5,31,46
2,1,19,6,0,2,8
2,24,2,54,2,1,0
45,29,1,36,28,16,0
51,2,16,3,24,50,11
3,0,27,3,3,9,53
1,1,7,16,1,0,6
9,37,1,64,4,2,3
49,14,1,3,36,34,12
40,1,32,2,20,43,32
1,0,30,1,1,5,32
0,8,5,76,2,0,2
30,42,1,7,9,1,1
55,7,1,1,19,52,11
9,2,42,3,17,31,58
2,1,21,1,2,1,5
0,10,5,29,1,1,2
44,39,2,17,32,25,9
50,4,6,5,25,47,13
5,0,32,7,4,8,41
1,1,9,5,0,2,2
9,20,1,20,6,0,2
45,29,0,35,31,40,30
36,2,4,2,20,44,54
2,0,38,0,1,4,16
1,1,17,31,0,0,1
24,37,2,24,15,2,8
51,17,1,2,19,54,5
10,1,21,2,6,30,49
0,0,25,49,2,3,10
7,10,5,11,2,0,2
47,35,1,10,31,18,17
38,3,0,2,26,43,35
1,1,43,2,3,9,16
0,2,27,76,2,1,1
27,22,3,8,2,1,12
52,29,0,3,35,29,28
11,2,6,0,21,39,34
2,1,32,0,3,5,1
5,2,23,20,1,1,1
47,36,3,42,12,2,22
40,11,0,2,22,54,43
2,0,15,1,6,32,6
2,1,19,1,2,1,3
25,8,5,28,1,1,5
54,42,1,54,25,14,11
11,7,1,3,26,48,55
0,1,43,1,3,11,3
7,1,30,8,0,2,2
46,6,3,16,2,2,9
41,45,2,58,41,55,26
2,8,6,3,23,36,41
1,3,27,0,2,3,1
24,1,15,29,2,0,0
54,6,2,19,22,12,5
11,41,2,2,20,50,45
1,7,27,2,4,10,17
3,1,27,0,1,2,2
47,1,4,24,1,3,3
43,5,2,43,26,58,15
3,42,2,4,26,31,59
1,8,42,4,4,2,4
25,2,40,1,1,1,1
52,0,5,8,0,14,16
11,6,1,11,30,51,36
0,41,6,3,20,11,15
5,6,29,1,2,0,1
47,1,20,14,1,3,1
42,0,2,21,14,59,18
4,11,1,29,24,35,53
1,38,16,3,7,1,6
26,5,30,4,1,1,0
53,0,5,38,1,14,19
10,2,1,20,27,48,38
2,21,2,1,27,10,15
3,29,31,1,2,1,0
46,2,34,4,2,3,4
49,0,2,24,1,54,22
3,1,2,15,41,36,53
0,33,8,2,23,2,4
22,20,29,0,1,0,2
52,1,16,23,0,9,13
12,0,2,15,13,51,36
2,4,0,13,23,29,17
4,39,16,2,6,2,2
47,10,29,5,2,0,7
45,1,10,30,1,36,8
3,2,2,11,25,37,50
1,19,3,2,23,4,9
23,31,36,1,1,1,2
53,2,33,23,1,1,3
12,1,3,15,1,57,9
1,1,0,9,36,32,51
3,33,18,2,17,1,10
45,18,36,1,3,2,1
45,3,7,38,1,12,15
3,0,1,12,13,53,32
0,6,0,1,26,12,17
23,44,42,1,6,0,2
52,11,27,9,1,1,4
12,1,5,24,0,51,14
3,0,0,24,32,34,49
5,18,5,1,19,3,5
47,33,39,0,1,1,2
44,1,21,18,0,13,15
2,1,1,14,2,48,35
0,1,0,1,38,10,18
22,30,24,1,22,1,1
55,21,24,9,2,0,0
12,1,6,22,0,53,8
1,1,0,20,9,42,55
2,2,2,3,29,4,9
47,39,38,1,15,2,2
41,10,44,1,2,13,6
1,1,6,22,1,54,9
1,0,2,20,20,7,51
22,18,6,1,28,1,9
54,31,21,0,4,2,2
13,2,24,16,2,29,1
2,1,2,33,3,40,10
3,1,0,4,27,5,51
48,31,34,2,17,2,5
45,18,43,2,1,1,1
3,3,6,36,2,52,7
2,1,1,14,10,31,19
19,4,1,1,27,3,47
52,42,30,0,6,1,3
13,10,22,5,1,15,2
2,0,3,49,1,48,14
1,0,2,8,28,9,46
47,17,6,1,20,1,4
47,30,38,2,4,0,1
3,2,25,4,1,37,3
0,1,2,27,1,47,10
17,0,0,16,32,5,55
56,32,23,17,24,1,6
13,22,27,2,2,1,2
2,1,8,24,1,48,18
1,2,1,14,7,38,29
47,2,1,1,29,3,23
47,43,21,0,15,0,2
3,12,23,4,1,11,1
0,0,2,28,1,51,11
16,2,0,13,27,10,54
51,17,8,2,29,0,4
14,30,39,1,3,1,1
2,1,31,16,1,55,16
3,0,3,19,2,39,26
45,3,1,11,35,3,23
47,31,16,2,22,0,1
4,18,20,4,3,12,0
1,2,6,24,2,52,12
13,0,1,26,10,11,52
53,1,2,3,25,1,6
13,40,22,0,10,0,1
2,11,29,16,2,52,10
3,2,7,21,1,35,35
47,1,1,22,34,2,24
49,17,8,4,19,2,3
5,30,32,7,0,14,1
0,3,16,21,1,46,10
13,1,2,23,14,9,57
56,2,0,2,29,1,5
18,33,12,1,5,0,0
2,20,26,19,1,37,13
2,1,17,16,0,50,32
43,1,2,3,24,7,23
46,2,11,5,22,2,2
3,41,19,2,5,0,0
1,10,10,22,1,54,8
14,2,2,22,1,56,47
52,0,0,2,37,3,12
14,12,28,0,22,0,2
2,31,27,2,2,13,6
1,2,5,25,0,52,27
43,0,0,43,12,9,49
48,0,5,1,26,1,3
3,31,42,0,8,0,1
1,20,19,14,0,36,21
16,1,1,40,1,46,56
52,0,0,2,21,6,10
16,1,14,2,24,2,0
2,40,34,2,4,0,9
1,11,9,22,0,56,18
46,0,2,16,1,44,52
50,0,0,2,40,3,2
4,12,8,1,22,2,1
1,33,4,2,1,14,10
11,3,17,24,1,51,45
51,2,3,22,11,18,13
15,1,21,4,24,2,3
2,32,30,1,8,5,9
1,24,17,3,2,49,16
45,2,3,13,0,43,49
51,0,3,27,26,3,2
4,3,92,1,26,0,0
2,38,27,1,5,27,19
13,9,27,35,0,59,47
52,1,0,17,1,9,11
16,0,12,4,29,2,2
1,2,9,2,23,0,7
2,43,20,6,2,15,10
46,10,36,26,1,63,50
51,1,2,19,5,12,3
5,1,21,1,26,0,0
2,12,64,2,13,23,21
11,32,19,10,1,37,47
51,3,250,18,1,21,13
19,0,144,4,29,3,2
1,1,7,1,2,2,8
0,26,2,0,1,18,17
45,26,1,25,18,51,53
47,2,87,21,85,3,3
4,1,131,1,23,24,0
2,0,17,0,0,18,12
10,38,18,2,27,35,48
54,10,21,25,68,4,15
19,1,155,27,21,2,0
2,2,27,2,27,19,8
0,15,6,2,30,192,12
49,34,42,12,1,16,51
52,3,9,21,16,4,5
5,0,18,5,88,3,1
1,1,62,2,51,19,14
11,34,29,1,26,40,41
49,24,6,26,18,17,15
18,2,27,17,45,18,0
1,1,4,3,2,1,7
0,1,57,2,1,71,18
43,40,165,6,33,69,53
49,12,18,28,70,5,3
3,1,2,17,17,6,2
0,1,2,2,62,64,14
10,11,5,2,12,28,40
53,33,10,17,24,3,13
19,5,123,17,99,13,2
2,1,9,5,13,62,7
2,1,107,1,4,93,14
44,26,20,2,11,10,49
51,25,56,31,38,5,3
4,2,43,24,5,55,0
0,2,44,3,2,67,16
9,1,169,2,9,10,43
46,50,6,1,67,0,15
39,15,14,24,20,143,0
2,1,20,15,6,144,6
0,0,144,2,1,4,11
27,10,3,2,38,2,49
52,34,1,14,77,3,3
11,2,16,25,5,122,1
2,2,127,8,39,44,17
8,0,69,1,7,17,40
45,32,11,0,29,61,14
39,25,7,22,17,33,1
2,2,37,9,1,48,5
0,2,24,4,6,19,14
27,1,50,1,72,199,52
52,31,44,1,34,92,4
10,13,68,29,27,8,1
0,1,11,20,8,14,21
7,2,33,2,31,86,40
45,1,5,1,39,171,18
39,34,20,2,37,7,1
2,87,66,30,3,5,4
0,4,78,12,1,2,15
23,1,11,2,1,185,59
55,21,46,0,56,15,5
11,12,18,10,97,30,2
1,2,33,47,151,16,16
1,1,13,13,40,62,53
1,0,60,1,5,8,16
53,1,6,0,1,16,0
82,35,40,26,1,6,6
3,2,9,1,57,26,15
0,7,23,0,63,157,56
139,159,44,199,112,16,4
116,19,48,25,2,1,1
178,19,4,14,2,89,19
80,1,71,0,65,73,43
21,2,17,0,51,26,18
4,37,50,133,4,38,1
2,30,45,126,2,81,2
61,12,25,23,0,30,12
25,142,41,3,51,11,56
3,22,66,3,17,35,5
0,3,25,7,1,6,1
0,5,1,3,17,87,18
46,1,90,1,60,4,43
44,50,55,1,27,2,17
1,36,3,31,3,0,1
1,2,28,22,0,0,0
64,0,47,9,121,77,13
58,35,100,0,18,131,57
9,325,3,0,24,60,4
1,9,6,44,138,20,0
0,1,89,32,8,53,12
99,0,7,7,13,61,42
13,1,21,1,6,21,19
4,0,14,1,2,95,3
0,107,19,79,1,30,3
40,126,31,20,12,23,12
4,15,38,0,25,35,52
41,1,1,1,1,50,3
3,33,25,293,0,141,1
4,11,31,13,12,12,14
25,4,82,8,54,2,33
3,57,11,1,30,127,15
41,1,3,43,2,40,2
46,232,79,119,2,36,1
3,11,48,7,82,40,12
23,44,8,1,22,18,56
30,21,1,26,2,16,5
8,2,40,158,2,136,1
1,0,57,27,7,10,16
19,176,5,0,55,21,33
65,36,107,0,8,68,20
13,52,14,228,6,27,2
0,11,29,51,1,2,3
1,99,5,3,19,64,9
48,12,1,0,15,61,55
41,2,29,22,2,4,10
8,19,33,257,13,51,2
1,3,45,9,118,33,18
2,257,5,13,89,4,31
31,12,9,4,111,14,21
40,22,21,11,4,29,0
15,4,61,36,3,136,2
0,145,19,66,28,50,12
39,6,7,63,6,23,55
44,24,31,4,1,2,4
2,69,40,2,2,15,2
1,26,99,28,14,64,8
27,35,9,65,30,25,17
52,2,16,30,8,5,50
20,2,23,31,1,42,3
1,6,2,4,1,59,1
1,29,19,18,20,17,17
34,14,1,30,56,9,49
63,39,102,132,7,22,10
10,11,15,31,0,60,1
0,11,4,56,1,30,9
12,2,9,130,60,31,24
49,82,37,2,34,3,45
11,22,18,162,8,41,3
1,88,4,16,1,144,0
24,16,25,29,0,4,21
47,7,7,44,13,0,56
31,2,47,56,19,10,8
1,1,43,6,13,84,2
19,135,16,37,3,32,2
48,41,1,115,66,27,5
18,8,30,11,25,31,35
8,4,29,46,2,19,10
0,84,25,91,0,44,0
48,9,5,87,27,4,8
49,34,16,86,30,7,21
5,9,101,4,2,70,52
1,41,33,22,3,26,3
2,35,7,123,0,12,0
20,3,3,61,7,45,12
87,0,22,6,153,25,50
11,0,42,32,23,41,12
1,223,98,21,2,1,2
38,41,18,24,6,1,5
44,6,34,2,91,45,31
16,0,5,68,19,18,46
1,0,1,59,3,55,1
12,73,2,39,0,3,1
24,92,14,120,24,8,16
49,12,77,1,11,22,45
3,2,23,195,13,68,12
0,107,2,79,1,8,0
21,19,0,5,1,15,7
97,19,107,6,22,64,15
7,26,8,13,19,32,53
1,57,15,17,1,21,3
0,7,3,46,3,2,0
76,0,8,85,15,62,20
28,1,114,27,54,57,48
3,14,3,63,7,54,11
2,14,17,44,2,4,0
26,49,14,6,0,2,9
40,13,81,54,45,46,16
22,27,48,43,87,38,48
1,94,7,4,7,81,2
13,5,2,65,1,4,0
60,1,80,127,2,0,11
37,0,10,4,26,98,45
2,6,2,39,7,48,11
1,337,3,63,2,3,0
12,54,3,87,0,1,3
68,3,74,36,11,49,17
7,21,72,16,25,44,49
3,26,11,2,5,5,3
11,1,2,123,3,2,2
29,18,25,20,2,24,25
40,18,93,11,87,84,48
1,47,108,229,9,23,7
1,4,36,62,60,3,1
62,1,125,104,14,1,1
62,0,10,37,4,18,12
6,9,8,2,68,24,52
2,3,16,10,27,29,4
12,28,53,28,3,6,1
6,55,3,10,1,52,14
53,16,10,81,3,56,42
6,3,1,71,65,35,11
5,16,7,21,18,5,1
41,38,23,68,2,1,3
21,137,31,16,1,53,29
18,139,4,40,44,21,45
2,16,12,28,36,6,3
1,1,87,114,2,1,1
30,0,17,8,1,24,10
65,69,33,71,9,43,40
8,104,31,5,31,20,21
1,2,1,15,10,5,0
48,1,1,8,0,17,2
51,40,98,14,4,63,31
25,35,7,97,150,108,49
1,2,26,14,41,2,4
2,0,10,181,5,5,2
14,1,27,8,2,67,13
60,17,2,118,9,28,38
6,98,1,92,48,13,16
2,7,48,188,19,2,2
29,13,87,25,0,19,3
25,16,17,107,2,126,25
21,72,2,61,16,4,38
1,8,29,4,45,13,6
6,8,38,93,4,69,1
41,62,45,19,2,57,15
37,100,12,26,0,14,39
3,39,6,2,36,36,22
1,1,39,81,57,7,2
7,6,20,50,6,95,1
35,62,18,77,11,8,17
67,9,21,16,6,2,51
6,14,26,9,22,1,4
1,1,6,61,30,9,2
23,2,86,54,1,58,12
75,68,5,45,1,12,38
10,5,25,60,29,5,19
0,144,14,26,24,2,2
12,8,9,1,31,60,1
50,110,1,118,6,16,31
25,7,2,5,18,13,56
1,358,31,50,30,7,4
2,25,64,27,3,15,1
45,10,9,9,1,50,5
66,3,1,30,1,19,26
6,3,29,4,30,7,37
1,0,12,56,23,15,2
14,2,59,3,6,19,1
49,56,5,143,1,9,30
17,31,1,80,1,2,50
1,1,5,7,78,3,7
0,0,43,100,39,81,2
36,132,25,4,2,9,1
64,33,27,3,3,13,28
6,33,2,79,50,1,46
1,3,62,104,36,5,4
6,87,6,4,6,93,2
63,15,3,87,1,24,14
41,4,27,53,0,6,47
3,1,3,4,41,2,19
1,0,36,74,18,117,2
15,35,11,43,1,30,1
62,65,6,2,1,2,23
8,18,2,72,11,1,50
1,2,41,28,22,13,4
0,0,47,28,4,50,0
64,64,4,22,2,18,9
41,133,1,17,0,2,30
3,5,76,25,55,4,39
0,1,15,43,50,105,1
5,39,89,26,2,38,0
37,106,6,100,0,6,26
50,3,3,31,13,3,47
3,10,0,10,38,47,10
1,202,29,5,33,19,1
42,9,13,97,7,2,12
30,6,23,51,2,62,28
23,13,11,6,20,10,29
2,58,18,4,30,66,2
1,21,7,15,7,20,0
62,1,2,125,1,3,21
44,24,33,12,0,8,47
3,15,56,81,43,56,4
0,50,17,81,12,92,0
43,2,2,5,2,7,7
39,7,1,29,29,2,23
11,19,16,37,9,60,50
1,112,27,27,21,80,3
4,42,3,40,5,10,1
46,22,25,63,2,2,17
51,154,24,9,0,0,45
3,7,63,14,18,2,9
2,1,14,33,5,62,0
48,1,14,23,52,28,1
31,0,21,36,6,1,24
16,36,21,18,0,5,47
2,18,0,16,37,28,4
1,17,2,24,23,48,0
34,14,3,8,1,49,5
49,67,64,2,1,36,26
4,64,21,25,19,35,42
1,6,3,13,35,66,2
16,2,1,17,13,4,0
53,0,19,24,2,2,27
13,1,26,66,1,54,44
2,340,11,18,50,49,7
2,15,1,16,37,50,0
71,8,2,2,3,5,1
67,22,56,160,0,2,26
4,64,77,78,1,183,51
1,3,6,51,47,12,8
25,47,28,3,96,4,1
37,3,24,94,7,1,8
32,22,73,31,3,26,30
2,48,9,4,5,65,37
11,2,35,3,13,22,3
43,1,5,30,38,1,2
25,2,50,54,7,39,22
1,193,12,53,1,29,43
0,6,6,5,26,14,11
43,2,3,1,24,1,0
65,0,3,22,3,12,5
6,1,63,2,2,38,31
1,0,7,3,38,25,40
8,9,2,98,11,1,1
52,191,2,14,23,1,0
26,21,28,46,2,108,25
3,2,6,46,0,111,51
1,0,28,14,25,7,13
1,339,12,51,48,2,2
75,20,41,18,3,24,8
38,15,16,90,1,123,26
3,6,15,9,13,4,39
2,2,6,1,52,2,2
40,0,45,81,12,34,1
37,2,70,26,0,31,19
4,24,4,2,2,21,46
1,12,5,1,31,2,14
8,3,55,19,53,2,2
57,2,9,24,4,78,4
54,42,54,22,0,22,20
9,27,8,2,2,8,48
1,2,33,5,38,56,3
25,1,6,104,38,19,1
40,6,7,76,2,109,21
8,43,7,8,2,5,41
2,13,16,34,35,14,12
0,154,4,58,50,58,2
101,4,16,13,6,13,3
27,46,15,14,6,14,33
2,16,16,1,2,4,48
1,5,4,65,31,22,2
0,42,2,33,30,47,0
50,67,32,20,2,5,18
21,70,14,2,0,2,46
5,5,25,26,0,0,11
2,2,0,8,47,50,2
30,1,88,101,18,51,2
57,36,22,10,4,33,22
9,34,14,4,0,2,42
2,2,6,14,23,1,3
4,1,13,39,21,67,2
41,2,17,79,16,40,17
62,12,11,5,1,2,41
3,62,34,36,2,2,14
1,9,8,18,41,41,0
20,1,22,25,10,32,2
45,1,28,6,5,16,28
22,35,9,46,1,1,48
2,127,1,19,3,20,3
5,17,10,6,7,20,1
42,94,22,7,40,20,16
47,5,9,1,16,0,41
2,2,3,55,0,3,13
0,27,13,14,29,41,0
19,12,51,47,29,80,3
36,38,7,3,3,8,30
15,10,12,9,2,1,49
0,1,6,45,0,47,2
1,1,5,79,36,46,0
56,11,30,13,12,56,19
30,60,2,4,2,2,41
2,4,11,95,2,19,14
2,1,2,73,106,89,0
3,0,12,10,8,22,3
49,85,32,4,1,1,30
11,75,18,127,1,1,46
2,10,1,11,2,77,3
0,75,6,5,30,42,1
69,4,71,8,20,1,17
30,0,60,31,2,1,50
3,90,4,25,12,20,18
1,94,4,93,5,69,2
2,11,49,10,40,12,2
43,45,16,69,19,9,26
22,3,10,6,3,12,45
4,1,2,59,0,54,4
2,1,12,47,40,60,2
6,1,70,4,31,4,14
25,41,11,127,4,0,40
33,17,1,10,1,38,13
3,1,9,7,1,35,2
0,1,58,0,44,54,0
34,1,48,92,18,3,22
36,1,6,55,5,1,51
2,65,1,17,3,40,4
1,8,4,2,8,11,1
13,32,43,49,38,1,11
56,25,26,73,12,11,44
20,57,11,21,0,39,16
1,26,3,27,2,7,2
1,1,44,15,2,2,1
35,89,33,90,15,0,22
83,83,11,6,34,44,54
10,5,2,1,3,118,3
2,1,2,9,5,118,2
9,5,36,54,19,4,13
48,26,41,59,12,1,39
27,18,12,115,1,54,17
3,2,1,5,0,40,3
0,1,2,12,40,22,1
54,41,23,21,52,1,28
28,15,12,57,4,46,46
9,1,7,15,1,31,4
1,23,12,32,0,5,0
0,24,39,21,16,63,14
35,143,10,40,40,32,38
49,27,6,9,6,65,18
3,36,3,134,2,13,1
2,2,17,14,1,1,1
30,26,34,54,31,81,21
62,56,2,3,14,15,45
9,7,4,10,1,2,4
2,5,37,60,1,36,2
1,12,16,14,4,4,12
55,23,59,7,37,6,40
31,2,6,44,6,117,20
10,1,19,34,2,17,1
1,0,86,23,2,11,1
19,36,14,1,27,1,29
33,12,2,76,20,56,50
23,1,1,56,6,33,4
1,0,27,33,2,2,1
1,141,28,1,2,5,9
25,24,1,104,9,17,35
52,133,0,11,65,45,39
7,23,25,34,13,20,3
2,41,30,8,1,16,1
14,2,13,2,0,9,23
54,64,1,17,30,69,43
9,11,1,171,24,6,7
2,59,54,31,1,1,1
4,15,22,1,0,69,0
29,5,4,5,9,52,26
66,2,2,9,32,40,49
7,5,87,47,18,2,4
3,13,51,37,1,43,2
10,7,63,8,0,65,8
48,0,3,34,41,5,39
14,0,4,13,33,26,44
2,0,46,34,3,1,1
0,21,46,25,2,132,1
23,0,10,21,28,58,21
68,34,2,7,34,17,49
12,27,41,163,8,3,9
2,0,16,11,7,6,1
8,42,1,13,65,46,0
46,43,1,47,20,11,25
39,68,1,81,18,1,44
3,3,64,5,3,4,5
1,60,51,49,0,41,0
23,41,3,16,1,10,12
43,3,2,122,38,39,44
3,1,36,109,21,4,18
1,5,60,7,3,23,0
0,48,7,54,1,10,1
22,2,5,5,12,20,31
29,1,0,12,10,13,42
3,0,19,8,12,30,5
2,23,47,11,2,30,1
7,13,3,54,5,43,5
43,2,39,3,30,3,29
43,1,3,2,32,0,40
2,1,47,29,5,71,3
2,39,13,17,1,18,2
21,53,5,15,31,67,20
84,50,8,1,60,13,41
13,13,8,81,5,103,9
1,1,21,24,1,9,2
0,100,62,19,1,0,0
62,8,3,2,22,7,13
30,20,1,36,37,85,47
1,39,10,43,3,46,6
2,10,7,52,0,18,1
27,8,46,14,12,4,5
46,3,4,70,27,0,24
5,1,5,18,8,85,34
1,29,40,109,1,33,1
2,18,41,5,0,13,0
44,1,9,8,37,1,27
37,5,4,13,23,17,45
4,1,30,39,9,55,9
1,59,32,16,1,52,1
13,23,30,2,2,3,0
45,2,2,2,9,31,25
22,3,6,58,44,84,57
2,14,29,21,9,58,8
0,90,30,7,2,4,2
49,4,1,1,1,2,7
60,15,29,100,30,44,29
5,2,39,56,35,42,30
2,80,27,42,7,6,2
2,29,12,56,1,2,1
36,5,1,24,0,1,20
40,0,45,2,41,78,39
4,11,43,5,26,59,10
1,1,4,2,3,4,0
30,36,15,37,1,29,4
57,2,42,111,2,127,28
7,31,14,11,32,30,39
1,19,70,1,9,2,2
2,5,6,19,2,0,1
62,8,1,39,1,68,27
35,1,20,3,4,22,49
7,51,5,5,34,50,13
2,15,12,6,15,10,1
1,14,1,81,1,2,4
40,6,25,23,0,43,27
53,113,98,33,40,17,25
8,5,13,14,38,0,3
2,27,1,126,3,34,0
34,16,4,5,5,47,29
34,2,9,14,1,23,41
9,38,43,99,6,5,12
3,48,19,9,24,1,1
2,1,7,3,38,1,5
32,2,4,34,2,66,33
58,16,54,8,4,110,41
4,26,13,12,45,22,3
1,4,3,9,6,10,1
0,2,40,52,2,90,20
44,0,15,18,1,13,45
39,62,7,1,4,2,12
3,4,4,1,43,53,2
0,0,1,194,18,25,1
17,7,29,21,2,27,14
66,57,9,13,0,2,47
23,88,33,4,28,6,6
2,62,13,139,46,75,1
0,6,1,140,7,14,20
35,2,37,11,1,2,43
56,10,18,11,13,0,10
3,59,6,47,76,18,2
2,8,1,12,6,14,6
30,0,1,1,1,2,36
57,0,54,56,4,24,35
14,16,54,12,5,10,1
2,22,11,28,20,127,2
24,5,14,3,14,27,25
30,1,3,1,6,5,42
95,2,51,111,2,1,12
6,7,31,30,24,69,1
2,24,2,34,29,29,3
39,1,11,27,6,10,28
48,2,11,45,2,2,47
7,8,8,23,3,13,3
0,49,2,13,48,70,1
2,107,7,12,6,33,13
43,3,77,46,15,5,51
38,14,10,14,2,18,14
1,155,13,5,1,51,1
2,15,1,0,35,62,1
27,31,0,133,29,8,26
50,2,35,33,2,13,42
16,37,9,11,1,41,3
0,28,8,28,3,82,1
30,1,20,62,34,37,14
40,1,10,27,2,1,45
22,2,22,14,9,53,18
2,51,24,5,2,45,2
2,10,2,18,5,10,2
32,1,0,78,14,1,24
80,1,26,8,9,22,43
7,2,152,2,2,53,2
3,66,4,4,1,3,2
0,32,0,89,17,2,15
43,2,65,12,14,2,41
57,149,10,36,9,38,14
7,12,26,1,0,35,0
1,1,9,154,2,16,1
15,7,44,19,24,1,26
38,95,6,40,35,42,42
12,65,40,4,4,49,3
1,11,5,4,0,2,0
7,0,2,109,17,38,13
29,2,49,10,43,12,37
36,0,20,51,3,47,15
4,26,5,61,1,39,0
1,20,5,67,2,5,1
22,3,2,3,51,0,24
42,2,20,4,12,59,44
16,1,19,7,14,41,2
0,66,1,14,0,22,2
17,7,1,4,2,1,17
18,17,50,53,38,85,44
55,6,22,8,31,18,18
3,125,16,11,4,5,0
1,59,0,60,1,3,1
34,3,9,16,3,1,25
55,36,48,38,96,84,46
7,95,13,116,23,44,3
1,22,2,49,1,17,1
10,2,1,61,1,16,16
48,2,49,8,74,52,40
28,1,10,3,15,52,14
2,38,10,69,1,3,0
2,11,2,36,0,3,0
8,3,4,4,9,50,29
87,1,8,19,42,69,42
55,1,76,8,18,12,4
2,64,20,53,1,4,1
2,5,2,10,0,7,19
39,2,9,91,5,5,50
40,2,39,71,51,136,15
3,91,18,55,14,9,1
2,53,5,36,0,2,1
22,4,1,4,1,0,27
39,12,34,11,28,47,43
22,0,6,10,17,48,5
0,89,21,10,3,2,0
2,45,3,2,0,2,10
43,4,67,25,0,69,41
54,6,8,78,52,81,16
3,11,40,16,31,21,1
2,14,1,0,1,1,2
21,1,0,26,0,18,27
39,0,67,47,24,15,43
21,0,12,22,46,36,3
1,5,12,26,6,4,0
3,57,1,7,1,1,12
38,4,13,11,2,90,43
33,4,27,69,32,41,16
7,3,14,41,26,24,0
0,133,11,3,3,1,2
12,21,13,61,0,33,27
90,3,25,52,9,49,49
17,1,4,51,62,4,4
1,45,6,10,25,6,0
1,62,0,2,2,25,13
60,10,16,46,0,30,43
49,54,50,13,25,57,17
3,106,21,5,43,3,2
1,21,4,13,10,0,1
19,2,15,31,1,81,25
45,1,7,7,6,111,50
17,1,42,71,38,11,4
1,44,44,3,34,2,0
0,10,18,19,3,67,12
12,12,6,22,1,31,42
75,10,69,9,19,10,19
7,5,13,21,58,26,1
2,1,0,21,16,32,1
15,12,19,17,2,14,31
44,96,24,38,7,11,48
23,5,10,3,43,48,2
1,47,5,68,19,2,1
5,35,17,10,2,72,11
19,1,11,15,0,102,39
70,5,50,8,16,3,16
11,69,4,0,41,8,2
0,9,37,2,7,152,2
25,3,4,4,2,12,25
63,0,24,115,1,2,47
14,1,14,4,35,1,5
1,87,2,56,38,67,2
18,19,28,5,5,54,7
48,4,8,91,1,10,29
22,52,2,18,9,10,47
1,18,34,11,35,12,3
10,39,4,18,38,63,0
55,2,16,18,2,20,31
48,6,45,14,0,1,46
2,130,7,5,30,40,9
1,43,12,5,53,41,1
44,5,4,30,6,32,2
45,1,16,40,2,1,26
17,1,21,1,1,4,59
2,0,1,14,36,67,6
11,18,11,11,26,19,2
53,38,22,30,2,5,10
31,3,88,4,0,3,37
1,7,4,2,14,21,21
5,54,1,18,32,39,1
82,8,4,13,10,3,2
48,2,31,89,1,0,25
5,2,20,7,0,7,44
1,5,11,12,30,85,5
6,2,3,9,32,32,0
47,143,90,14,3,1,8
34,16,11,4,1,1,29
2,19,5,0,4,1,40
1,1,1,13,46,91,2
46,83,5,42,18,72,0
54,19,41,26,2,4,21
13,2,20,3,2,0,50
0,82,2,0,19,5,11
13,129,5,22,34,134,1
43,5,41,23,4,28,8
16,1,11,4,0,3,28
1,1,2,2,1,5,40
1,93,2,2,31,72,2
47,49,1,13,25,17,2
48,16,29,23,4,1,29
5,7,27,2,1,0,44
1,2,4,0,13,20,9
2,63,2,12,29,22,0
60,35,41,42,21,2,1
50,5,65,8,1,3,27
6,86,6,0,2,2,50
0,29,2,2,15,22,5
20,47,5,25,21,26,2
70,7,47,39,1,22,8
9,0,3,3,1,0,34
2,1,17,1,6,8,39
2,3,13,4,44,163,1
33,92,11,39,16,20,1
50,12,10,18,1,58,20
5,8,5,1,1,5,46
1,6,2,0,33,20,10
17,8,0,24,11,12,2
66,1,23,30,5,2,9
36,3,23,4,0,0,33
2,0,2,2,1,51,42
1,60,2,28,27,34,2
39,60,7,21,30,3,0
52,3,24,13,4,1,19
5,4,16,1,0,1,46
1,5,1,2,3,47,13
10,103,1,56,41,53,1
62,6,32,23,18,4,6
35,83,17,2,1,1,32
1,15,10,0,0,17,42
1,19,1,1,14,51,1
50,47,2,19,23,7,1
55,5,25,50,4,2,21
7,23,10,4,1,0,46
1,1,1,2,1,42,13
13,17,1,6,24,43,2
59,66,8,43,20,4,7
26,3,33,8,1,1,30
1,0,28,2,0,4,44
2,108,1,1,1,60,3
35,58,0,4,33,30,0
62,5,29,27,22,4,18
7,0,17,27,1,0,41
1,21,2,2,2,11,11
7,5,0,1,14,50,0
22,44,66,35,25,6,4
37,6,5,69,4,2,29
5,64,24,16,1,0,39
0,21,2,1,1,42,3
29,20,2,3,24,43,1
45,1,16,42,29,5,20
10,2,26,18,2,0,52
0,1,9,1,1,2,11
6,48,2,0,3,56,0
49,24,0,11,29,33,6
50,1,13,35,20,2,33
3,2,17,4,1,2,49
1,23,2,2,2,19,3
26,34,0,1,18,53,1
47,2,4,37,28,11,26
11,0,24,30,6,1,45
1,3,24,3,2,4,13
5,51,2,0,1,61,3
46,12,0,1,27,37,6
47,1,11,17,25,4,35
6,1,18,53,2,0,40
1,6,6,14,2,19,2
3,50,2,2,2,52,0
130,11,1,23,38,8,15
13,1,21,60,19,2,45
9,2,44,16,1,0,15
4,21,3,1,0,35,2
71,36,0,4,15,35,2
17,2,5,34,25,5,27
1,1,39,40,5,0,41
0,0,31,4,2,1,3
23,55,1,0,0,52,1
59,20,2,10,31,27,18
13,2,13,36,28,2,53
1,2,20,9,3,0,13
9,0,10,2,0,10,1
34,40,2,1,4,48,5
22,7,20,37,40,7,28
1,1,11,28,24,1,47
2,4,15,5,3,0,3
55,2,2,1,0,30,0
66,41,1,19,18,35,13
22,15,23,26,32,4,53
1,39,18,14,8,0,14
3,1,5,1,0,3,0
64,15,1,0,1,44,4
68,6,0,30,31,35,30
5,2,24,12,28,3,42
1,9,21,1,4,2,2
2,1,1,0,1,14,1
23,29,1,5,3,41,16
36,21,15,31,43,8,42
2,2,17,22,25,1,14
1,1,5,3,1,0,0
48,9,0,1,1,30,1
61,34,0,23,18,35,30
5,12,44,34,35,6,41
2,0,10,6,5,0,2
20,0,2,2,2,3,0
36,19,0,12,1,47,14
32,38,2,21,36,30,42
2,1,26,19,30,3,15
1,0,25,2,4,0,3
39,1,2,2,1,12,3
51,29,1,39,5,39,22
7,23,19,11,44,9,52
1,0,11,1,16,1,3
1,0,4,0,3,2,0
47,1,2,0,0,29,19
44,39,1,34,16,35,39
1,9,26,37,32,5,15
2,2,22,3,6,0,0
17,0,5,1,2,1,4
50,2,0,4,1,45,31
14,49,3,10,30,33,56
0,17,31,17,26,2,4
1,2,13,1,3,1,1
53,0,3,1,1,13,15
45,9,0,23,5,36,39
4,40,15,25,37,10,17
2,6,24,3,22,1,1
16,0,6,0,2,0,2
52,0,1,3,0,39,29
11,18,1,24,10,28,44
2,37,24,15,31,1,4
2,4,24,2,8,1,1
52,2,3,0,2,8,11
45,2,0,13,1,41,39
3,24,4,31,24,18,19
1,23,21,12,27,2,2
18,2,28,2,4,1,4
55,0,2,2,1,31,26
14,16,1,28,4,35,41
2,25,9,30,42,4,3
0,4,22,3,23,1,2
46,2,15,0,2,1,13
48,2,1,4,2,45,43
4,20,2,35,13,34,14
2,35,23,28,29,1,2
5,1,19,3,7,2,1
47,2,3,1,2,13,25
31,1,0,23,0,39,47
1,33,0,23,25,8,4
0,27,26,4,26,2,1
43,2,15,2,3,1,9
48,2,1,1,0,27,32
8,1,0,29,3,25,41
1,46,12,18,34,4,3
3,36,21,1,15,1,2
46,3,7,1,1,0,23
48,0,0,10,0,44,46
3,13,0,22,19,29,7
1,43,32,5,39,1,3
17,4,21,1,6,2,2
52,0,2,0,2,12,29
12,0,2,15,2,39,49
0,29,6,33,24,10,5
2,26,30,4,24,1,0
47,1,15,2,4,0,12
46,2,2,2,1,45,35
4,2,1,30,2,32,17
2,34,17,26,34,3,0
15,26,13,4,15,1,0
52,2,9,2,3,12,30
14,0,2,2,1,40,41
2,11,2,16,11,9,5
1,34,26,23,29,1,0
45,3,20,0,6,1,13
45,1,2,1,0,31,51
2,0,2,29,1,36,17
0,19,2,7,31,5,2
13,21,23,8,22,1,2
55,3,26,1,3,1,26
14,1,2,0,0,48,49
1,1,0,17,1,36,4
1,43,13,24,34,3,2
57,12,19,4,19,1,9
49,2,7,2,2,7,31
4,0,1,2,0,49,39
0,9,1,34,13,23,3
14,48,26,21,25,1,1
56,5,19,4,5,1,24
13,0,4,1,0,21,47
1,1,0,3,1,36,9
2,10,1,32,27,4,2
41,30,29,14,28,1,0
48,3,22,1,4,0,29
4,0,2,0,0,45,53
0,1,1,24,1,31,4
10,37,15,25,39,3,1
50,21,21,6,23,0,11
17,3,7,2,1,9,36
0,1,1,1,1,43,22
1,0,1,32,12,17,2
47,39,26,26,35,1,0
46,10,24,4,6,1,27
5,1,5,1,0,27,48
0,0,0,9,0,38,3
10,10,3,30,29,6,2
49,35,26,16,22,1,6
18,5,16,1,3,0,43
1,1,1,0,1,43,41
0,0,1,18,0,32,2
39,25,13,17,37,3,1
46,27,21,2,27,1,23
4,2,8,1,2,6,51
1,1,2,2,0,48,9
6,1,1,33,8,30,2
42,37,27,26,31,3,0
40,11,19,2,21,1,26
3,0,4,0,2,18,45
0,0,0,6,1,43,4
24,14,1,32,28,6,0
46,36,24,12,25,2,5
9,4,23,1,4,1,31
2,1,1,1,0,47,40
1,1,1,15,2,33,2
36,27,12,20,38,3,1
46,26,19,8,26,2,24
4,3,5,1,2,6,44
1,0,1,0,0,54,10
5,1,0,29,11,17,1
40,34,24,25,32,0,7
39,14,25,2,5,0,34
3,1,4,1,1,27,42
1,1,0,3,1,41,2
21,8,1,31,34,5,0
46,44,25,13,26,0,28
10,6,19,0,3,0,44
0,2,1,2,0,44,12
6,0,0,17,1,35,0
36,9,11,22,39,2,4
41,45,28,7,24,1,31
3,7,5,1,1,8,39
2,1,1,1,1,60,2
23,0,0,32,10,34,2
44,8,23,29,33,2,20
9,43,21,2,7,1,45
2,8,3,1,1,25,12
2,2,1,8,0,43,3
38,1,2,34,27,8,6
46,11,29,20,25,1,30
4,38,17,1,2,2,43
1,4,2,0,0,48,2
6,1,1,15,0,32,2
44,0,11,23,42,3,17
38,27,23,7,23,2,47
2,35,8,2,1,8,14
1,3,2,0,0,49,0
24,0,1,23,11,21,3
50,1,23,13,37,1,26
9,36,21,3,6,0,48
1,13,3,0,1,25,3
2,0,0,8,0,37,1
41,0,3,25,26,6,17
53,11,33,24,23,2,46
5,38,20,0,4,1,9
0,5,3,1,2,37,1
6,1,2,19,2,34,0
50,0,13,26,36,3,31
39,25,20,5,23,2,47
2,28,5,0,2,11,5
0,2,3,1,0,50,1
24,1,1,34,10,9,5
51,0,29,21,30,1,29
10,35,26,4,8,0,42
2,14,3,2,0,28,3
5,2,0,2,0,35,0
47,1,3,33,26,5,18
39,10,21,18,22,2,44
1,32,19,0,4,2,13
0,3,1,1,1,37,2
23,0,2,18,1,33,2
51,1,14,29,44,3,32
11,27,22,7,21,1,41
2,28,10,2,1,6,3
5,1,2,1,0,51,1
44,2,1,32,11,23,15
40,0,29,21,30,2,42
2,40,21,4,8,0,15
0,12,2,0,3,20,0
24,2,1,3,1,39,5
48,1,10,30,27,6,35
10,8,20,23,25,2,45
1,43,5,3,2,0,3
3,7,2,0,1,36,1
48,2,1,10,1,42,20
39,1,28,22,38,2,44
4,8,17,6,25,0,13
0,41,3,2,2,5,1
18,7,0,2,0,48,1
50,1,3,28,14,26,28
9,0,27,19,31,2,42
2,7,23,5,8,2,3
1,41,2,0,0,25,1
39,9,2,3,0,38,14
48,2,11,33,19,8,45
5,0,21,30,30,1,15
0,6,5,2,5,0,0
4,43,1,1,0,43,2
42,7,0,16,2,34,27
42,2,24,26,40,2,41
2,0,22,8,27,1,2
1,8,3,0,1,2,1
19,45,1,1,0,49,16
47,8,2,31,8,27,43
12,0,25,25,38,0,13
1,2,23,5,18,1,0
2,4,2,2,2,23,3
40,47,0,4,1,37,28
44,10,8,35,23,6,45
3,1,24,18,26,1,3
1,0,14,1,4,0,1
16,21,0,0,1,45,14
50,30,1,10,2,33,41
10,3,24,27,42,2,15
0,1,22,5,26,0,2
3,1,6,1,3,7,0
41,38,1,0,0,50,27
44,20,6,29,7,24,44
2,2,23,17,33,3,4
0,0,20,2,17,2,1
16,8,2,0,0,22,16
46,45,1,1,1,41,46
14,9,14,33,27,6,16
1,1,20,20,30,1,0
2,0,6,2,3,2,2
43,6,2,0,0,37,30
44,46,0,14,2,33,41
3,7,26,24,35,3,3
0,0,16,8,23,1,1
16,1,2,2,2,1,14
48,5,1,2,0,49,52
14,45,1,28,8,27,16
0,9,26,29,37,2,0
2,1,22,3,27,0,2
44,0,2,1,2,19,24
48,6,2,3,2,40,41
5,46,12,32,19,6,5
1,8,26,19,34,2,0
18,2,10,2,5,0,14
54,2,2,0,0,35,41
11,2,1,9,1,34,17
0,44,27,30,34,3,2
3,9,21,9,26,0,1
46,1,2,1,3,4,21
41,0,2,0,1,51,57
3,8,4,15,7,25,5
0,40,23,25,35,1,0
18,8,15,8,27,0,9
44,2,0,2,2,19,34
14,0,2,0,0,41,45
1,4,18,24,19,8,3
1,44,24,21,24,1,1
46,9,3,3,4,0,26
47,2,0,0,0,38,46
4,1,3,2,2,36,7
1,6,32,29,36,4,1
15,44,21,22,23,0,8
48,8,3,2,3,10,28
12,3,1,1,2,41,42
2,0,10,6,8,9,3
1,4,24,25,36,2,0
44,43,9,13,15,2,12
47,9,0,1,0,22,36
3,0,0,2,1,41,20
1,1,24,24,19,6,0
13,3,17,29,28,1,1
50,44,3,2,5,0,28
15,11,2,1,0,34,48
1,1,5,2,1,41,5
0,1,27,23,34,5,1
42,17,21,21,24,1,9
43,37,2,2,1,6,32
2,2,1,1,1,50,41
1,2,12,14,5,26,3
14,2,18,26,40,2,1
48,31,9,7,23,1,29
15,22,1,2,1,20,48
3,2,0,0,2,38,7
2,0,20,27,21,6,2
40,7,25,25,25,0,1
43,42,4,3,5,1,25
4,9,1,0,1,31,47
1,1,3,0,0,40,4
10,1,28,35,36,5,1
50,4,23,21,22,2,9
14,40,2,2,2,5,30
1,11,0,1,0,42,36
1,2,8,6,8,28,2
42,0,19,33,35,1,0
48,19,18,6,16,2,27
5,34,3,2,2,19,53
2,3,0,0,1,39,9
10,1,20,12,25,5,2
50,1,26,25,28,0,2
16,33,5,6,4,1,31
1,22,1,1,1,36,47
1,1,3,1,2,32,6
41,2,22,20,34,3,0
44,3,22,28,29,0,11
4,46,4,5,3,4,36
1,7,1,0,2,49,21
10,2,14,1,10,26,1
51,2,17,33,31,2,0
15,0,8,19,8,0,24
0,44,3,2,2,17,48
2,13,1,0,1,43,5
40,1,25,14,22,10,2
47,1,19,26,28,1,10
4,19,3,5,4,4,39
0,35,0,2,2,50,21
9,3,4,0,2,27,0
44,2,31,22,29,1,0
36,0,18,25,20,0,31
2,38,2,3,2,17,50
1,24,2,1,0,35,4
27,2,13,2,5,6,2
50,0,21,39,34,2,3
8,3,10,22,19,0,33
2,41,1,1,2,31,40
0,9,0,0,0,36,3
41,1,24,9,21,5,2
46,1,25,34,34,0,22
5,4,2,17,6,1,44
2,42,1,1,1,47,11
8,9,10,1,2,30,0
43,0,19,17,37,3,7
36,1,6,20,23,2,28
2,2,1,5,3,15,45
0,40,2,2,1,34,3
29,11,17,0,9,7,0
49,2,25,28,36,2,20
10,2,4,22,15,0,44
0,15,2,1,3,28,8
7,36,3,2,1,34,2
47,3,26,9,18,5,0
37,1,21,27,29,1,27
2,0,1,17,6,0,50
1,32,2,3,1,47,5
25,23,12,1,1,32,1
47,2,19,20,36,3,4
8,1,6,23,29,2,29
2,2,1,5,2,15,44
2,36,2,0,0,36,3
42,14,22,0,7,10,0
46,2,19,31,40,0,19
4,0,4,22,20,3,46
2,14,2,2,3,49,13
7,30,3,1,0,27,2
44,2,25,16,24,3,10
37,1,18,31,33,1,37
2,0,2,5,4,14,22
0,30,2,1,1,44,1
25,24,6,0,0,7,1
51,3,19,18,33,0,34
9,0,20,24,24,1,56
1,1,2,3,2,31,5
0,41,0,1,0,36,2
40,13,25,1,9,5,6
49,1,22,29,39,1,32
6,1,4,21,16,1,37
1,13,0,1,1,55,2
5,35,2,1,1,27,1
45,4,23,8,19,1,21
39,1,20,26,26,1,47
2,1,2,19,4,15,11
1,30,0,0,0,47,0
21,24,9,0,0,9,6
49,3,14,25,29,2,26
10,0,11,24,22,2,42
1,2,1,3,1,33,4
5,39,1,1,1,34,0
43,13,29,2,8,4,18
39,2,24,23,34,0,44
1,1,4,18,18,2,12
1,17,1,2,1,46,2
25,32,1,2,1,27,5
52,1,29,2,19,1,33
9,1,23,33,28,0,42
2,1,1,15,6,13,3
1,31,0,2,1,42,1
43,29,10,0,2,10,11
49,2,32,19,31,0,49
4,0,2,24,28,5,16
1,2,1,4,2,49,1
4,41,1,0,0,29,3
44,14,21,2,6,4,27
41,2,21,32,37,0,44
3,0,3,26,20,13,3
1,14,2,2,2,42,1
22,35,1,1,0,7,17
48,4,27,9,24,1,45
10,1,23,26,27,1,12
1,0,2,17,6,29,1
5,35,1,2,1,39,1
41,24,11,1,0,6,25
42,2,19,20,34,1,55
3,2,10,31,27,1,3
0,1,2,3,3,47,0
23,42,0,0,1,30,24
47,13,33,1,9,2,21
11,1,17,27,40,0,17
2,0,1,26,15,13,1
4,13,1,1,1,42,1
44,34,7,1,1,9,24
41,3,27,2,21,1,47
2,1,15,28,22,2,1
1,0,2,16,6,27,0
17,29,0,0,0,44,18
48,29,24,0,1,6,39
11,3,21,19,38,1,17
0,1,5,23,24,1,2
6,2,1,3,4,45,2
45,40,3,2,0,32,29
44,14,29,1,5,3,47
2,1,27,28,37,0,2
0,1,2,24,21,15,1
21,12,0,3,1,42,9
49,33,11,2,1,6,38
11,2,24,9,21,0,38
2,1,7,24,32,2,1
3,0,2,19,8,34,2
46,28,1,1,2,38,29
43,26,25,2,2,4,46
2,3,21,15,29,2,7
1,1,5,27,25,1,2
18,1,0,3,4,54,5
51,41,4,1,1,34,24
11,13,29,0,4,3,48
2,1,21,28,35,1,3
3,0,2,29,27,10,1
44,11,2,2,2,45,12
45,36,13,1,1,13,44
3,3,29,12,19,2,16
2,1,6,23,28,0,1
18,0,1,8,5,48,1
50,28,0,1,0,35,27
13,29,24,1,2,2,47
1,2,21,16,35,2,3
1,1,4,22,27,12,0
45,0,2,5,3,44,13
43,36,1,1,1,9,48
2,15,30,0,4,1,21
0,1,27,27,37,1,2
17,0,3,31,22,33,2
52,10,1,3,2,39,33
13,35,10,1,0,4,48
2,4,26,9,14,1,4
1,0,10,28,33,0,0
44,1,1,24,4,44,14
46,25,1,2,0,27,40
3,26,28,0,1,2,16
1,1,22,14,32,0,1
16,0,3,26,27,10,1
48,0,0,3,2,54,27
14,37,11,1,1,10,48
1,16,25,1,4,1,4
1,0,8,29,38,2,2
44,1,2,23,22,48,7
42,9,2,2,1,29,28
2,46,22,0,0,2,44
1,6,24,2,16,0,2
15,1,3,30,30,11,1
48,2,2,20,8,45,25
14,10,1,1,1,10,45
2,35,22,1,1,0,9
0,4,27,20,32,1,3
43,2,1,20,25,47,0
47,1,0,7,2,27,27
3,26,8,2,0,1,49
0,26,23,2,3,0,3
13,2,20,21,32,12,1
48,1,3,25,26,47,7
15,0,2,1,2,12,34
1,34,20,1,1,2,38
1,15,24,6,15,2,2
43,1,2,30,27,50,1
48,1,2,22,5,29,27
3,12,0,2,2,3,54
1,36,30,0,0,0,11
13,3,17,12,26,5,1
43,0,2,23,30,46,14
16,0,1,5,3,22,41
1,28,13,1,0,1,22
1,27,24,1,2,2,1
40,2,8,29,40,31,0
48,0,0,30,25,38,27
3,1,0,3,2,5,49
0,31,22,1,2,1,3
12,17,23,5,14,1,0
46,3,4,34,29,40,11
16,0,1,15,4,32,42
1,7,1,1,1,4,22
0,45,29,0,1,0,2
43,10,26,16,33,13,0
46,2,4,20,24,44,27
5,1,2,9,2,9,54
1,23,13,2,2,0,4
14,30,17,1,4,1,1
48,3,9,28,34,22,11
13,2,1,21,24,40,41
0,1,1,3,1,5,21
3,34,18,0,0,2,1
42,13,20,5,19,1,2
46,1,4,31,26,45,32
3,0,1,22,8,34,51
1,4,3,3,0,4,6
14,47,25,0,0,1,2
46,9,23,14,29,9,8
18,1,3,24,24,49,31
3,0,0,8,1,14,38
1,5,8,0,0,2,2
45,43,21,0,1,0,2
47,6,15,30,38,30,20
4,2,1,15,31,31,55
0,2,0,3,3,4,11
11,6,20,0,2,0,0
48,44,19,5,8,0,8
16,8,6,24,30,46,40
1,2,2,20,9,25,44
0,0,0,2,2,2,3
42,7,30,0,1,1,1
47,42,19,19,16,9,28
5,8,2,18,29,49,41
0,1,0,5,9,21,12
10,0,8,0,1,2,2
48,4,26,1,0,1,5
16,43,15,31,21,22,29
2,8,1,22,28,37,41
0,0,0,2,2,6,3
41,1,15,0,0,2,0
51,6,23,5,2,2,24
3,42,5,29,36,43,46
1,9,1,26,25,34,10
8,1,2,2,1,4,2
48,0,30,0,3,1,7
35,5,23,15,16,12,31
1,41,2,21,32,42,44
2,8,0,5,6,10,2
27,1,10,1,0,2,0
50,0,21,1,0,2,19
9,4,7,24,28,39,49
2,41,1,23,24,34,10
1,9,1,3,2,4,2
44,1,23,0,1,0,11
48,0,17,3,1,4,34
5,5,5,34,40,48,25
2,43,2,17,23,22,0
8,9,0,1,2,2,1
46,2,28,1,0,2,27
36,1,24,4,18,26,48
2,7,3,25,28,44,5
2,41,0,16,5,10,0
30,8,11,0,0,0,6
50,1,18,0,1,11,29
11,2,9,23,28,45,47
2,4,2,26,28,9,4
7,43,1,3,3,3,1
44,9,22,2,2,2,22
37,1,24,3,1,25,43
2,1,5,35,42,39,15
0,4,0,20,25,5,0
24,42,1,0,1,0,4
50,9,31,1,1,2,27
9,1,21,14,15,46,44
1,2,2,28,28,30,2
2,4,1,5,6,2,0
39,47,7,0,1,0,22
48,9,22,0,0,8,46
4,0,16,28,44,52,14
0,0,1,24,26,21,1
5,2,2,1,3,3,7
45,42,27,1,1,1,30
38,10,24,4,1,20,41
2,2,4,29,37,41,2
2,1,1,23,26,4,0
23,18,0,2,3,2,18
52,38,25,1,1,1,42
10,2,22,15,11,34,13
1,2,1,24,29,28,1
5,1,0,6,6,3,5
47,34,10,0,1,1,28
41,25,18,2,2,5,45
2,0,12,26,27,47,2
1,0,2,22,30,22,1
23,4,10,2,4,1,24
50,39,34,1,0,2,45
11,11,9,2,2,25,13
1,0,0,28,35,35,2
5,1,2,24,35,3,4
48,17,3,3,1,1,27
36,33,22,0,1,1,45
2,2,17,12,14,41,3
0,0,2,21,20,33,1
22,1,0,5,8,2,31
52,32,23,2,1,1,45
10,19,22,0,2,5,15
2,2,6,24,25,55,0
3,2,2,24,26,22,3
42,5,1,5,4,1,27
40,43,27,1,1,2,42
3,11,17,2,4,18,3
1,1,3,29,34,44,1
20,0,0,20,21,7,18
51,20,8,2,3,1,39
9,33,19,0,0,0,15
3,4,13,11,10,33,1
1,0,1,24,33,37,3
40,0,0,4,6,4,28
50,32,34,1,2,2,41
6,21,22,1,0,9,2
0,3,1,26,25,49,1
5,0,1,21,27,16,19
45,3,1,3,5,3,45
39,46,49,0,2,0,15
2,11,23,2,1,18,2
0,1,3,34,42,36,5
19,1,1,20,23,7,29
48,18,6,2,3,1,50
11,35,14,0,1,0,3
0,2,17,15,11,51,1
4,1,1,22,31,36,17
45,1,2,7,6,3,45
42,35,23,1,1,0,17
2,24,20,1,1,9,2
2,3,3,20,24,55,2
21,1,1,28,24,18,26
52,0,3,3,3,2,41
10,40,21,1,1,1,2
1,11,17,1,1,17,0
5,0,3,33,39,51,22
42,0,2,22,23,12,40
41,15,9,3,4,1,15
3,30,21,2,1,9,2
1,2,18,12,16,47,2
19,0,0,25,26,28,25
51,0,0,7,8,1,54
12,32,20,1,0,0,3
0,23,21,1,0,18,1
2,3,4,25,29,38,14
44,0,0,19,25,5,41
44,2,1,4,3,0,17
3,46,19,1,2,1,0
0,10,26,3,2,37,3
17,1,4,27,42,33,34
49,1,0,20,20,3,48
11,18,3,2,3,0,3
0,31,24,1,0,5,1
3,2,15,13,11,49,19
41,0,1,27,70,38,41
44,1,2,6,8,3,15
3,34,26,1,33,0,1
0,24,12,2,39,14,1
17,3,3,23,59,40,39
48,1,0,24,28,4,46
13,1,0,4,1,0,3
1,41,34,2,163,3,1
0,10,17,2,57,53,12
41,1,1,30,7,30,40
44,1,1,23,86,3,21
5,16,8,3,72,0,1
0,37,22,1,78,9,2
15,3,18,12,27,44,24
51,1,2,28,17,22,48
14,1,1,8,2,2,3
0,32,10,1,46,2,0
2,24,19,0,39,14,24
46,1,6,19,3,32,37
44,1,2,22,0,19,17
2,1,2,2,1,1,2
0,40,31,0,57,1,0
15,12,23,5,13,31,32
48,2,2,25,1,41,47
17,0,1,27,81,3,3
1,12,7,2,10,0,1
2,48,27,0,2,13,13
9,5,17,7,13,61,40
14,2,1,37,0,20,20
6,1,0,16,0,2,1
0,29,16,1,52,2,1
0,27,21,0,75,55,34
1,0,7,19,58,34,48
53,1,3,23,3,2,3
64,0,3,5,40,1,1
3,41,25,1,30,19,9
86,11,17,13,2,47,28
309,1,3,12,0,5,38
115,0,2,3,169,1,2
97,14,8,1,43,2,1
6,35,27,0,10,42,24
81,3,8,30,2,43,51
26,2,1,130,49,9,8
2,2,1,167,34,2,0
2,29,6,6,42,8,1
92,27,19,170,3,56,25
6,2,17,82,59,10,52
25,0,1,5,51,0,4
1,0,0,165,32,1,1
160,39,17,82,6,15,9
22,11,12,91,0,32,41
1,0,5,7,17,6,44
0,2,1,2,0,2,2
0,16,0,0,192,0,2
114,32,29,105,28,21,20
34,2,24,16,15,38,43
14,1,2,126,7,7,12
2,1,0,87,2,1,1
25,28,5,20,9,3,6
22,25,18,6,38,115,30
1,1,18,65,47,14,43
2,1,2,7,2,2,2
33,2,0,88,10,3,1
66,38,22,251,1,26,22
7,12,31,9,17,28,49
0,0,3,4,37,2,9
1,0,1,19,33,0,2
13,12,0,88,4,3,1
43,33,32,3,11,56,29
12,4,15,107,40,35,49
1,1,2,220,35,3,4
6,2,0,10,2,1,0
28,25,5,116,0,15,6
43,24,25,125,41,43,30
2,2,22,24,42,8,43
3,1,2,0,11,1,3
39,0,1,263,5,1,0
22,43,14,96,55,19,30
11,13,17,22,116,70,47
0,0,4,11,11,8,12
18,0,0,1,0,0,1
67,20,2,3,110,2,6
10,35,33,76,62,52,31
1,2,54,94,12,42,39
19,1,15,8,1,4,3
44,1,0,148,18,0,0
8,28,9,4,6,17,26
1,25,79,258,30,41,46
1,0,28,30,2,9,10
32,0,2,6,0,1,1
41,1,0,36,22,0,6
7,42,42,29,43,37,36
0,15,63,20,14,19,45
4,3,70,73,2,9,3
41,1,3,6,0,1,2
27,9,1,62,27,2,21
2,43,98,28,30,62,43
2,6,13,18,3,27,12
16,2,3,61,1,3,2
47,1,11,23,28,0,4
7,7,15,2,27,5,34
3,42,214,4,9,93,42
13,10,7,100,1,27,1
52,1,2,48,1,3,1
50,1,4,2,1,0,19
5,25,101,85,46,30,45
0,25,7,10,26,46,11
14,3,151,97,42,8,0
54,0,258,32,17,2,5
7,0,23,1,7,0,26
0,36,48,0,22,46,43
1,13,189,1,2,28,3
40,1,6,183,2,1,0
47,2,124,14,33,0,21
13,10,14,2,39,12,46
2,38,142,61,4,27,11
23,3,16,71,0,2,1
51,0,34,22,13,0,6
21,1,2,44,15,0,30
2,24,7,3,29,53,40
1,34,19,42,1,31,4
1,2,45,18,0,2,1
100,1,12,108,19,0,18
15,0,74,68,26,1,45
1,36,37,37,2,40,13
33,11,16,77,2,123,2
68,0,115,22,0,7,5
11,0,6,18,20,2,28
1,7,9,64,58,73,41
14,46,49,71,6,16,2
30,7,121,10,0,14,1
33,0,21,79,1,4,19
3,1,19,26,85,22,45
0,7,118,6,23,57,12
26,46,11,33,6,13,0
49,7,333,12,3,0,3
7,1,18,40,98,159,24
2,2,54,9,52,39,43
5,2,13,53,11,51,3
45,37,27,1,1,18,1
52,27,129,60,8,33,20
2,3,30,19,19,147,42
0,0,3,44,4,5,12
45,25,70,3,8,1,1
44,27,128,0,1,65,2
14,2,33,75,0,64,23
1,0,9,37,40,41,48
1,0,172,2,21,1,4
1,63,42,0,1,0,0
67,17,1,135,0,39,19
15,5,13,37,46,172,39
1,10,131,36,10,7,13
8,17,116,2,3,19,2
27,25,60,1,1,43,3
39,2,10,120,1,53,26
1,1,143,31,49,11,45
0,1,9,4,13,44,4
33,34,1,21,14,93,0
48,18,5,41,1,70,15
5,2,1,20,20,5,37
1,1,7,3,28,5,10
0,9,186,77,4,46,0
71,63,14,27,2,125,5
55,10,13,51,2,60,26
2,1,43,32,3,6,45
2,14,28,3,31,39,3
24,27,2,42,9,61,0
45,24,5,12,15,111,20
12,2,14,23,1,3,41
1,1,79,24,61,72,13
2,3,88,106,49,100,1
28,146,4,38,9,29,7
59,17,34,3,2,50,26
4,2,23,46,26,19,45
0,0,51,4,16,29,4
67,5,4,2,5,83,1
60,9,45,43,0,4,13
21,29,122,6,3,90,44
1,2,23,17,36,66,14
2,0,0,13,24,57,0
25,47,8,21,6,10,6
34,9,60,24,1,2,28
4,1,20,2,2,55,45
0,1,1,199,38,30,4
27,9,1,38,55,1,1
48,53,21,3,4,53,21
6,28,24,4,0,55,37
1,2,25,41,0,27,16
0,1,1,50,47,31,2
77,1,3,15,4,1,1
39,20,77,15,71,39,26
3,19,26,39,7,112,46
0,21,59,40,24,18,4
4,1,5,15,40,0,1
47,3,57,3,4,17,12
50,20,37,0,0,101,42
3,15,2,76,8,51,18
2,5,1,15,34,8,0
59,1,29,3,16,22,1
49,177,62,4,2,51,19
11,67,6,75,1,9,49
2,5,9,21,29,1,5
13,1,36,2,7,1,1
19,3,12,23,0,125,14
29,79,36,39,0,73,41
2,33,2,18,1,4,14
0,6,7,15,23,7,1
22,0,4,1,38,37,2
67,18,39,26,2,110,33
9,4,92,33,2,43,54
1,67,8,73,30,67,5
1,120,2,5,29,32,1
44,16,126,1,50,21,16
53,2,68,1,6,18,40
2,145,13,84,1,7,18
0,10,3,5,14,0,1
14,293,91,30,10,118,2
51,76,21,41,5,7,23
11,2,9,35,2,0,53
1,4,2,26,0,34,5
9,276,6,12,26,134,0
21,62,73,7,58,5,12
27,51,5,5,7,3,33
8,4,18,52,3,37,22
1,187,2,7,8,112,2
0,19,20,0,51,7,2
54,8,11,17,15,54,23
37,2,43,54,1,8,48
2,378,6,25,0,8,3
0,40,0,1,118,51,0
32,3,4,41,30,52,11
37,1,12,67,2,7,40
4,357,6,122,1,11,23
2,72,2,6,0,10,2
2,3,1,84,42,13,1
72,39,59,23,26,18,31
44,97,13,18,2,11,46
5,8,7,12,0,46,5
1,4,1,8,26,21,1
5,80,2,94,20,14,11
32,25,36,37,1,3,40
58,77,6,7,1,27,21
2,14,4,16,0,24,2
0,2,107,5,99,20,2
33,12,40,28,16,39,28
42,1,77,40,3,75,47
14,79,4,7,1,21,5
1,5,20,19,36,20,1
30,13,66,152,36,4,7
54,73,31,78,40,41,29
13,15,15,29,5,85,36
2,77,4,1,1,35,2
0,6,2,49,48,3,2
30,0,25,15,11,3,21
51,270,90,28,0,28,48
3,18,7,91,2,6,10
1,100,2,48,9,27,2
4,9,10,16,31,1,8
52,8,13,18,29,86,31
30,42,20,83,3,93,39
1,8,29,9,0,15,1
2,2,3,47,25,2,0
52,0,56,80,63,3,26
39,98,4,23,10,4,49
10,24,23,11,0,68,11
1,2,3,28,16,78,1
19,75,51,92,24,4,12
48,115,27,6,23,8,41
26,32,14,82,1,139,22
0,20,2,25,27,7,1
12,1,56,17,37,2,0
49,38,12,11,22,0,26
54,211,11,65,3,48,48
3,8,2,66,1,55,4
2,57,1,17,19,2,1
45,39,27,3,28,2,6
39,123,17,2,5,1,30
7,8,15,1,1,84,43
2,120,25,22,0,17,3
1,38,6,67,28,14,1
27,14,54,15,31,9,20
47,21,15,10,2,6,49
3,6,1,24,1,42,13
1,23,2,21,23,94,0
11,2,64,7,13,6,6
51,26,84,69,9,33,38
42,121,3,6,1,19,38
2,35,9,120,0,16,3
9,11,17,10,34,12,0
30,0,8,3,9,4,22
49,192,14,10,59,2,38
4,24,2,10,10,103,11
0,34,18,46,2,8,2
2,226,18,17,48,12,7
54,8,12,15,36,0,25
43,17,9,74,3,0,43
2,113,25,39,0,155,3
1,41,68,3,13,17,0
35,3,5,180,33,32,19
29,0,15,56,8,15,44
17,27,2,20,2,45,10
1,19,21,2,2,3,2
7,0,39,146,43,2,6
36,59,16,26,15,37,31
44,70,7,4,1,102,40
3,19,6,2,0,7,2
0,0,3,19,1,6,2
19,18,15,9,91,28,20
60,192,11,71,26,27,55
12,26,1,6,2,21,11
1,2,1,1,1,1,0
12,0,31,79,43,0,5
32,2,11,8,49,30,25
37,185,2,49,6,72,39
3,63,19,5,2,43,3
0,3,10,1,5,8,0
25,7,17,165,44,7,19
73,102,5,9,41,51,42
15,10,1,2,4,6,12
2,6,73,99,2,50,1
34,0,94,7,2,6,4
48,43,21,44,32,66,32
7,66,6,24,14,6,39
1,10,1,63,0,2,2
3,0,11,5,1,10,0
32,0,34,68,44,31,20
48,16,2,32,57,51,47
5,31,2,13,7,10,12
1,5,24,1,0,1,2
16,8,23,22,27,14,3
36,225,14,23,71,38,30
33,32,0,3,16,4,46
2,20,0,2,0,1,3
0,77,60,39,0,8,1
30,35,18,32,7,205,17
66,2,3,14,37,20,42
14,40,3,33,13,2,12
1,14,2,88,0,0,1
21,21,11,8,1,28,2
51,3,6,55,36,166,29
13,1,2,3,27,4,46
1,0,0,3,2,4,3
24,1,27,19,1,2,1
37,3,31,17,5,28,26
27,1,38,43,40,49,44
0,58,3,10,41,11,14
2,27,2,8,2,0,0
41,114,38,2,1,26,9
49,1,19,70,53,50,26
4,581,4,3,51,23,39
1,28,0,10,5,1,3
4,8,14,82,1,119,1
36,4,38,11,0,15,18
27,69,9,88,33,21,43
2,4,60,5,21,0,14
0,3,4,10,4,2,0
16,9,1,9,0,105,1
44,88,50,40,2,32,26
16,18,13,2,33,24,44
2,2,5,51,9,40,3
1,2,3,32,1,122,0
47,12,17,8,0,15,13
53,14,37,1,1,1,44
4,0,3,33,112,25,18
0,59,2,98,23,26,1
17,44,11,67,1,51,4
38,70,18,21,1,2,24
17,47,2,17,28,2,39
1,2,1,65,30,31,2
1,16,28,10,1,98,1
21,304,14,16,0,5,13
64,23,19,12,9,1,39
6,3,2,43,49,23,16
0,0,15,32,15,75,0
60,1,23,2,2,57,2
38,48,6,5,2,3,24
11,3,30,5,4,0,42
1,138,2,11,31,123,2
8,45,2,16,13,15,1
39,15,42,44,1,4,17
33,1,9,5,1,11,37
3,0,1,9,40,10,15
5,0,19,23,6,22,0
33,126,9,25,12,16,4
19,95,11,13,0,2,26
15,4,16,30,2,53,44
1,13,0,31,66,5,3
4,294,1,18,27,43,0
40,107,25,4,0,2,16
59,8,9,0,2,16,43
6,92,2,19,89,1,15
1,29,16,95,40,57,1
29,7,11,10,4,25,1
49,2,24,2,1,2,22
13,1,8,60,2,45,50
0,3,23,17,44,11,3
1,86,7,9,26,5,0
45,10,49,6,3,2,12
40,3,86,1,0,22,36
3,0,6,2,10,50,16
1,2,0,96,26,14,1
14,2,15,19,14,7,1
52,39,48,17,2,0,29
8,3,36,57,10,37,52
2,91,2,47,45,46,5
1,60,15,10,6,7,1
40,2,28,7,8,2,12
35,141,19,11,9,2,41
14,31,2,25,3,44,16
0,1,9,61,36,60,0
12,140,18,6,18,4,3
41,11,46,2,2,1,32
12,65,4,13,0,38,45
2,43,1,13,13,35,3
17,9,16,43,21,86,2
44,1,26,81,9,6,12
27,8,19,21,1,2,40
2,3,14,75,1,86,17
1,46,6,9,53,26,0
22,4,79,12,10,12,2
59,1,7,6,1,1,29
5,1,1,13,1,97,51
1,94,3,24,5,33,5
2,225,13,14,50,3,1
43,8,11,7,14,1,13
45,0,34,50,2,18,43
3,292,2,11,55,49,17
0,68,1,107,24,12,1
21,6,21,28,23,2,4
32,2,23,15,2,1,28
20,1,15,4,1,1,45
1,9,2,5,2,30,4
2,49,19,9,44,63,1
36,37,50,2,23,9,11
52,2,10,65,1,2,39
4,22,1,9,1,9,18
1,26,10,25,17,13,2
16,14,24,119,27,46,0
47,2,48,211,8,4,23
10,1,6,65,2,18,45
0,12,25,5,0,55,4
1,261,10,2,18,12,0
37,22,34,78,10,10,7
53,6,6,11,3,17,29
4,2,0,1,0,22,34
0,138,9,11,23,10,2
3,19,8,60,55,4,2
35,6,9,4,37,0,23
40,60,2,180,3,10,38
3,24,2,38,1,36,9
0,13,1,34,24,21,2
79,4,7,24,29,0,2
44,6,18,9,2,53,21
4,18,8,14,1,114,48
1,10,0,55,4,4,6
1,8,5,6,41,1,2
39,2,38,53,30,5,9
54,1,30,120,2,142,30
5,126,8,5,0,9,31
1,6,1,244,13,13,3
25,31,2,6,30,7,2
44,6,10,97,13,22,21
13,2,81,7,1,45,42
0,66,4,73,4,49,9
1,100,9,58,31,4,1
33,128,8,5,30,25,1
50,15,64,34,2,48,19
4,1,11,46,1,40,48
0,20,2,1,31,11,4
13,1,1,64,24,2,0
41,22,16,32,24,11,10
18,58,24,2,1,81,35
1,11,6,20,1,10,18
0,1,1,16,37,0,2
37,23,8,28,31,50,1
47,10,11,40,2,53,20
3,12,27,27,2,4,44
0,12,4,2,15,1,4
25,27,2,45,20,6,0
49,96,28,2,11,70,7
19,25,19,36,0,28,30
1,3,12,9,8,69,37
1,1,1,77,39,3,2
73,52,1,34,18,23,1
42,106,23,8,1,59,26
4,76,55,23,27,16,43
1,3,10,9,68,1,8
3,23,0,2,27,79,1
53,4,12,9,4,35,1
55,14,18,41,1,40,34
4,13,2,29,1,45,41
1,3,0,57,28,5,2
41,47,18,38,28,3,2
43,9,42,11,4,65,9
6,0,5,84,0,10,26
1,0,2,15,6,106,44
1,79,3,23,38,18,2
21,53,17,3,21,4,1
64,21,41,12,0,2,23
5,295,9,12,6,2,43
1,31,1,24,40,106,9
4,89,4,18,12,45,0
11,5,25,29,3,3,0
51,26,55,11,1,4,24
5,53,4,12,8,1,50
0,39,5,25,75,62,5
34,4,3,23,39,4,1
62,28,32,33,5,1,6
13,2,8,2,1,2,26
1,25,2,0,9,5,41
41,20,1,116,28,86,3
40,1,39,17,20,17,1
23,3,17,36,1,2,23
3,84,18,3,0,45,43
0,62,1,8,44,49,11
59,105,14,64,16,22,0
40,2,60,30,2,12,11
5,212,26,34,0,1,37
1,237,50,22,1,53,22
4,5,11,42,54,48,1
33,155,48,65,25,19,2
36,40,17,4,2,1,21
3,10,6,34,1,3,46
1,12,1,54,25,73,5
23,0,6,10,43,33,1
46,6,28,9,8,3,3
9,26,15,3,1,0,28
0,2,1,60,1,32,43
1,1,29,52,79,105,3
47,0,11,30,32,56,1
52,23,20,19,3,2,23
9,0,2,53,0,64,44
1,152,4,35,1,26,11
13,12,42,4,47,31,1
60,70,16,5,22,0,9
13,5,4,24,1,46,28
1,22,1,194,0,19,52
6,58,2,21,17,42,3
62,45,47,1,17,6,0
37,99,5,0,4,0,12
3,5,5,82,2,54,38
2,2,3,20,0,32,12
4,0,3,20,17,24,0
47,56,15,33,45,2,0
33,30,39,54,8,26,30
3,4,2,25,1,72,41
1,0,9,9,2,4,3
25,1,1,1,34,51,2
28,41,16,2,35,25,8
11,19,47,37,3,57,33
0,3,2,50,1,30,32
5,1,3,2,15,3,3
38,0,15,85,32,2,1
21,87,16,20,6,36,24
1,156,17,64,3,78,46
1,3,1,20,0,4,6
20,294,47,2,12,2,1
52,71,20,68,37,2,6
13,7,24,5,10,74,30
0,1,6,6,0,41,38
14,0,1,14,3,2,3
45,47,25,71,45,1,0
23,49,38,8,23,23,20
1,13,4,34,11,27,33
0,2,2,2,2,1,12
45,48,8,11,29,1,1
33,39,10,39,36,62,2
4,6,6,43,3,36,22
1,0,4,28,2,65,47
15,11,0,8,16,5,3
43,49,13,2,47,38,1
12,19,20,0,23,38,17
3,0,24,165,1,71,39
2,69,2,16,2,16,12
45,102,16,43,37,2,0
35,3,36,72,22,14,1
3,150,21,9,2,46,33
2,11,3,22,0,34,41
2,241,0,46,3,3,3
33,6,6,108,59,63,1
55,0,20,151,10,36,15
3,1,11,27,2,3,33
0,9,2,59,0,63,14
20,28,5,44,18,50,0
68,15,27,5,62,48,2
13,3,25,5,9,13,14
0,1,2,1,1,2,36
2,6,0,1,1,16,3
27,40,5,52,65,44,0
54,2,27,34,28,39,17
2,0,7,12,3,2,37
0,0,0,8,0,1,13
36,263,6,55,38,71,2
55,52,19,11,30,64,3
6,10,46,1,10,7,34
0,0,20,106,2,1,43
2,215,5,19,2,1,2
35,34,12,37,48,0,0
30,79,57,12,42,60,10
5,59,30,9,4,19,48
0,3,2,36,1,68,14
5,33,1,10,28,13,1
42,6,38,2,38,51,2
47,0,31,14,3,8,28
3,1,5,8,14,9,43
1,40,1,12,3,12,3
16,43,3,29,81,12,1
29,2,41,0,11,29,13
31,1,19,0,1,45,41
2,1,2,50,1,40,16
8,17,1,48,11,80,1
51,42,11,2,33,19,1
42,15,24,0,9,57,26
1,153,15,71,2,7,54
0,117,1,106,0,6,3
40,28,16,3,29,34,2
58,133,49,16,21,29,11
15,24,25,7,6,40,42
1,10,10,9,1,10,17
13,1,1,18,1,39,1
38,1,50,15,39,13,1
22,6,24,1,40,3,27
1,31,3,9,3,17,47
1,36,1,52,2,33,2
34,3,11,5,35,25,1
47,0,17,0,38,1,25
7,0,17,2,7,1,39
0,18,1,37,1,29,15
1,0,0,22,0,23,2
34,226,1,1,45,101,0
29,44,26,0,28,8,32
5,10,21,13,6,30,53
1,49,3,21,0,19,4
31,3,0,10,0,33,2
33,199,18,1,38,3,10
11,22,59,5,16,1,45
0,47,14,20,3,90,15
2,2,1,25,1,78,1
70,45,42,5,9,6,3
55,9,20,1,37,1,25
3,17,42,2,4,88,48
1,2,2,41,6,48,4
14,0,8,28,0,43,0
48,4,35,3,14,3,16
11,26,13,2,10,16,46
2,9,2,7,40,41,17
1,2,0,20,4,4,1
34,1,31,10,15,0,2
49,0,28,1,41,0,31
2,77,2,1,8,28,46
2,113,0,23,2,77,2
13,35,4,75,1,46,1
35,2,34,11,6,2,8
15,25,9,0,49,0,34
1,83,4,16,15,122,38
2,9,2,55,2,16,3
107,175,2,12,1,39,0
28,57,11,1,31,5,30
0,5,66,49,34,80,45
2,2,6,45,7,33,7
36,0,1,3,0,7,2
44,34,20,0,3,1,1
6,39,31,1,42,2,29
2,10,15,19,32,57,45
2,2,0,36,4,99,3
50,0,8,4,1,16,0
47,0,17,1,6,2,9
3,3,7,1,58,19,38
1,140,3,20,18,75,37
7,22,0,20,1,8,2
38,1,23,6,2,1,0
41,22,7,1,32,0,28
3,115,9,6,65,145,43
2,89,1,37,5,44,9
12,56,1,10,1,2,1
42,58,22,2,1,2,0
12,5,32,1,88,100,36
2,1,25,16,22,31,46
7,1,2,23,2,7,4
24,35,6,8,9,2,1
42,25,10,1,41,23,11
5,3,16,1,12,50,40
2,1,3,19,58,8,14
30,20,0,23,5,1,1
65,11,18,47,2,0,1
9,1,29,3,15,62,33
2,1,24,9,31,29,54
1,0,1,27,8,2,4
49,18,2,22,1,1,1
44,175,30,27,5,7,7
5,4,28,2,48,32,33
0,254,4,25,32,11,37
4,25,0,38,1,45,1
63,19,13,7,2,49,1
43,24,67,2,41,35,23
3,2,5,28,50,3,44
0,38,24,33,4,0,9
25,25,2,20,2,22,0
40,14,19,1,1,71,2
6,1,12,17,28,5,30
1,7,7,14,27,3,46
2,23,0,1,2,1,4
63,43,12,1,0,1,1
24,2,16,1,10,65,11
29,0,3,8,41,17,41
1,86,1,14,12,3,14
13,146,2,6,1,0,0
58,92,38,7,1,43,0
34,4,16,1,42,83,11
0,2,14,33,30,79,59
17,74,2,6,1,5,5
38,64,1,4,1,0,1
17,21,32,1,1,38,7
2,2,42,1,10,41,32
0,70,4,18,12,18,40
32,50,1,28,2,0,2
51,2,9,12,2,1,1
4,1,22,0,15,103,24
2,1,29,0,34,19,36
10,28,14,29,6,3,6
33,20,1,29,6,45,1
21,5,0,4,1,101,1
1,4,33,2,14,15,32
2,4,9,8,23,1,47
34,25,2,7,7,70,5
38,1,10,21,3,17,1
5,86,19,3,42,18,2
0,166,2,0,47,1,45
1,42,1,4,3,2,46
152,60,1,51,1,35,4
48,282,10,11,0,81,0
2,18,25,0,29,4,23
2,19,6,0,90,0,28
18,3,1,26,12,1,11
18,1,6,26,0,36,2
10,1,20,3,3,96,2
22,20,8,3,50,17,20
35,24,37,7,36,2,47
24,1,1,30,3,36,3
2,2,6,49,32,34,1
1,13,19,3,11,3,5
6,43,42,0,5,2,36
46,19,6,11,1,0,33
43,1,2,14,0,38,2
2,0,22,8,9,43,0
2,332,18,1,47,3,28
24,205,5,0,23,15,48
47,13,3,33,7,2,6
15,169,9,25,2,33,0
1,4,36,6,7,42,4
7,106,14,2,35,4,38
44,24,3,4,46,2,35
52,22,1,37,4,115,6
2,10,29,13,1,16,1
0,1,26,2,16,9,20
33,0,7,0,31,2,32
25,0,1,7,17,7,6
13,14,0,24,2,27,1
1,32,25,18,4,17,8
12,2,31,2,39,4,23
53,0,9,1,34,3,44
20,7,3,22,2,17,7
0,62,3,26,1,28,0
0,3,17,4,25,3,14
41,1,20,0,29,0,16
45,86,5,0,8,23,40
5,114,2,25,2,35,2
0,76,9,29,0,6,1
2,3,42,3,24,2,23
47,145,14,1,25,0,65
34,38,1,12,9,33,8
3,13,1,16,3,41,1
0,2,41,21,11,4,3
15,1,19,1,19,2,47
36,31,7,4,6,0,47
9,9,1,19,1,44,2
2,9,3,9,1,44,1
0,2,19,3,24,5,41
47,5,10,1,35,0,44
50,2,2,5,4,22,10
6,58,1,28,3,38,2
2,13,12,14,0,12,15
7,1,10,2,28,0,63
56,1,12,1,29,1,16
34,8,2,6,4,46,1
3,36,6,24,1,23,1
1,137,15,26,13,10,21
53,6,23,2,28,1,52
31,2,2,1,12,9,8
29,1,1,24,1,50,1
1,1,12,22,0,12,0
12,84,43,4,43,1,40
70,18,8,1,31,1,64
62,2,0,1,3,45,3
2,14,1,34,0,30,1
0,3,15,24,8,2,20
34,133,19,2,50,0,48
56,4,5,2,33,5,8
7,45,0,9,3,56,1
2,10,0,28,1,25,0
3,9,19,25,19,3,32
46,0,21,2,46,1,51
50,18,6,1,5,26,7
5,39,0,16,1,38,0
1,7,4,27,19,4,1
17,0,26,8,27,0,27
44,34,14,2,35,2,33
12,43,1,1,2,36,2
1,75,1,36,0,32,0
8,5,13,13,13,4,15
67,0,27,2,29,2,42
26,14,6,2,4,3,13
1,35,1,13,2,61,0
1,3,0,20,1,15,1
28,0,28,11,45,2,28
41,7,21,0,29,0,46
13,262,3,4,3,16,5
1,13,0,30,1,38,2
1,1,4,28,10,5,52
49,1,26,3,26,1,54
41,175,21,1,8,2,33
2,15,2,7,2,44,1
1,8,1,30,0,36,0
15,12,26,18,23,5,23
54,19,25,2,37,2,42
11,35,6,1,7,13,5
0,6,2,20,0,43,0
1,0,0,29,1,17,6
42,1,21,4,43,0,26
51,20,23,3,27,1,27
4,30,4,1,2,45,2
1,6,1,30,0,36,0
25,1,2,27,9,4,20
46,7,28,2,45,0,34
13,25,20,1,21,14,5
2,4,3,13,2,50,1
1,1,0,27,0,19,25
53,0,15,9,24,1,22
42,2,20,3,32,2,60
3,47,6,0,4,53,3
0,17,2,16,0,25,2
15,2,1,25,1,2,8
49,0,29,4,35,0,31
14,19,13,1,29,8,32
0,40,3,4,2,54,1
2,5,1,43,2,29,1
44,1,0,28,8,2,50
43,0,29,2,40,1,77
4,30,25,1,19,18,6
1,21,1,11,2,45,2
20,1,1,27,2,7,11
52,1,19,9,20,1,24
15,2,19,2,34,0,10
0,63,7,0,5,32,1
2,8,2,19,1,37,0
45,2,1,22,2,3,18
46,1,30,3,34,1,47
2,9,15,2,25,9,3
1,61,3,1,2,41,1
17,11,1,31,1,20,3
52,1,0,21,4,0,26
13,1,34,3,40,0,25
1,83,12,1,25,16,2
0,13,1,8,0,42,1
46,2,0,35,0,9,39
42,1,6,18,18,1,68
2,0,21,3,26,1,9
0,29,9,0,4,37,1
16,17,1,23,1,36,0
53,1,2,23,0,3,36
13,1,22,8,32,0,23
1,2,31,1,17,4,4
2,43,5,1,2,49,1
49,12,1,31,0,31,7
44,0,2,24,8,2,26
3,1,30,4,33,1,46
0,14,23,0,23,19,4
14,42,2,3,2,34,1
54,4,1,26,2,13,21
17,21,8,19,20,2,32
1,2,23,1,29,4,7
1,16,26,1,7,51,0
46,13,1,27,2,23,1
51,2,1,22,1,2,24
3,0,15,4,31,1,50
0,10,21,2,30,27,4
10,20,7,1,4,45,1
53,3,1,27,1,5,13
17,1,0,21,6,2,37
2,1,29,1,32,2,20
0,28,20,2,28,30,2
45,25,4,2,1,40,1
47,2,2,31,2,4,25
5,2,2,23,16,0,49
1,0,24,2,29,2,5
14,40,16,0,5,49,0
47,12,2,16,1,32,10
18,0,1,22,0,1,34
1,1,10,3,36,1,23
3,11,28,1,30,15,2
40,36,6,1,2,34,2
50,3,3,30,1,7,35
5,1,0,22,5,2,45
1,0,24,3,33,1,4
8,32,14,0,23,32,1
46,26,2,9,2,37,6
37,2,2,19,1,5,27
1,1,1,22,19,2,40
1,1,33,3,27,5,3
29,39,25,1,5,57,2
53,11,3,16,0,35,23
9,2,1,25,1,2,35
0,0,18,9,36,1,12
1,9,19,1,26,23,1
43,39,7,0,4,39,8
47,7,2,26,0,8,34
5,0,1,26,2,2,37
2,1,25,5,40,0,2
11,7,20,2,23,35,0
49,48,3,2,0,41,25
20,7,0,20,1,4,48
0,0,3,23,13,0,11
1,1,26,3,32,5,0
41,8,19,1,6,48,8
54,44,2,15,0,33,30
6,7,0,21,2,2,37
1,1,13,4,27,0,3
10,1,21,1,25,10,2
47,14,6,1,3,42,24
19,34,1,23,1,11,41
1,3,1,26,6,1,9
1,0,23,3,44,3,1
44,0,20,0,26,47,0
49,25,2,14,2,34,26
6,27,0,19,0,3,46
1,4,3,13,18,0,5
6,1,23,1,30,13,1
39,0,15,1,7,39,4
45,37,2,26,2,7,24
3,13,2,25,0,1,45
0,1,17,4,33,0,2
29,1,21,1,29,35,0
51,6,4,5,2,39,28
8,36,1,26,1,5,42
2,9,0,20,3,1,11
0,1,28,1,37,1,0
42,1,21,1,20,46,5
50,8,2,22,3,29,25
4,42,0,15,2,2,43
0,8,6,12,17,0,3
5,0,24,1,32,12,0
47,0,17,15,7,45,20
39,5,2,22,1,9,46
3,48,1,6,1,2,10
1,8,13,0,33,1,1
26,1,21,2,27,36,5
52,0,5,15,3,35,28
9,6,0,22,0,4,42
2,42,1,8,2,0,3
1,9,25,1,35,3,1
40,0,20,1,21,49,18
50,2,3,20,2,24,38
4,5,1,25,0,1,12
0,42,1,3,16,1,0
4,8,22,1,23,13,7
46,1,21,8,7,47,30
42,0,2,24,1,8,37
3,8,0,20,0,2,3
0,44,21,2,34,2,0
23,7,18,1,29,33,18
53,1,6,15,3,41,39
9,1,1,20,1,7,16
1,7,1,11,2,1,2
0,39,23,2,42,1,4
43,8,25,6,22,45,29
51,1,4,23,2,36,39
4,0,2,22,0,2,3
1,6,4,2,17,0,1
4,41,27,1,29,19,18
48,9,25,10,6,50,43
40,1,1,21,1,7,12
3,1,0,7,1,1,2
1,5,11,2,33,2,4
27,40,17,3,27,32,29
51,8,6,28,3,43,50
10,2,2,17,0,3,3
2,0,1,4,3,1,1
7,8,20,1,41,2,16
40,42,18,5,18,55,49
46,9,6,29,3,33,16
3,2,0,17,1,2,1
1,1,3,1,16,1,3
22,2,34,2,26,16,31
53,45,21,18,4,49,42
11,9,2,24,0,8,3
0,2,1,7,1,2,1
4,2,11,2,30,0,17
46,5,19,1,26,27,48
43,44,4,22,3,36,12
3,10,1,26,1,6,2
0,1,1,3,1,2,2
20,1,31,1,39,3,23
50,23,26,0,20,45,47
11,34,3,28,2,34,5
0,2,1,12,1,3,0
2,1,1,1,18,0,22
44,1,25,0,32,11,39
44,36,21,23,6,47,14
2,17,2,25,1,8,1
2,2,1,6,2,2,1
16,1,14,2,28,0,25
54,3,27,0,24,21,47
11,45,7,32,3,38,2
2,9,2,23,0,4,0
1,2,1,3,3,1,16
42,1,19,1,36,0,38
49,8,22,2,18,49,11
4,39,3,30,1,33,0
1,10,2,21,2,3,3
17,2,1,2,6,1,34
47,2,24,1,36,15,48
12,20,22,16,9,39,4
0,33,1,26,2,12,1
4,3,2,4,1,0,14
45,0,12,1,7,1,46
46,0,23,1,31,53,16
3,37,7,29,14,28,0
0,19,2,19,2,2,2
16,0,0,3,2,1,28
52,2,19,2,26,14,45
12,7,24,5,28,49,5
2,41,6,20,3,10,1
1,10,2,20,1,0,17
50,1,2,2,1,1,37
37,2,26,0,38,46,17
4,19,21,22,25,38,1
2,31,2,19,2,4,0
14,4,1,4,1,1,25
49,1,7,1,15,8,50
14,0,22,2,35,58,5
1,33,10,27,6,26,1
1,22,2,28,2,1,12
45,2,1,4,0,0,43
45,1,23,0,25,25,16
2,2,18,1,26,42,2
1,42,2,26,4,6,4
17,11,0,22,0,1,29
50,1,3,1,1,1,41
12,0,28,1,39,48,4
1,19,18,10,25,43,0
1,34,3,25,2,4,11
45,2,0,8,0,1,38
47,1,12,1,9,2,22
4,0,25,0,33,49,1
1,34,5,34,14,23,1
18,18,1,19,2,2,30
53,1,1,2,1,1,49
15,0,25,0,27,28,4
1,4,20,4,30,45,1
2,43,4,29,5,7,9
43,10,0,21,1,2,34
47,1,2,2,2,0,31
3,1,28,1,43,46,2
0,21,22,12,24,38,1
15,36,3,26,2,3,26
48,3,1,7,0,1,47
15,0,13,1,14,8,10
2,1,15,1,32,53,0
0,35,7,24,8,23,8
45,17,0,29,2,3,30
48,1,1,2,1,1,40
2,0,19,0,27,27,2
1,3,19,2,27,37,0
14,42,3,26,4,6,27
50,10,0,23,1,2,42
14,1,1,3,1,1,6
1,1,28,1,39,42,1
1,14,18,11,23,33,1
45,33,2,23,3,1,24
48,2,2,11,2,0,46
5,0,8,1,18,7,4
0,1,24,3,33,50,0
13,31,16,27,7,32,11
50,24,2,23,1,3,37
17,1,0,1,1,0,17
1,1,21,1,29,26,0
1,2,19,4,26,54,1
42,44,4,27,5,9,29
48,8,1,13,1,1,47
2,1,1,1,2,1,3
0,0,23,1,36,44,1
14,2,21,27,29,36,11
48,40,3,23,3,4,38
15,9,2,3,1,1,20
2,1,4,2,11,11,1
1,1,17,6,32,42,1
45,2,21,24,5,16,24
48,44,3,26,0,1,44
3,11,0,1,0,0,5
1,1,22,2,30,46,2
9,1,20,11,27,39,5
50,17,3,23,2,5,31
32,36,1,7,1,1,48
3,3,2,1,1,7,1
0,0,31,0,38,48,2
31,0,27,24,27,30,24
55,31,2,24,2,3,51
7,26,0,5,1,0,10
1,2,7,1,12,23,0
0,0,23,1,29,44,15
40,5,14,34,8,6,38
53,43,0,23,2,1,21
5,10,1,3,0,2,1
0,0,22,0,24,44,0
11,1,15,14,30,35,22
52,17,5,24,4,2,48
16,35,0,9,0,0,5
0,4,0,2,4,10,1
1,0,24,1,43,45,8
38,1,24,27,18,16,39
53,31,2,18,1,1,27
5,24,1,4,0,1,2
1,3,11,1,13,39,0
8,0,22,4,27,36,14
46,3,7,38,8,4,38
37,43,2,21,0,0,9
1,11,1,2,2,3,1
0,1,20,0,26,57,2
25,0,22,9,25,25,22
50,13,6,29,3,3,41
9,37,0,24,1,1,3
1,4,0,1,1,20,1
1,1,23,1,41,45,16
42,0,24,27,24,9,37
49,31,2,19,3,3,21
5,24,2,2,1,0,2
0,2,6,2,11,44,0
8,1,21,1,34,43,28
46,1,21,26,8,3,43
36,42,2,27,2,0,6
3,11,1,3,0,3,1
1,1,18,1,22,67,10
26,0,19,10,27,27,37
50,15,4,25,3,2,25
9,34,1,6,1,0,1
1,3,0,1,3,21,1
1,1,32,0,40,56,31
40,1,21,19,26,10,52
49,26,2,29,3,0,11
4,28,0,4,1,6,1
1,3,7,2,10,59,19
6,1,21,1,34,35,47
49,1,20,34,9,2,14
39,39,2,28,2,0,2
4,14,1,3,0,21,2
0,0,16,0,24,43,21
27,1,24,10,26,12,41
52,18,4,20,4,0,2
10,33,1,9,0,7,1
2,3,0,1,2,57,15
7,1,14,0,39,31,73
45,1,20,22,19,2,8
40,30,0,23,2,2,1
1,26,0,3,0,24,7
0,1,10,0,9,47,39
22,1,26,3,37,8,47
52,2,10,30,17,0,4
10,41,2,23,2,1,0
1,13,0,2,1,40,22
7,0,25,1,23,43,22
46,0,24,19,26,5,28
40,12,3,28,4,0,1
1,31,2,9,0,5,1
1,2,5,1,1,51,5
24,0,22,1,35,38,36
52,1,15,20,20,3,34
12,25,1,21,2,0,2
2,26,1,3,1,21,7
4,2,18,1,6,41,29
47,1,18,5,40,11,39
41,0,6,22,17,2,2
3,39,1,22,1,6,1
1,10,1,3,1,52,9
23,0,23,1,23,26,4
47,1,17,9,28,1,26
11,10,3,24,4,1,2
1,35,1,14,1,36,0
7,3,11,1,2,36,21
48,1,14,1,34,8,46
41,0,12,21,23,2,16
4,28,0,24,1,0,1
0,29,1,5,1,37,2
22,2,23,1,8,34,15
53,0,23,1,37,4,22
12,1,3,26,16,2,1
1,41,1,14,3,5,0
4,13,3,1,0,53,16
44,1,22,0,20,31,39
43,0,24,15,22,3,18
3,10,3,23,2,0,0
1,38,2,8,0,18,3
20,4,18,1,1,52,26
52,0,17,2,34,11,19
10,1,5,25,25,1,3
0,26,1,25,2,11,1
4,29,0,7,0,53,1
45,1,31,1,9,12,23
45,0,20,3,31,1,27
2,1,3,27,17,0,1
1,38,1,16,1,42,1
21,17,6,3,1,40,5
51,2,24,1,25,3,54
13,1,14,9,37,0,25
0,13,2,26,5,3,1
3,40,1,17,1,50,21
44,4,15,0,1,35,39
47,1,27,0,41,1,9
3,0,7,20,23,1,1
0,26,2,18,3,21,1
19,26,2,5,0,51,16
49,2,26,1,5,8,36
12,1,18,0,36,1,20
0,1,5,27,21,1,1
2,38,0,24,3,39,2
47,14,8,2,1,47,32
46,2,23,1,25,5,38
4,1,19,10,27,2,2
1,11,2,21,5,1,0
20,35,0,4,1,54,14
50,3,20,0,1,39,43
12,1,27,2,37,6,24
1,0,5,11,31,1,2
4,25,2,29,2,11,16
46,31,0,5,2,42,12
44,2,27,0,6,12,52
4,1,16,1,39,1,3
1,1,3,29,15,2,0
17,38,1,20,2,49,13
50,18,7,3,1,29,39
12,0,22,0,21,2,6
0,0,22,9,26,0,1
3,7,2,30,3,19,0
47,37,1,12,1,57,28
46,8,23,1,2,9,55
3,0,18,1,39,2,4
0,0,5,14,24,0,0
14,8,2,21,3,34,9
48,41,0,5,0,30,15
15,6,29,1,8,4,66
0,1,20,0,35,0,3
2,1,1,39,22,9,0
45,7,0,15,1,46,26
45,49,8,2,1,31,58
3,8,21,0,19,1,7
0,1,19,3,27,0,1
14,1,2,23,4,12,2
52,11,2,19,0,49,23
15,32,25,1,0,9,33
0,4,20,1,37,0,3
1,0,5,28,27,2,2
47,0,1,23,3,41,2
48,23,1,3,1,48,27
4,32,24,1,7,6,30
1,2,18,4,39,2,4
16,0,3,32,18,3,0
53,0,0,29,0,54,36
15,34,6,2,1,36,39
1,21,26,1,15,2,13
1,1,18,9,31,0,2
42,1,1,22,4,18,10
48,6,0,20,1,47,38
4,44,12,2,1,12,20
0,9,21,0,32,1,2
11,1,4,20,20,3,0
50,1,0,21,2,50,35
14,4,2,5,1,35,41
0,44,30,1,7,4,8
0,13,15,4,35,0,1
46,2,2,33,21,11,26
51,0,1,22,2,44,56
5,26,8,2,1,11,14
1,28,20,2,22,0,2
17,1,20,14,25,1,0
49,1,2,27,5,45,35
15,1,1,7,2,32,69
2,32,19,1,1,3,3
0,22,21,0,31,1,1
45,3,5,13,24,13,5
47,0,1,20,2,53,34
3,5,1,5,0,16,30
1,41,24,1,7,1,2
13,11,17,0,43,1,0
50,1,3,44,14,50,33
17,1,1,14,3,44,41
2,23,4,2,1,3,8
1,35,22,1,24,1,1
43,4,21,11,27,8,0
48,0,2,14,4,48,25
4,1,1,11,1,43,50
0,37,21,0,1,4,4
11,15,24,3,32,0,2
50,2,5,27,22,36,17
16,1,2,11,2,45,39
1,3,1,3,1,6,17
2,46,28,1,12,0,2
43,8,24,4,32,1,1
48,2,2,39,11,55,24
3,1,1,6,2,38,48
1,1,4,1,0,3,4
12,45,23,0,37,2,1
46,8,14,14,28,10,10
17,1,2,14,3,49,40
1,0,0,12,2,8,21
0,6,22,1,5,2,1
48,44,22,1,47,0,2
46,9,5,20,20,29,28
3,2,2,28,2,45,48
0,0,1,2,0,7,5
9,5,24,1,27,2,1
45,50,19,10,23,1,10
37,14,4,27,5,38,36
2,1,1,10,1,45,21
1,0,5,2,1,3,2
32,20,27,0,36,1,0
50,34,16,39,26,11,26
9,2,0,22,3,47,48
2,0,1,1,1,16,4
2,1,11,1,6,1,1
46,35,21,21,33,4,13
47,21,8,12,22,59,45
4,1,1,4,0,31,23
0,1,1,1,1,2,1
7,2,31,1,19,1,0
47,48,29,9,28,15,33
38,13,5,2,6,47,44
3,1,0,9,2,12,3
1,1,5,17,0,2,1
26,17,32,15,35,2,7
50,32,21,31,24,47,31
10,2,1,2,3,53,46
2,1,0,99,1,4,4
7,1,12,22,8,2,0
47,33,20,15,39,11,32
36,20,7,6,18,50,52
1,1,1,1,2,15,12
2,0,1,1,2,2,1
28,3,24,42,17,1,5
52,43,26,212,23,54,30
10,11,2,16,5,40,30
1,0,0,1,1,4,1
11,2,3,1,1,0,0
48,16,20,55,28,3,21
18,35,21,61,30,53,50
1,2,2,20,2,29,13
1,2,0,0,1,4,0
42,1,19,1,0,1,6
50,27,17,215,31,28,36
5,18,7,68,29,42,35
0,1,1,5,2,6,2
8,1,0,2,2,1,1
46,4,22,13,23,1,30
39,37,11,12,24,53,42
2,10,2,1,4,45,13
0,1,1,0,1,3,0
27,0,3,146,0,2,5
48,20,26,22,30,9,28
10,37,17,18,20,55,38
1,1,2,0,2,19,3
4,2,0,5,1,2,1
45,1,14,17,7,2,19
41,33,20,1,41,34,38
2,27,9,1,16,35,15
1,0,2,89,2,6,1
24,0,1,71,1,0,4
53,2,29,50,19,0,19
10,46,23,4,31,50,41
0,10,4,1,6,33,2
6,1,0,35,1,2,1
46,0,2,137,0,2,18
41,17,25,56,33,9,45
3,35,17,4,24,49,18
0,2,2,60,3,29,1
25,1,3,60,1,2,7
51,2,12,57,4,0,25
10,30,19,3,41,33,48
1,21,9,0,25,39,4
4,1,1,15,1,7,2
45,0,1,1,1,1,14
41,0,29,221,19,1,48
2,40,17,15,27,36,15
2,11,2,11,5,38,1
23,0,1,0,0,2,4
53,1,1,78,0,2,25
11,13,25,4,34,7,38
1,34,20,140,25,51,3
5,4,2,133,2,27,0
43,1,2,8,0,3,12
47,1,10,262,6,1,37
2,29,9,10,34,26,12
0,24,19,103,15,39,1
25,2,2,147,2,8,7
51,1,1,15,2,2,40
10,3,23,10,13,1,45
1,37,11,50,37,41,3
2,10,3,55,8,27,1
43,1,0,67,2,1,17
43,1,1,37,0,1,39
3,12,20,35,31,12,9
1,38,26,11,25,39,2
21,3,3,57,4,14,0
48,0,0,21,0,2,33
11,0,16,30,9,1,47
2,27,21,6,39,43,6
2,23,8,117,18,36,1
42,2,0,49,1,4,2
43,1,1,39,1,1,26
3,6,21,30,14,5,55
0,39,18,10,30,52,2
17,14,4,34,6,27,1
51,1,1,161,1,2,17
12,0,4,4,0,2,40
1,12,32,78,31,24,16
4,40,19,138,32,41,2
46,3,2,70,2,6,3
45,2,0,32,1,1,32
2,1,12,2,6,1,51
1,34,18,74,45,42,4
19,25,8,8,20,36,1
50,2,1,28,2,4,14
13,1,1,11,2,0,35
1,0,21,36,14,6,12
4,42,17,30,31,48,0
46,12,2,14,7,21,2
43,2,0,5,1,2,29
3,0,0,52,1,1,43
0,9,26,56,37,23,2
17,35,19,54,26,39,1
50,17,4,6,3,9,14
13,1,1,3,2,2,47
2,0,10,1,2,1,16
1,25,22,91,41,52,0
46,26,5,49,21,25,2
46,0,1,104,2,3,34
1,2,1,46,1,1,51
1,1,24,48,17,10,4
17,46,25,5,30,49,2
48,15,4,8,7,16,19
14,1,0,30,2,1,42
1,1,1,100,1,0,15
2,10,23,9,39,36,0
44,34,19,4,26,34,1
47,3,2,1,2,2,24
3,0,1,135,2,0,48
1,1,9,78,2,2,3
17,22,20,20,35,51,1
50,24,18,52,21,32,15
13,2,2,9,2,1,39
1,1,1,44,1,0,14
2,1,19,14,24,14,1
44,36,23,3,34,42,0
43,15,4,83,4,8,25
4,1,2,17,1,2,40
2,0,0,24,1,1,2
16,14,30,2,29,37,1
47,39,22,13,23,36,24
13,3,3,71,2,3,42
1,0,1,3,0,1,21
4,1,19,119,4,2,1
51,32,15,4,33,63,0
43,36,7,72,17,31,29
3,3,2,33,0,2,48
1,1,1,18,1,1,2
13,0,21,4,16,7,1
52,35,27,82,33,44,19
16,16,2,20,6,23,41
1,1,0,6,1,0,21
2,0,1,28,0,0,0
40,13,26,24,30,33,0
3,36,24,35,24,29,27
2,3,2,3,3,2,45
62,1,0,31,1,1,3
1,1,12,50,2,6,0
0,26,21,34,30,52,13
218,23,5,40,17,34,46
47,1,0,2,2,2,15
2,0,1,54,1,1,1
95,0,25,86,9,19,1
407,27,14,34,41,44,28
11,19,4,65,28,11,48
100,2,0,28,2,0,4
83,2,1,8,1,5,2
44,7,24,18,28,64,11
3,41,29,49,24,37,36
1,5,1,57,4,1,18
86,1,1,12,1,2,1
75,1,12,79,2,14,2
49,9,16,13,31,58,34
3,46,7,4,20,7,52
8,9,0,26,1,2,4
230,2,0,36,1,1,0
9,0,20,5,30,46,9
14,5,25,1,77,38,31
72,41,6,7,10,5,39
45,8,2,33,1,2,3
9,2,3,69,2,2,1
7,0,25,6,0,56,18
1,11,19,0,1,27,42
4,37,1,54,9,2,8
59,4,1,57,62,1,2
83,1,27,15,96,16,1
5,1,6,29,12,47,46
88,28,22,8,0,10,48
17,46,2,32,15,1,5
53,4,1,18,3,9,1
4,1,21,7,43,61,10
51,0,23,0,77,25,41
36,40,6,16,8,3,18
71,20,1,32,1,0,0
5,1,2,10,20,22,1
2,1,22,16,77,53,31
61,7,19,25,25,13,49
56,36,3,57,3,1,4
10,9,0,7,0,4,1
0,2,13,7,78,49,15
16,0,6,2,165,32,39
21,7,11,78,12,3,21
194,41,5,78,2,1,1
10,8,1,10,29,15,1
1,1,7,7,60,46,24
35,1,14,79,9,10,57
21,7,1,9,158,1,5
2,34,0,13,23,1,1
1,8,0,4,6,47,6
0,1,42,2,20,38,23
76,0,23,56,2,5,56
35,11,3,30,0,0,3
3,43,0,3,19,1,0
3,6,2,2,2,16,24
18,1,24,30,79,64,36
54,0,14,79,13,13,9
2,25,2,7,8,8,1
5,29,0,25,10,46,2
0,2,8,24,13,41,27
150,0,19,34,2,3,53
18,1,15,29,21,2,5
2,49,1,3,55,34,0
0,15,0,9,27,39,6
81,1,14,31,77,3,31
62,0,4,68,4,0,39
7,14,21,46,112,23,4
2,55,3,3,7,20,0
3,4,1,15,84,32,21
2,0,30,15,4,17,42
57,0,11,20,57,2,12
35,31,3,2,22,55,1
3,25,1,38,2,6,6
31,3,9,8,0,26,31
57,1,22,107,13,15,36
10,1,15,14,45,54,2
2,34,1,2,5,16,1
2,17,0,80,31,13,23
38,1,29,31,48,21,41
29,1,13,43,41,3,11
27,5,6,11,2,85,1
2,45,0,120,26,106,2
6,8,1,28,11,3,34
54,0,25,7,3,135,41
20,1,32,20,14,10,4
2,4,4,26,51,33,0
2,35,0,36,3,3,20
43,7,9,11,2,9,44
15,1,18,2,131,48,8
0,1,20,40,24,17,2
26,25,0,35,2,143,2
40,38,0,13,1,16,30
90,5,25,1,0,21,52
9,1,26,14,22,116,8
1,0,8,17,28,89,1
15,15,0,10,3,4,7
47,42,1,15,0,90,31
25,2,13,40,33,15,37
1,1,11,47,42,3,3
0,1,8,88,14,29,0
55,52,3,22,1,142,27
21,30,14,4,10,49,41
3,2,6,14,21,3,14
1,2,16,133,4,6,1
19,1,3,4,62,75,4
29,51,1,1,2,21,25
13,61,26,47,169,84,38
0,3,26,43,13,4,4
1,1,5,5,1,54,1
48,2,2,6,0,140,16
26,9,0,13,35,32,32
11,27,32,41,50,6,13
1,10,24,10,3,44,1
24,1,4,1,1,116,5
49,25,1,4,16,4,25
7,33,12,18,36,1,43
2,2,16,18,4,4,4
3,0,16,2,2,59,2
5,0,1,27,1,40,13
47,20,0,5,15,6,45
32,13,5,36,47,2,15
1,19,33,16,45,2,1
0,0,23,60,3,140,3
35,26,9,6,1,68,35
55,85,45,128,30,25,43
4,5,6,6,44,112,3
1,2,3,4,3,5,0
17,1,2,1,0,115,14
39,1,2,8,25,3,40
4,51,3,45,41,36,18
1,91,36,15,7,50,1
1,5,18,4,0,6,3
40,25,44,4,2,36,26
7,24,2,23,31,2,44
68,18,85,33,16,92,3
2,1,105,5,1,52,0
0,1,3,1,0,15,11
0,169,2,2,47,11,40
126,139,2,48,36,27,15
6,5,56,86,9,29,1
0,0,81,10,2,77,2
29,42,5,90,1,75,26
53,57,1,14,11,46,44
5,3,53,7,97,124,4
4,84,80,18,4,7,1
1,151,15,3,0,13,10
61,54,1,45,2,4,44
43,2,15,25,51,67,20
6,2,178,2,35,45,2
0,5,25,21,2,43,2
25,163,1,42,1,31,21
44,61,78,22,12,68,50
25,4,78,33,47,25,3
1,1,23,2,6,2,1
0,1,66,1,1,37,15
60,61,2,98,1,158,40
52,98,0,16,13,5,16
4,175,121,4,38,1,1
1,23,64,14,3,24,1
28,2,18,10,1,48,27
70,146,78,62,0,5,45
58,32,21,23,42,1,3
5,240,0,22,65,0,0
1,28,18,47,9,14,13
24,4,76,10,2,75,41
31,4,20,13,56,33,16
9,16,21,32,63,21,2
0,30,1,12,11,3,2
1,1,11,17,1,99,32
60,283,60,22,19,28,48
22,14,75,1,20,42,2
2,191,6,67,41,2,1
0,6,64,21,2,31,8
42,1,8,30,1,44,24
41,7,8,1,12,2,42
24,64,83,37,14,45,4
2,50,26,88,14,16,0
4,4,17,11,2,74,23
23,8,114,12,4,50,51
78,80,8,4,49,3,9
6,17,16,29,4,0,2
1,1,31,3,1,66,1
33,224,81,39,0,39,31
56,14,38,3,5,2,48
11,260,0,39,51,1,5
1,9,4,24,21,66,1
1,3,21,3,2,42,8
34,8,22,1,0,5,29
69,27,1,11,2,37,35
15,8,106,1,46,72,2
0,8,13,68,23,23,1
25,31,24,28,2,26,31
78,25,2,2,4,2,45
8,2,21,77,43,159,10
1,1,19,19,50,35,0
9,14,88,25,2,14,10
40,33,12,29,5,2,37
58,6,8,2,21,96,18
8,0,19,71,40,41,1
3,302,86,79,21,45,2
1,14,7,6,3,2,25
27,9,2,5,1,12,47
52,101,64,9,57,97,3
4,30,20,65,24,118,0
4,14,52,5,2,4,18
13,3,2,15,1,91,38
12,7,61,2,3,11,20
10,24,30,77,38,48,1
1,32,121,21,20,7,1
2,32,5,19,1,2,37
47,36,3,13,1,11,44
51,15,16,65,12,17,6
4,1,22,88,51,114,2
13,8,6,30,7,81,5
60,20,48,16,2,15,34
26,63,6,6,2,14,42
6,17,23,80,63,26,1
1,62,61,20,22,6,1
7,220,11,2,2,20,27
41,14,113,23,18,103,44
48,1,4,15,1,12,8
3,19,79,60,71,13,1
1,120,13,4,40,41,1
31,82,3,1,3,24,31
49,16,49,65,0,14,48
5,5,26,57,51,14,4
2,15,12,4,16,68,0
0,44,19,27,0,30,9
52,13,42,14,1,12,30
46,1,19,13,0,21,36
6,43,3,57,50,116,2
0,2,74,4,28,48,0
1,0,32,68,1,3,22
60,27,19,18,0,8,48
57,39,2,24,14,7,9
2,99,12,2,55,104,2
1,7,48,17,7,7,0
32,16,11,63,0,2,29
74,2,34,4,0,14,48
7,5,1,8,22,33,5
1,188,57,4,90,82,1
0,6,87,53,6,89,9
39,29,26,4,1,8,29
46,126,6,39,5,1,34
6,40,11,36,49,59,1
0,2,25,32,21,43,0
2,0,60,20,1,2,21
48,19,21,12,2,1,46
36,10,25,3,31,85,10
4,26,21,7,29,46,1
2,2,57,2,4,7,9
20,6,8,82,1,1,32
51,17,91,12,2,48,36
8,108,11,14,58,2,2
1,17,10,16,10,42,0
1,10,33,55,7,26,25
36,121,19,9,5,1,49
38,15,29,26,1,5,11
3,73,12,25,15,12,0
0,16,15,19,79,29,8
19,1,29,32,5,4,30
88,61,12,5,3,3,40
19,3,3,15,36,180,3
2,1,3,23,20,42,0
0,18,10,18,6,9,22
46,21,10,39,0,1,43
53,6,60,6,1,5,12
7,1,5,103,40,14,1
2,1,10,9,48,18,4
24,1,14,77,5,44,27
44,4,71,4,1,9,48
21,39,18,16,0,40,3
1,49,16,44,38,72,1
1,6,8,6,29,4,21
75,70,10,4,3,2,42
37,54,11,6,1,171,12
10,2,71,40,28,11,1
2,198,19,29,13,9,2
26,94,107,6,11,2,24
44,16,9,0,0,1,42
15,48,0,34,36,45,3
0,6,6,66,57,26,1
19,19,43,50,10,7,19
18,38,46,44,1,9,50
50,2,76,3,1,20,10
2,1,7,86,47,16,1
0,1,66,41,14,3,3
60,42,25,3,3,2,27
50,38,27,1,2,78,44
3,3,2,1,0,58,4
0,1,46,145,50,39,0
1,0,9,15,20,2,20
32,115,70,1,2,1,53
63,26,3,7,0,11,12
5,3,15,37,15,68,1
1,90,17,29,54,18,1
43,22,60,3,13,23,30
40,2,21,4,1,9,39
8,215,21,14,2,56,2
0,107,27,15,29,88,1
1,20,25,74,49,3,18
26,1,32,17,6,6,33
42,0,15,4,2,25,16
21,26,22,92,30,14,1
2,58,69,12,30,5,7
27,15,5,3,1,0,28
35,4,35,19,1,32,32
19,1,10,62,1,45,2
1,1,33,3,44,21,1
0,1,44,30,23,3,19
43,39,6,3,1,74,38
53,0,1,81,1,24,11
3,99,29,11,17,50,1
1,110,121,24,37,3,9
10,33,11,4,11,2,28
63,4,5,0,0,58,43
26,71,37,18,8,64,2
1,44,55,30,25,8,1
0,14,37,5,77,1,14
30,43,13,3,6,43,37
58,47,49,0,1,54,19
5,4,16,65,23,17,1
1,14,22,44,26,0,1
41,3,2,3,18,8,24
36,2,10,32,1,82,46
8,3,17,32,2,17,2
2,42,14,65,48,13,1
0,6,2,16,22,1,14
52,1,0,2,2,101,39
34,1,34,98,2,19,16
7,0,50,37,10,8,1
2,0,8,11,41,2,4
2,16,39,2,10,54,29
42,165,17,31,1,103,45
27,21,18,63,8,4,3
3,90,27,28,41,3,2
1,91,10,2,44,0,13
15,10,51,1,6,18,39
53,1,6,59,2,18,19
14,29,52,31,3,27,1
0,25,26,3,21,3,0
5,3,8,0,46,4,38
53,28,39,0,7,80,45
59,14,23,205,0,27,4
4,20,2,8,14,15,0
1,10,52,2,32,1,11
5,1,31,15,2,87,40
108,1,23,70,2,62,17
13,17,9,38,3,2,1
1,102,1,6,34,0,1
1,5,25,3,28,69,28
40,2,61,5,3,19,46
49,92,34,124,0,4,3
2,34,3,28,4,1,1
0,105,11,2,62,13,12
17,52,8,15,31,9,44
54,5,53,12,2,90,23
12,29,19,31,0,9,2
2,5,4,7,52,1,5
28,59,6,2,9,12,25
48,5,12,14,44,33,43
25,16,3,36,6,18,3
2,20,1,5,1,4,0
1,5,10,2,48,0,18
28,1,38,3,26,32,40
58,2,20,39,5,49,11
13,47,10,46,2,28,1
0,4,13,10,8,1,1
19,114,64,6,17,57,23
77,12,42,2,26,23,51
7,86,17,75,3,39,4
22,45,3,66,0,14,0
2,11,30,6,23,1,11
46,44,106,44,30,13,41
22,20,3,76,5,25,20
2,11,2,57,1,4,0
0,3,45,4,9,2,0
9,5,17,3,34,78,28
53,46,13,33,32,12,42
21,18,2,23,2,43,4
3,0,29,5,0,21,1
1,0,24,0,29,17,9
27,44,16,8,49,40,31
46,5,13,30,6,1,38
16,1,2,30,1,1,1
2,68,24,7,0,54,1
1,10,60,4,27,54,35
49,85,11,0,25,61,44
32,82,32,30,4,11,8
2,5,32,54,1,1,2
1,3,4,9,1,12,1
26,140,13,39,42,60,32
56,55,1,12,24,59,47
4,68,6,17,7,3,4
1,4,93,19,1,1,1
1,1,8,2,4,67,10
27,110,7,30,24,78,40
58,21,5,8,35,5,21
3,3,5,13,2,2,0
0,1,38,4,4,57,2
11,12,8,0,32,5,27
57,86,1,52,35,16,50
10,4,3,12,5,2,5
0,1,58,3,1,28,1
1,0,60,0,0,17,5
22,98,3,2,19,11,40
59,7,13,16,46,22,38
7,211,2,53,2,2,2
2,48,61,20,1,33,2
4,2,6,0,8,61,25
55,158,21,79,55,8,47
31,133,0,59,22,2,10
1,4,26,10,2,44,0
2,8,10,2,1,75,9
29,41,28,45,15,47,30
35,12,3,68,34,4,38
16,1,1,9,17,4,3
2,39,14,2,0,70,2
19,58,21,1,1,14,27
35,5,22,71,78,5,45
14,4,2,33,28,1,10
2,1,12,4,5,5,1
1,0,26,23,1,30,8
62,3,12,4,56,17,29
46,180,1,35,67,1,36
6,4,79,10,9,31,2
1,90,26,1,1,100,2
3,65,16,2,0,19,28
54,46,1,104,32,8,45
43,102,27,12,16,3,9
4,257,77,1,2,80,1
1,56,12,0,1,9,2
25,7,1,53,3,27,25
53,1,4,7,46,8,43
14,2,15,60,33,11,5
0,22,49,32,2,45,1
11,15,8,32,1,79,4
53,2,2,12,27,4,26
12,1,2,13,14,5,39
1,1,16,5,1,17,2
4,31,29,9,0,24,1
35,42,3,56,0,29,22
54,3,6,16,48,4,52
4,1,5,4,30,3,10
1,49,43,0,6,37,1
8,48,69,2,2,58,8
40,32,46,80,6,3,28
21,5,2,22,40,52,42
2,42,14,7,30,18,2
0,41,22,1,2,33,0
19,24,7,54,1,5,19
47,129,1,95,20,25,41
9,4,13,11,30,55,11
1,7,31,6,6,7,2
0,60,18,45,0,13,5
24,4,5,66,1,2,25
46,5,8,44,25,2,41
3,7,71,27,45,43,4
1,27,45,11,4,28,1
20,6,30,4,1,2,19
21,2,49,7,0,4,42
38,0,7,50,61,83,10
2,6,6,29,47,29,1
0,24,37,52,4,19,7
27,1,2,6,1,1,26
47,193,29,62,26,20,41
10,5,41,5,56,51,2
2,151,17,2,4,22,0
9,8,2,53,2,0,20
69,115,1,9,13,8,42
24,19,39,2,6,57,13
0,58,43,38,51,7,2
1,3,28,44,11,20,12
42,4,18,34,2,3,31
63,1,10,29,0,2,32
5,4,3,4,48,94,2
1,80,36,1,28,38,0
8,7,2,92,3,25,27
45,1,1,25,1,38,48
39,1,73,4,44,23,5
2,19,17,12,18,27,1
0,9,2,41,1,6,3
18,24,10,14,1,28,33
77,3,73,8,7,27,45
14,6,7,19,45,29,3
1,139,17,10,12,0,2
1,61,0,114,2,1,19
60,9,25,14,0,3,38
26,127,16,11,27,74,13
3,24,21,9,40,25,1
1,8,16,7,22,2,1
6,1,7,28,2,2,42
81,48,1,4,1,18,44
28,3,17,1,68,20,3
2,76,9,136,13,13,1
9,9,6,17,1,2,18
22,2,1,39,0,13,43
64,1,37,3,27,62,12
8,7,22,15,34,6,0
0,41,14,21,4,1,1
26,13,23,2,0,0,35
37,0,16,3,0,65,48
44,1,13,36,48,156,3
3,25,7,29,18,8,1
1,16,2,21,3,1,16
30,230,39,34,1,1,44
62,5,37,3,1,54,14
8,58,11,17,54,45,2
1,170,6,50,43,24,2
3,5,23,22,3,1,27
43,21,2,2,1,40,44
33,97,31,61,30,61,3
1,30,4,31,48,7,0
0,4,10,16,7,1,19
27,1,19,17,1,2,39
54,0,34,42,1,116,17
17,37,76,5,23,21,0
2,37,6,68,38,3,4
25,2,5,5,5,48,37
40,0,71,40,1,48,45
16,46,4,21,0,25,3
1,8,2,4,45,15,1
0,0,13,40,47,0,13
60,0,19,29,5,22,43
44,47,2,16,0,3,17
8,179,40,36,6,24,1
0,26,1,14,47,8,2
13,1,2,0,37,26,28
47,44,24,52,2,34,43
9,227,41,15,1,21,2
0,8,4,9,51,2,0
1,2,1,4,25,12,17
15,1,3,6,15,26,40
34,14,59,22,1,1,13
16,70,15,44,13,20,0
2,7,11,8,29,15,4
14,1,19,5,7,45,31
57,2,2,5,2,29,37
32,1,32,84,1,3,2
1,62,1,43,23,7,0
0,25,1,61,48,6,14
36,4,17,3,7,27,48
57,2,14,30,1,50,16
7,32,37,34,11,6,2
0,146,3,11,58,3,1
1,3,1,2,17,19,31
49,1,15,87,0,23,52
58,79,13,37,0,4,5
4,114,1,85,37,0,1
1,7,1,3,20,54,14
36,1,30,1,8,91,44
85,1,61,55,1,28,15
13,24,25,6,4,2,2
1,5,5,1,55,4,0
2,74,6,40,30,11,31
46,17,29,25,4,61,50
49,3,10,97,1,4,4
3,1,6,13,14,2,1
0,41,6,0,29,10,17
52,13,1,58,7,52,40
40,1,73,36,0,25,17
10,6,27,3,0,2,1
1,1,5,3,54,0,2
0,9,2,8,27,7,29
52,35,17,66,4,47,48
27,77,15,15,1,13,5
3,10,27,12,17,86,0
1,2,3,42,41,5,9
55,218,1,11,11,51,35
57,23,7,10,1,11,31
12,60,34,7,5,1,1
1,3,13,1,29,7,1
23,1,2,46,35,14,22
36,1,14,38,3,39,50
24,2,29,16,0,24,9
2,48,118,8,8,4,1
0,15,2,100,57,1,0
36,2,2,9,23,23,24
72,1,32,105,2,53,46
9,1,13,2,2,16,3
1,1,1,29,30,0,0
12,5,2,20,14,14,16
35,35,65,2,14,72,46
19,16,13,114,1,23,18
2,117,5,31,1,48,1
0,34,5,10,79,25,1
55,84,1,18,41,2,29
45,29,34,43,2,30,45
5,2,88,2,0,4,4
1,225,15,56,6,21,1
0,34,2,23,45,17,16
52,7,2,5,17,26,41
30,37,47,9,1,2,21
12,19,6,18,0,9,2
1,5,8,55,22,32,1
15,1,9,14,46,27,24
87,14,8,3,6,16,48
9,50,38,1,2,1,4
0,10,6,79,1,57,1
1,1,9,54,27,51,10
43,29,2,5,47,3,35
36,123,27,1,3,1,19
3,23,9,0,1,5,2
0,1,25,40,14,44,0
11,253,1,31,14,38,29
41,18,22,14,2,28,47
25,37,50,0,0,2,4
2,113,13,30,0,2,0
1,28,2,24,63,56,11
42,36,13,8,40,23,31
50,9,26,1,4,12,23
3,1,24,33,0,1,2
1,1,3,55,15,57,1
0,32,7,38,43,20,30
55,21,4,5,4,4,51
24,1,21,13,1,0,4
2,7,34,26,1,36,2
0,4,1,17,5,22,7
21,1,0,11,43,39,37
61,70,5,1,8,3,37
7,43,36,26,0,2,2
0,3,8,16,0,25,1
0,167,2,22,17,90,22
45,49,1,1,35,17,47
49,21,14,25,6,1,11
8,153,29,37,2,41,1
0,17,6,16,1,19,6
4,73,6,1,24,13,27
93,4,10,1,65,2,41
37,1,36,31,16,2,3
3,17,7,27,2,31,0
2,30,12,4,12,16,18
36,7,24,0,35,5,51
38,1,9,19,4,2,11
14,0,15,18,1,61,1
2,17,13,4,1,129,7
1,7,38,2,34,6,30
44,18,16,18,30,2,40
34,3,11,4,5,39,3
4,8,2,12,1,72,0
2,228,4,2,1,23,27
17,9,3,0,60,4,50
45,77,35,68,39,1,11
18,100,42,6,3,60,1
1,70,4,6,1,49,19
2,5,0,43,4,4,36
57,9,33,6,68,3,21
30,2,42,1,26,1,1
1,30,18,47,3,60,1
1,54,4,3,0,29,31
27,13,2,1,50,2,48
40,0,61,1,12,1,4
10,15,17,19,4,20,1
0,52,20,63,1,42,6
18,3,2,4,1,9,27
41,0,22,2,37,4,42
22,1,26,1,23,2,2
1,0,2,41,2,112,1
1,87,2,30,2,11,16
2,5,10,4,22,7,44
177,72,19,1,38,3,15
21,21,16,4,2,23,1
2,4,3,36,7,20,5
1,112,38,18,0,29,38
6,15,3,7,51,0,45
85,65,30,0,24,2,2
12,96,3,1,2,50,1
2,44,0,22,0,9,22
31,42,32,21,4,2,42
43,3,14,1,31,30,12
4,104,24,2,47,18,0
0,18,41,13,3,50,3
6,2,6,23,1,6,33
41,0,21,5,1,2,39
43,9,76,1,38,1,2
2,38,7,3,35,48,1
2,17,2,31,2,48,24
25,2,8,34,0,18,40
53,1,59,1,19,3,11
10,18,27,1,25,8,1
0,12,2,4,6,39,4
11,1,11,40,0,4,28
52,12,31,15,0,1,42
21,214,29,6,37,0,3
1,33,5,2,37,41,1
1,39,1,1,3,54,23
33,2,37,15,0,10,44
56,178,17,72,36,1,15
6,10,16,3,19,1,1
1,75,2,1,6,23,4
9,5,27,9,1,34,31
43,1,15,25,2,3,40
44,10,12,9,28,1,2
3,10,14,2,32,39,1
1,2,2,37,4,84,18
24,0,13,22,1,5,44
55,34,61,1,3,1,12
12,6,4,1,44,1,1
1,2,1,1,29,37,3
16,19,3,19,2,39,30
25,32,48,36,0,4,49
20,80,6,8,20,2,3
1,35,7,1,34,2,1
2,221,1,1,7,23,13
42,53,6,8,2,10,53
56,5,51,27,0,2,14
8,11,9,12,21,0,2
1,21,2,1,46,14,6
0,2,1,1,6,60,33
39,56,45,38,2,36,48
42,12,63,19,2,3,4
4,1,30,2,46,0,1
1,1,2,0,29,43,17
20,22,3,12,2,32,42
54,49,44,15,1,4,13
15,8,21,14,19,2,2
0,1,1,2,37,19,5
10,55,0,1,9,58,31
36,10,14,18,1,6,43
28,36,38,27,0,1,4
1,230,7,2,18,2,1
0,53,3,0,28,44,18
41,42,1,1,6,37,43
54,82,39,31,2,6,20
8,42,57,23,0,2,1
2,9,4,3,36,7,2
16,50,1,1,27,50,31
53,5,15,19,2,17,53
18,1,31,42,0,1,6
0,0,26,13,16,1,1
0,38,3,1,40,13,14
52,32,1,9,11,39,41
45,24,26,31,1,6,18
5,2,46,21,3,2,1
1,1,7,2,28,1,2
0,15,5,1,45,35,29
46,22,1,24,4,30,39
50,2,33,43,0,4,3
2,103,7,5,6,1,2
2,164,10,1,44,1,17
29,26,1,1,18,37,40
51,141,35,51,1,24,13
9,121,11,13,0,1,1
2,31,12,2,28,0,0
1,3,1,0,31,17,29
34,15,8,5,4,36,45
69,4,2,43,0,6,3
5,19,6,11,1,1,0
1,34,3,2,48,1,15
12,2,1,1,42,31,37
47,1,1,13,4,29,22
24,2,33,34,0,4,1
1,46,38,4,18,1,2
0,6,13,1,55,3,26
56,1,1,1,10,42,52
34,0,0,19,0,26,3
4,148,26,25,1,2,1
1,88,29,4,19,2,15
3,127,1,1,28,16,39
44,3,5,1,2,36,21
48,83,15,35,1,7,1
3,72,43,19,14,1,1
0,106,3,2,36,2,27
26,3,1,0,8,31,45
39,27,7,14,1,36,4
10,19,42,24,1,5,2
0,1,13,6,24,0,14
3,1,3,1,40,2,44
44,1,1,1,8,55,17
42,32,24,27,1,14,2
3,18,9,19,0,2,1
1,2,30,3,39,0,28
29,2,2,1,24,14,47
52,14,30,6,3,40,3
14,49,22,36,1,6,0
1,7,5,18,12,1,18
4,1,15,2,39,1,40
48,1,0,1,12,29,16
47,22,7,13,2,32,1
4,37,39,26,1,4,1
0,3,13,7,35,2,29
17,1,2,1,24,3,50
52,1,1,2,2,48,4
13,68,28,31,1,30,2
2,22,4,27,9,2,10
1,1,12,2,38,1,42
51,1,2,1,23,11,17
47,0,6,1,0,45,0
3,30,27,22,0,9,1
1,15,52,23,18,1,21
17,1,9,2,36,1,67
53,2,2,1,3,30,5
16,23,61,9,1,41,1
0,41,16,26,1,4,10
3,7,8,9,28,1,33
39,1,1,1,19,3,19
53,1,2,0,3,48,1
3,43,44,10,1,29,1
0,6,41,23,9,2,29
19,2,3,5,31,1,47
47,2,1,2,18,19,4
10,0,2,1,1,38,2
2,33,22,40,0,12,11
2,22,19,14,38,0,38
47,3,1,3,19,2,21
43,8,1,0,2,47,1
2,1,21,3,0,28,1
1,43,20,34,1,1,27
14,26,16,14,38,0,54
51,87,1,0,36,12,4
14,10,3,0,3,40,0
0,38,30,17,0,8,8
1,22,17,18,6,1,29
47,1,3,10,43,2,30
47,0,0,2,22,29,1
4,30,26,5,2,29,0
1,40,8,39,1,5,30
9,3,8,20,20,2,48
54,0,0,4,31,1,9
25,0,0,0,6,36,0
2,37,16,11,1,22,0
0,14,29,30,1,3,34
36,1,7,5,32,0,47
49,2,2,1,24,10,4
6,18,1,0,2,29,1
1,27,18,20,0,9,7
0,17,38,24,7,2,33
42,1,4,4,36,1,31
48,0,0,2,20,24,2
3,42,4,1,2,32,1
0,22,32,32,0,5,23
15,3,5,29,23,2,43
47,1,1,3,31,1,10
17,2,1,1,5,35,0
2,45,11,20,0,18,9
4,8,30,28,1,2,42
33,2,9,5,32,0,36
45,1,2,2,22,10,2
4,3,1,1,2,33,0
1,31,26,26,1,9,27
12,10,32,12,3,2,45
51,2,8,2,42,1,10
18,1,0,1,26,29,1
0,21,0,7,2,32,8
0,33,24,17,1,5,34
40,3,24,24,17,1,37
44,1,4,3,29,0,3
4,0,1,1,3,40,1
1,34,1,11,1,28,29
14,20,26,24,1,3,47
46,2,23,7,32,1,8
19,1,3,2,31,6,1
1,8,1,2,2,45,1
1,37,14,31,1,15,33
42,8,17,16,4,2,48
50,3,8,3,41,1,5
4,1,2,0,19,25,2
0,1,0,7,2,32,3
10,42,19,27,1,4,32
49,13,22,13,19,2,50
19,1,5,2,32,1,4
0,0,1,1,4,43,1
1,15,1,11,1,31,26
42,33,21,28,0,2,50
47,3,28,8,35,1,11
4,0,3,1,23,7,1
2,0,1,0,3,42,5
7,32,7,28,0,26,35
44,17,18,26,8,1,42
39,1,12,2,36,1,2
3,2,0,2,19,27,1
2,3,1,4,0,27,24
29,40,31,29,0,4,42
52,11,14,26,18,1,10
9,1,5,4,38,0,0
1,1,0,0,7,40,6
1,19,2,14,0,27,32
41,33,20,29,0,3,39
43,3,22,6,34,0,3
4,0,3,1,27,8,2
2,0,0,1,2,51,20
10,33,7,31,0,22,43
52,21,24,17,8,2,10
22,1,25,6,41,0,1
0,0,1,1,20,25,3
2,4,0,5,1,41,30
37,37,20,25,0,5,42
51,10,22,16,18,1,3
5,1,6,3,37,2,1
0,0,0,0,6,45,20
8,11,1,15,1,36,42
45,40,26,25,1,5,9
41,3,27,7,37,0,2
2,1,2,1,25,10,1
1,1,1,1,3,47,30
31,30,10,24,0,7,47
48,24,18,25,5,2,7
8,2,13,4,36,0,1
2,0,2,0,21,33,5
1,1,1,5,1,33,33
43,39,32,28,0,3,39
46,13,11,25,20,1,3
5,1,1,1,38,0,0
0,0,0,2,6,43,22
6,15,9,9,2,25,42
50,33,22,21,0,2,14
38,2,17,21,30,0,1
2,0,1,1,33,11,4
2,1,1,1,4,48,41
25,31,18,23,1,10,43
50,20,29,18,4,0,2
9,1,6,3,42,0,1
0,0,2,1,19,42,15
1,0,3,2,1,32,42
44,35,27,29,0,2,12
50,14,25,14,13,1,1
4,2,3,2,29,6,4
1,1,2,1,5,49,27
7,19,10,1,1,25,41
45,31,24,28,0,2,3
41,3,11,17,32,1,2
2,0,1,0,27,18,18
0,1,1,1,3,39,45
27,27,22,24,1,6,14
53,26,24,23,3,0,1
12,2,2,3,39,1,2
0,0,0,1,28,40,25
6,2,7,2,2,38,58
44,42,21,29,0,3,5
37,12,20,23,17,0,1
3,1,1,2,29,15,16
0,1,1,1,5,32,45
26,12,34,16,2,13,15
56,37,11,24,1,1,1
10,4,5,5,31,0,2
1,1,1,1,25,42,30
4,2,1,1,3,32,48
48,25,23,19,1,3,3
39,36,20,24,2,2,1
2,3,3,5,38,1,7
0,1,1,1,27,50,30
24,2,5,1,2,25,46
48,38,21,33,1,2,3
12,10,18,23,13,1,1
1,1,1,2,31,29,29
4,2,1,1,4,37,45
42,12,15,6,1,9,7
41,38,20,20,0,1,0
2,4,8,23,27,2,3
1,0,2,3,29,36,27
21,0,3,2,3,34,43
49,26,29,16,0,3,4
10,28,21,22,8,1,0
1,2,2,2,48,7,22
4,1,0,0,21,56,45
45,1,9,1,2,28,15
45,36,17,37,1,2,2
3,15,13,32,14,1,1
1,0,1,2,32,17,25
21,2,1,1,7,39,47
51,10,19,7,0,5,6
13,35,20,30,1,1,2
1,4,5,16,31,1,12
3,1,2,1,26,35,33
44,1,1,1,1,36,16
41,30,27,14,1,3,2
3,28,18,28,3,2,1
0,2,2,1,37,2,28
20,1,1,1,24,46,44
51,0,2,4,1,24,4
13,40,21,23,1,3,1
1,19,20,21,17,1,10
4,1,1,2,30,19,39
42,0,0,0,6,42,22
44,10,25,8,0,6,2
2,38,18,25,1,2,1
0,4,6,24,36,1,31
17,1,1,2,32,42,45
50,2,3,2,3,44,2
11,19,29,20,1,4,1
0,29,22,28,3,2,18
2,2,3,5,41,5,45
44,0,1,1,18,45,20
43,1,8,4,2,22,1
2,36,22,22,0,2,0
1,14,20,27,11,1,28
19,3,1,1,35,15,53
46,0,0,1,4,38,3
13,7,17,13,1,7,1
1,41,22,14,1,2,6
1,6,5,6,33,2,35
43,0,2,2,26,19,46
48,0,1,1,4,38,2
3,7,28,27,0,4,1
2,39,22,23,4,1,33
17,7,2,6,39,4,50
52,2,1,1,22,39,8
14,0,4,1,1,23,1
1,10,23,43,0,2,0
2,36,20,12,13,0,26
44,3,1,1,30,13,56
47,2,1,1,7,38,6
3,0,12,10,1,10,2
1,22,18,23,0,2,8
19,25,7,11,33,5,32
46,2,1,2,27,35,39
14,2,1,8,3,22,2
1,0,27,15,0,3,0
0,31,18,26,1,1,26
47,19,2,2,35,12,46
46,1,1,2,27,36,16
4,1,5,16,3,9,1
0,4,23,20,2,1,7
14,45,20,8,11,0,32
52,8,2,1,31,28,40
15,1,0,0,8,37,2
2,1,13,24,0,3,1
1,6,19,25,0,1,24
42,42,6,4,33,3,46
46,8,1,0,30,38,12
3,1,1,1,3,23,1
1,1,25,31,2,2,7
11,6,21,25,4,2,33
52,42,4,2,39,11,43
13,7,1,0,23,35,3
0,1,7,3,3,9,1
1,0,21,12,2,2,23
45,12,18,18,14,1,38
47,35,2,1,31,26,10
4,3,1,1,10,32,2
0,0,18,22,0,4,8
14,1,19,22,1,1,31
49,21,5,6,36,0,38
16,29,1,1,18,44,3
1,1,1,1,1,26,3
2,1,26,33,0,2,24
47,0,21,26,14,0,47
44,31,4,4,38,13,12
4,18,0,2,7,32,1
1,2,5,3,2,6,7
16,1,17,22,0,2,29
51,4,23,18,27,1,43
17,41,3,1,31,26,4
0,9,1,2,5,25,0
2,2,16,18,0,4,25
45,1,18,28,1,1,45
47,5,6,3,42,3,12
4,44,0,1,23,45,1
1,13,1,1,2,24,6
14,1,32,30,1,2,36
45,1,18,22,11,2,31
19,18,4,2,30,12,2
2,35,1,0,8,40,1
2,2,1,12,2,8,19
45,2,21,20,0,3,41
48,1,20,14,24,1,10
5,34,0,1,29,28,1
0,24,1,1,4,40,8
9,1,15,40,0,4,36
42,1,20,16,1,1,41
38,5,5,3,38,1,4
3,40,1,1,23,48,1
1,8,1,6,2,28,19
30,1,26,27,0,3,44
49,0,18,18,15,1,17
8,5,3,2,38,13,1
0,42,1,1,9,40,5
1,12,2,19,0,7,35
41,2,20,21,1,1,40
50,1,20,7,25,1,2
4,23,2,1,27,25,1
0,37,0,2,2,36,17
13,2,16,16,0,4,58
51,1,17,21,2,1,13
15,1,6,3,43,2,1
1,26,2,0,26,39,3
0,25,1,7,1,29,27
42,2,26,23,0,2,39
48,1,22,24,11,1,2
4,11,2,1,27,12,1
0,34,1,0,7,48,18
9,6,3,18,2,9,43
47,1,24,14,0,2,13
39,1,19,5,29,1,1
2,15,1,1,31,31,4
1,33,0,0,5,33,30
28,3,16,29,0,5,45
49,0,17,25,2,1,3
8,2,9,1,42,1,0
2,31,1,1,22,39,20
0,22,0,3,3,27,40
44,2,24,26,2,3,12
49,1,22,21,11,1,1
4,6,3,2,31,9,6
2,47,2,1,7,44,34
6,10,5,15,1,18,38
43,1,23,26,1,1,3
35,1,19,4,26,1,1
2,18,2,1,33,34,17
0,34,1,5,5,38,48
25,2,16,20,1,6,13
53,1,21,23,2,2,1
9,2,7,2,39,2,3
2,32,1,0,30,39,37
0,22,0,4,2,30,49
43,1,25,23,0,3,3
47,2,18,22,4,1,1
5,1,3,1,40,9,18
1,42,1,2,23,40,43
7,13,3,19,2,23,14
42,1,29,19,0,1,3
39,2,22,6,29,1,2
3,15,3,0,27,28,34
1,33,1,1,3,37,46
28,3,14,29,1,6,3
48,0,15,23,2,0,1
10,1,11,2,37,5,17
1,36,1,1,25,43,42
5,21,6,13,3,25,16
48,1,19,23,0,1,2
39,1,22,15,11,1,2
3,2,1,0,30,8,31
1,44,0,1,7,46,43
25,10,13,26,2,16,3
50,0,19,19,0,1,1
13,0,6,3,25,1,18
1,17,2,2,28,24,48
6,34,0,5,3,30,14
45,4,26,35,1,5,2
41,2,20,16,3,0,0
1,0,4,1,43,0,29
2,34,0,1,25,39,49
21,19,0,13,2,32,4
52,2,18,23,0,2,1
11,1,20,4,7,0,14
1,2,1,1,35,7,53
5,40,1,0,22,44,21
44,12,10,32,1,18,1
39,1,15,17,0,2,1
2,1,10,3,28,1,26
0,14,1,1,31,25,48
22,38,2,6,4,32,5
48,3,20,22,1,5,0
11,1,20,24,1,0,14
0,0,2,2,38,1,38
2,32,1,1,26,39,17
42,29,9,17,2,32,2
44,3,12,26,1,4,4
3,1,15,4,10,2,29
2,1,0,0,28,3,50
22,41,1,1,7,40,4
47,11,23,27,1,24,1
12,1,12,15,0,2,11
1,0,4,3,20,0,42
3,10,0,2,30,23,21
42,35,1,3,5,37,2
41,4,14,35,1,5,1
3,2,23,14,1,2,37
0,1,2,1,34,0,58
24,27,0,1,27,37,5
48,28,9,15,3,30,1
11,2,11,26,0,4,11
0,1,10,6,8,0,39
3,1,1,1,36,7,17
44,40,1,2,16,47,1
42,17,22,30,1,26,1
3,3,14,27,0,2,29
1,1,2,2,28,0,40
17,11,2,1,33,19,3
48,37,3,1,5,37,1
13,4,20,34,2,4,16
0,1,14,17,2,1,38
0,2,2,2,47,2,20
42,25,0,1,26,46,1
43,31,9,15,3,33,1
3,2,12,25,0,3,31
0,1,20,3,8,1,47
20,2,2,1,48,6,4
50,39,1,1,17,49,2
13,14,20,34,1,14,8
1,1,15,32,1,2,36
2,1,5,2,21,1,42
44,12,1,2,30,14,3
45,37,2,7,4,34,1
3,3,14,29,0,5,27
0,1,13,17,0,0,46
17,1,2,1,37,1,11
49,28,0,1,20,36,1
13,32,9,15,4,29,9
1,2,11,28,0,3,33
2,1,14,6,10,1,43
43,1,1,1,36,5,2
46,37,0,0,10,42,0
2,17,22,32,1,26,24
1,2,11,25,2,2,45
16,0,6,3,38,1,10
49,12,0,1,19,17,1
13,33,2,5,3,30,8
0,3,15,23,1,3,31
2,1,12,21,10,1,49
43,2,3,2,30,1,3
47,25,0,1,5,36,0
3,31,8,12,1,25,28
2,2,11,23,0,4,43
17,2,13,6,21,1,10
49,0,3,1,21,4,1
16,37,0,0,2,42,13
0,15,16,25,0,20,37
0,0,12,25,0,2,25
40,1,5,3,36,1,3
46,5,2,0,23,18,1
4,38,0,7,1,27,27
0,9,14,23,2,5,50
16,2,15,27,10,0,6
51,1,3,2,37,0,1
15,7,1,1,8,31,4
0,42,6,10,1,23,31
0,10,6,31,2,4,43
44,1,13,6,22,1,3
46,0,1,1,32,2,0
2,19,2,1,5,40,29
1,31,8,32,1,21,49
10,2,9,18,1,3,12
50,2,17,1,43,1,0
13,1,2,1,25,18,9
0,38,1,2,2,31,27
2,17,6,34,1,6,45
42,1,4,19,8,2,4
48,1,19,2,41,1,1
2,10,3,1,17,38,21
1,37,0,14,2,29,51
16,3,8,28,0,4,14
48,1,9,9,21,2,1
15,1,16,1,35,8,6
2,18,3,0,4,41,32
2,32,0,24,1,18,39
43,3,8,20,2,1,3
46,1,11,8,33,1,0
4,0,11,1,29,15,22
0,38,2,1,2,33,45
13,21,0,24,1,8,12
52,2,15,18,8,0,2
16,2,10,2,37,2,8
1,5,7,0,25,32,34
0,41,2,19,3,39,39
42,12,2,28,0,3,2
49,0,17,4,24,0,1
4,1,14,1,32,3,20
1,25,2,1,3,45,55
11,30,0,24,2,27,14
51,3,6,18,1,2,0
19,1,5,3,39,1,6
1,1,20,0,18,18,34
0,33,5,2,2,31,47
46,21,0,32,1,6,4
48,1,5,21,5,1,0
4,1,11,1,40,1,23
1,11,17,1,22,32,46
10,37,0,19,1,27,12
51,4,1,23,0,2,1
18,1,15,8,17,1,10
2,2,8,1,30,7,38
1,24,10,0,5,46,27
42,38,0,25,2,24,2
50,4,1,23,1,1,2
4,1,21,6,29,1,33
0,0,15,1,25,16,53
12,28,5,2,2,37,6
54,20,0,27,0,7,0
18,2,6,18,8,1,12
2,0,13,1,47,0,46
1,6,18,1,20,26,24
43,43,1,14,2,28,3
50,9,1,20,2,4,0
4,1,15,6,18,1,34
1,1,10,1,34,4,55
10,4,5,0,7,43,5
50,44,0,22,2,22,2
17,9,1,31,1,1,4
2,1,26,6,33,1,34
1,1,15,1,23,14,47
47,7,2,7,3,37,4
49,40,0,37,0,6,0
5,10,12,15,7,2,23
0,1,6,2,44,1,45
10,0,15,2,17,26,17
51,20,1,14,2,31,1
18,36,1,25,1,2,1
1,4,13,7,20,1,22
1,2,12,2,26,4,49
40,2,5,2,5,48,3
52,33,2,24,1,29,0
6,17,1,23,0,1,14
0,1,17,2,33,2,36
9,1,11,0,26,14,23
47,3,3,4,2,27,2
38,41,1,31,0,7,3
2,10,6,12,7,3,38
1,1,8,2,31,1,45
26,0,15,0,26,29,4
53,21,5,16,2,36,0
9,32,0,41,0,3,13
2,2,7,5,18,2,30
0,2,11,1,34,2,27
44,1,17,0,6,50,1
48,36,1,22,0,22,3
4,22,1,16,1,2,23
2,2,15,3,35,1,46
8,1,11,2,24,17,5
46,5,8,2,3,35,1
38,44,2,28,0,6,10
2,12,0,22,4,1,40
0,1,19,2,40,0,23
28,1,19,0,21,19,1
50,20,3,16,3,37,0
8,42,1,23,0,3,24
1,4,5,6,18,1,54
1,1,9,1,25,2,5
47,1,16,0,5,38,1
47,32,4,26,1,28,12
5,21,2,17,1,2,36
0,2,2,3,36,0,25
3,2,9,1,25,10,2
44,5,13,2,3,33,1
42,44,2,29,1,7,22
2,10,1,19,5,2,47
1,2,8,2,37,1,4
23,1,8,1,19,34,1
52,16,15,14,1,32,17
9,37,2,21,0,3,35
2,2,0,7,19,1,20
1,0,7,1,35,1,1
42,1,13,1,5,42,1
45,33,16,22,0,22,25
4,20,0,20,1,2,57
1,2,0,3,29,1,5
4,1,16,1,25,15,1
42,2,9,3,2,35,12
43,42,15,34,0,9,29
3,24,1,19,6,2,24
1,2,2,2,39,0,2
24,1,23,1,18,26,1
53,18,12,15,3,38,28
8,31,3,25,1,4,51
1,4,0,7,17,1,6
1,1,7,1,35,2,2
41,1,10,1,6,53,10
48,33,17,25,2,30,36
6,23,1,25,1,1,22
2,1,1,5,28,1,2
4,1,15,1,26,17,1
44,2,7,6,3,39,28
46,44,16,32,0,8,46
3,13,2,16,4,1,5
0,2,0,2,41,1,0
23,1,20,1,21,25,11
52,17,14,13,2,41,25
11,35,3,25,0,5,29
0,3,1,7,22,1,1
3,1,2,1,26,1,0
44,1,10,2,7,41,28
42,28,16,24,1,29,46
4,26,1,28,1,2,5
0,2,1,3,32,2,0
22,2,14,2,23,7,10
52,3,10,3,4,45,36
10,45,7,26,1,13,38
0,18,0,23,4,1,2
3,2,1,3,39,0,1
44,1,17,1,22,21,32
41,19,13,11,2,39,50
3,37,5,40,0,4,6
2,4,1,5,17,2,2
21,1,5,2,32,1,10
49,1,10,1,7,46,27
10,31,15,24,0,29,37
1,21,3,19,1,4,2
2,2,1,2,34,0,1
48,0,15,1,30,6,24
39,3,10,3,4,41,48
3,42,7,43,2,31,6
1,16,1,13,3,0,0
19,2,0,1,34,1,7
45,0,20,0,32,27,19
16,19,13,11,2,34,47
0,38,4,281,1,4,3
1,3,0,28,15,1,2
31,0,3,2,33,1,19
50,1,13,0,6,46,32
5,34,15,1,1,29,18
0,27,2,281,1,4,2
21,2,2,30,29,1,5
44,1,5,2,29,9,22
11,1,6,0,4,42,44
1,37,14,75,1,16,4
2,15,2,97,3,1,1
39,2,1,5,40,1,20
29,0,12,2,22,34,41
0,13,8,60,2,38,17
1,37,14,25,0,6,1
14,3,3,1,16,2,4
36,1,0,1,28,1,22
72,0,20,32,7,46,40
4,34,16,9,0,32,1
21,32,5,2,1,1,2
3,2,0,46,36,1,25
0,2,4,50,25,11,36
0,2,12,13,2,46,13
2,40,16,61,1,10,1
368,15,2,3,2,0,5
107,2,1,12,36,0,19
5,2,10,14,20,45,44
0,24,9,28,1,35,2
0,36,15,167,0,4,0
558,2,1,11,13,0,25
53,2,3,2,34,7,36
3,1,17,0,5,51,16
18,28,11,26,1,27,2
71,28,5,14,1,1,3
95,2,1,140,34,0,19
74,0,3,43,29,25,46
3,0,15,5,3,39,5
60,48,19,1,2,6,1
52,15,3,67,6,1,15
3,0,0,7,40,2,43
2,1,11,2,20,45,21
0,15,7,23,3,21,0
27,33,17,3,1,1,2
102,4,2,99,15,1,16
37,1,1,92,28,9,47
3,0,19,35,5,41,5
1,27,11,3,0,32,0
102,32,4,20,1,2,16
25,1,1,29,31,0,34
0,2,4,1,24,26,24
41,1,13,6,2,43,2
78,33,18,64,1,11,2
10,14,2,44,4,1,10
1,1,2,28,42,7,49
1,0,15,25,23,43,6
87,15,8,15,3,22,1
60,37,16,22,1,2,19
5,3,1,1,18,0,32
0,2,2,73,30,28,25
30,1,17,4,6,39,2
42,31,12,219,0,6,1
6,29,4,81,0,0,14
0,2,1,28,28,1,54
60,1,3,1,24,38,6
46,1,11,42,4,28,1
69,13,17,11,0,3,15
3,38,2,32,4,1,25
13,6,2,78,40,7,31
4,2,13,8,24,50,2
17,12,6,97,1,33,1
132,29,18,32,0,2,10
4,3,4,3,13,1,55
41,1,1,9,34,26,8
51,1,24,119,6,37,1
16,33,11,7,0,7,10
1,30,5,24,0,1,27
5,2,1,3,28,0,34
57,2,2,1,23,35,1
52,58,13,88,2,44,0
2,63,14,10,0,4,10
1,16,2,29,5,0,49
75,1,0,9,40,11,5
54,1,10,16,24,37,1
3,71,5,78,2,8,10
0,79,17,4,1,1,30
85,31,3,1,10,0,31
26,3,2,20,32,32,1
21,2,21,29,7,49,0
3,28,11,8,1,5,11
0,5,5,7,0,1,51
24,1,0,59,18,0,6
49,1,3,38,32,33,1
13,7,11,6,10,24,10
5,45,18,18,0,2,29
2,33,1,13,7,1,28
30,2,1,151,38,12,2
47,0,11,6,11,42,1
3,15,5,141,0,9,13
2,68,17,4,1,1,49
81,31,1,106,29,0,5
26,3,0,4,16,17,2
10,0,16,30,2,33,10
1,39,8,10,0,7,29
18,51,11,2,2,2,24
60,5,1,19,30,0,1
17,16,2,60,58,35,2
2,36,12,11,5,35,19
2,13,15,17,1,4,45
3,10,2,50,13,1,4
113,1,1,5,27,1,0
4,0,7,18,6,37,15
0,0,8,142,1,17,35
3,1,17,85,0,2,20
32,24,3,18,37,1,2
89,127,1,21,29,15,1
5,36,13,35,4,27,28
1,7,8,5,0,7,45
25,0,14,115,3,2,5
12,0,1,4,42,1,1
16,0,0,48,22,27,10
0,215,15,5,2,30,32
12,84,9,15,1,2,26
16,5,9,41,17,0,2
31,3,1,28,46,1,2
3,63,2,20,13,32,19
2,132,20,4,0,40,44
28,4,9,80,3,3,5
51,67,10,5,37,0,0
4,3,1,18,6,13,4
0,197,3,30,3,33,31
4,144,15,18,1,8,39
41,95,14,54,0,0,2
47,71,3,150,29,1,2
3,2,0,57,32,31,24
1,135,11,103,2,32,40
24,107,5,3,0,4,8
77,11,16,86,13,1,2
12,19,3,15,25,2,2
2,29,1,17,2,45,31
2,25,19,27,1,23,45
47,1,11,57,2,1,5
35,112,5,13,56,1,1
1,91,1,6,40,5,8
0,38,2,67,3,19,28
6,8,14,45,1,25,39
51,0,14,14,0,1,3
10,352,3,10,25,2,1
8,111,1,5,2,53,21
1,39,11,19,4,55,48
46,116,9,23,9,4,9
57,19,11,30,2,5,1
9,12,1,4,0,1,1
2,10,1,81,27,43,21
3,35,21,70,4,65,43
53,9,11,45,36,16,5
44,9,6,53,4,3,2
2,17,2,28,0,75,9
1,2,1,17,25,44,26
10,173,7,75,15,2,33
56,7,14,22,0,0,2
7,393,4,16,103,34,1
5,64,1,76,135,99,31
1,6,3,3,4,13,43
7,1,30,123,12,29,11
111,33,20,27,59,2,2
11,42,3,1,5,71,7
2,2,1,111,0,26,28
9,35,8,25,22,26,35
52,14,7,11,43,3,1
56,34,14,15,103,20,0
2,4,2,50,2,69,20
2,1,0,40,72,11,38
37,0,4,22,30,1,10
51,172,17,14,8,3,2
6,13,10,218,83,143,10
0,84,1,9,9,12,29
0,17,3,94,1,11,22
18,13,21,8,138,84,1
81,37,15,143,21,18,1
4,82,4,18,4,69,26
0,12,1,9,0,4,49
2,55,1,84,7,1,5
18,4,8,12,53,97,1
74,14,27,3,11,46,8
4,38,12,32,2,3,23
2,105,0,2,4,16,29
29,49,11,73,8,19,2
71,12,18,19,15,110,0
10,0,2,5,24,18,23
2,144,1,15,0,2,38
17,17,28,4,1,10,10
28,1,15,57,79,170,0
8,67,7,43,44,15,6
1,13,5,9,9,2,24
1,27,4,87,1,10,34
38,9,14,32,40,156,2
9,1,14,20,31,106,1
24,65,0,34,3,55,25
1,6,2,47,8,68,41
1,221,5,75,27,5,8
46,15,27,15,3,7,2
48,1,30,1,45,62,0
4,256,23,6,17,4,17
1,49,3,82,2,123,44
1,18,27,14,5,71,5
64,38,8,37,50,3,1
30,5,2,3,24,4,6
1,2,22,4,3,24,20
0,13,1,82,5,50,38
47,6,100,79,38,4,3
91,2,16,6,98,46,1
8,33,8,36,24,6,17
1,118,11,41,26,243,37
2,2,11,3,53,12,14
52,13,36,5,11,1,0
26,5,15,81,100,57,4
2,67,5,32,2,177,29
1,39,10,60,30,4,43
13,155,68,7,25,1,3
41,26,22,2,64,36,0
7,261,1,31,5,10,17
10,120,17,27,5,8,44
0,12,57,45,24,34,12
70,10,48,2,40,21,1
37,13,27,23,2,9,6
3,68,2,48,1,40,28
1,6,46,5,55,18,45
8,27,17,64,16,1,3
43,8,43,3,4,23,1
31,24,4,18,0,57,15
4,4,2,16,1,103,38
0,24,9,71,42,18,15
36,12,3,44,33,57,2
35,4,46,2,15,14,3
5,0,3,25,1,12,30
1,163,4,27,62,2,40
0,321,92,12,68,51,3
4,6,13,1,8,26,2
81,177,2,2,2,1,13
14,122,10,141,3,32,41
2,28,11,17,27,41,17
4,2,15,7,41,90,1
42,0,46,27,42,18,4
34,15,8,23,13,3,26
2,38,51,5,26,13,41
1,3,35,2,73,33,3
35,0,6,6,5,21,2
21,19,0,56,0,1,16
31,22,0,83,3,2,43
1,2,97,42,43,105,16
0,19,82,4,16,83,1
53,1,28,104,2,11,3
28,196,28,5,0,10,19
3,104,63,5,11,35,41
0,7,6,2,28,67,3
31,17,18,44,18,5,0
8,127,39,38,1,2,18
47,82,7,3,5,1,37
4,3,11,92,19,148,14
2,93,6,22,131,5,1
24,95,9,43,4,3,3
51,5,17,26,1,1,25
8,17,53,12,106,44,47
0,7,22,3,8,96,4
8,1,21,84,7,19,0
51,60,8,16,1,1,18
54,14,47,3,3,55,35
3,19,9,1,49,50,16
2,2,79,29,24,9,1
8,3,33,40,1,1,3
57,2,14,15,0,40,24
33,1,13,1,32,111,44
2,47,113,17,33,8,5
0,54,10,16,4,21,2
22,124,35,6,2,14,12
75,3,23,90,4,59,39
4,1,6,9,56,192,15
1,259,8,72,10,5,1
25,17,26,40,19,3,1
36,43,73,15,12,6,24
19,1,16,12,91,2,46
2,44,15,50,21,98,5
1,40,53,11,3,24,1
42,24,29,43,1,2,12
15,5,29,7,25,104,34
1,1,51,7,75,43,14
0,1,6,13,6,28,2
7,55,62,3,3,7,1
58,24,8,16,2,2,24
20,1,67,126,18,13,44
1,44,6,6,20,21,3
1,3,35,14,20,16,1
7,236,7,37,1,2,11
54,51,36,4,0,48,37
34,23,3,1,47,6,15
2,28,36,68,36,16,1
0,218,8,69,3,120,0
41,9,48,4,8,4,16
48,2,63,1,7,117,48
11,50,4,20,53,2,4
1,39,0,43,15,4,1
31,2,21,94,20,159,10
24,1,36,5,31,26,35
23,7,9,13,47,9,18
2,19,2,39,9,15,1
3,15,66,46,1,15,2
64,6,13,7,0,114,16
64,17,4,36,11,26,37
2,4,14,18,34,3,6
1,79,32,49,21,51,1
14,19,31,57,1,77,11
62,9,2,38,36,19,34
13,37,21,6,34,9,18
1,2,21,8,6,18,0
3,159,1,17,23,34,1
35,43,21,3,3,12,21
31,3,16,1,53,7,47
1,2,5,30,14,1,5
2,152,20,38,0,78,1
16,7,31,4,0,79,10
69,1,18,13,13,5,38
14,1,4,53,105,0,19
1,89,20,19,5,14,1
2,30,9,13,0,10,1
48,2,23,17,71,108,19
24,3,69,14,36,3,41
2,5,4,85,34,32,4
0,63,34,63,2,25,1
11,16,4,5,1,25,8
23,0,14,17,35,2,26
31,188,5,19,35,1,40
3,74,63,24,12,24,2
0,55,5,7,2,20,1
38,4,40,10,3,1,19
51,67,16,12,28,16,44
3,157,2,71,7,32,9
1,31,30,3,0,41,1
24,2,20,3,1,55,1
27,12,32,24,1,62,21
9,90,6,42,32,5,41
1,25,18,9,69,49,4
1,2,20,1,7,36,1
29,0,9,19,2,2,17
35,0,2,7,20,12,38
7,94,41,32,5,15,18
1,11,13,16,77,26,1
1,5,39,5,5,3,2
47,1,15,21,1,39,13
35,6,1,47,15,92,45
1,1,28,5,12,5,8
1,88,18,9,16,1,0
4,21,3,8,0,71,5
50,6,2,18,150,44,16
32,188,23,23,14,4,47
2,7,12,16,3,20,2
1,224,20,2,1,27,2
26,16,3,62,5,10,15
60,42,5,4,55,59,33
4,4,7,35,12,9,19
0,2,3,3,1,1,1
15,25,61,3,1,7,1
46,24,21,20,19,49,10
23,61,27,4,29,35,46
2,3,4,75,2,20,4
2,1,40,14,21,1,1
25,4,10,18,4,60,19
52,60,6,45,66,42,40
11,8,26,64,17,25,19
1,4,55,4,21,6,2
7,1,10,1,29,1,2
61,1,13,76,41,3,7
46,105,10,35,8,112,43
3,18,18,2,9,11,8
2,87,17,17,0,2,1
52,61,14,38,49,42,5
68,58,5,12,27,72,16
9,27,48,1,13,5,41
0,1,31,19,0,57,4
5,15,2,22,2,7,2
11,17,39,19,39,22,20
45,60,18,2,11,16,26
3,4,65,35,13,6,20
0,5,3,45,2,39,1
6,2,3,34,42,45,2
40,70,63,18,43,20,10
45,5,17,1,4,8,46
3,76,3,14,2,1,5
1,9,4,56,6,2,0
39,7,5,35,85,7,14
40,95,39,2,28,114,25
5,6,60,1,8,14,15
0,48,5,23,1,3,1
3,56,21,29,1,126,5
28,20,34,17,20,8,11
80,92,4,2,29,46,44
8,7,31,41,22,8,3
0,1,2,46,1,37,1
20,1,7,48,5,8,10
57,232,23,9,96,73,28
17,16,35,77,12,29,24
1,1,7,9,1,7,1
3,12,2,25,0,8,1
36,20,14,3,76,1,13
53,29,40,92,45,1,49
4,2,42,18,7,6,6
1,1,3,29,5,2,0
12,3,7,2,55,42,15
47,39,7,3,16,68,28
11,14,18,38,5,40,20
1,1,3,25,1,3,1
1,3,6,18,2,26,2
36,188,2,1,19,73,8
37,23,11,12,16,13,40
2,2,12,34,14,0,11
0,144,33,15,2,107,0
11,81,5,13,8,41,14
50,18,24,1,19,5,24
12,68,65,2,24,1,24
1,8,7,147,2,1,1
1,17,16,15,0,50,2
23,21,3,16,86,54,19
72,1,43,7,50,8,50
16,3,74,5,3,1,5
0,37,6,45,1,68,1
45,26,16,7,1,60,15
64,2,37,2,45,26,30
10,20,52,51,41,1,21
1,44,7,17,3,0,2
4,58,2,49,18,17,1
50,28,9,10,14,116,7
45,109,8,2,44,14,40
3,25,43,19,11,26,10
2,2,1,42,1,74,1
19,8,2,2,17,7,10
31,226,26,14,49,15,27
21,6,2,23,8,3,24
0,2,11,65,2,16,0
16,174,8,2,1,77,0
32,13,22,29,38,5,6
13,2,29,4,60,2,29
1,11,17,102,3,1,26
1,21,31,5,1,58,2
46,6,2,2,44,37,8
46,2,27,6,25,4,12
2,1,25,17,47,1,43
1,55,12,58,3,15,2
27,4,1,5,34,3,1
36,7,26,1,36,7,11
14,1,22,1,27,1,42
1,129,30,28,2,51,11
1,133,3,60,2,44,2
27,5,22,4,22,39,9
42,1,3,3,54,36,18
5,132,15,44,10,2,47
2,45,12,63,1,55,2
8,42,1,5,9,65,1
44,5,22,1,13,5,30
38,2,15,17,67,1,33
2,0,18,38,5,1,13
1,52,4,29,1,3,1
31,4,10,7,1,80,19
47,1,29,2,37,21,20
11,6,4,54,28,2,27
1,34,11,26,8,2,1
2,11,67,2,0,112,1
38,30,7,0,66,49,7
43,1,50,26,97,2,46
3,71,4,25,10,2,15
1,126,4,10,2,47,2
25,3,4,3,8,76,8
44,23,11,27,66,12,13
6,18,13,22,11,9,49
1,179,2,8,3,1,3
1,5,0,1,2,105,1
68,39,25,10,15,71,18
53,94,10,125,51,4,37
6,7,9,15,7,27,16
1,4,3,14,0,59,1
4,2,0,11,12,24,7
62,0,7,2,52,5,5
50,44,15,52,15,8,52
3,11,27,24,1,26,8
0,5,2,3,2,34,1
35,2,2,49,16,12,8
74,1,23,21,16,2,11
16,32,42,19,72,85,50
0,6,13,27,4,126,3
4,2,3,2,11,14,1
38,183,10,62,37,17,12
31,9,29,19,2,0,42
2,17,5,2,0,74,17
1,5,9,2,0,22,1
37,161,35,42,18,2,4
69,184,9,77,35,1,13
15,12,36,18,9,80,49
1,5,4,34,1,152,3
1,6,8,4,16,5,2
56,3,8,3,38,67,20
36,34,16,105,26,44,37
5,27,35,6,1,15,20
1,2,2,7,2,4,1
23,2,11,22,22,1,3
58,21,9,7,43,65,8
21,18,18,13,37,117,51
1,6,21,5,2,41,8
8,0,1,20,32,7,0
36,7,3,25,55,3,4
64,489,16,85,15,12,7
7,28,37,7,2,43,49
2,45,4,25,11,11,9
18,283,8,34,51,1,1
26,63,23,2,21,55,10
15,68,34,16,2,35,16
1,13,19,2,0,32,42
11,2,7,12,45,3,4
39,5,2,84,12,1,1
16,26,23,8,1,42,10
1,6,29,36,1,13,52
0,1,5,18,1,53,12
31,1,7,72,8,9,0
46,24,6,14,50,57,11
6,50,25,2,22,22,49
2,5,6,2,3,65,21
4,1,2,47,19,7,2
46,0,3,20,44,59,4
36,2,4,3,12,9,12
3,89,6,4,1,5,56
0,104,40,42,0,6,5
28,33,2,26,95,14,2
51,3,6,11,24,32,13
9,125,35,1,2,39,44
1,28,7,0,0,12,23
1,98,2,38,33,1,2
46,13,32,78,29,54,7
56,6,3,5,4,96,10
7,0,36,1,0,7,57
1,0,7,65,0,1,5
7,13,1,40,51,3,0
30,26,3,6,18,71,19
37,6,25,1,2,86,31
5,1,5,16,3,7,19
0,10,37,8,0,15,1
25,6,5,59,44,66,6
47,0,17,3,9,31,9
8,0,9,1,47,2,49
0,407,32,9,2,104,11
8,26,6,23,4,93,1
31,2,3,48,35,20,15
51,10,2,9,58,1,23
9,143,19,2,6,5,31
1,3,20,32,2,3,1
1,127,7,18,28,57,5
31,7,2,12,15,47,11
60,2,18,2,8,10,49
4,0,6,0,2,6,5
0,31,14,86,10,2,1
45,13,1,67,42,0,17
30,2,1,15,13,84,36
16,1,27,3,1,5,22
2,35,19,29,0,72,2
20,25,23,15,48,73,2
57,13,2,42,25,5,6
37,0,5,8,2,3,48
3,13,21,14,5,42,12
2,22,17,26,50,2,0
35,64,4,25,100,97,14
42,92,2,6,24,20,33
5,5,20,18,2,12,25
0,395,18,41,2,15,2
3,17,13,72,40,14,2
63,2,4,30,47,51,9
38,4,33,24,8,23,46
3,0,7,93,0,4,11
0,14,8,15,15,12,2
28,10,7,4,28,48,20
65,1,1,1,12,101,30
19,0,2,0,0,4,27
2,19,7,60,1,117,4
0,11,21,13,36,23,4
61,14,9,1,6,1,8
35,17,2,59,2,4,46
7,2,6,17,1,17,11
0,24,10,17,0,38,0
2,2,29,2,48,3,19
36,0,9,3,70,2,36
54,83,3,83,5,1,25
2,31,17,40,2,54,2
1,169,4,15,40,34,3
19,3,54,1,87,35,6
40,2,3,18,13,3,46
7,14,14,29,1,74,13
1,62,4,15,6,4,2
48,52,25,27,66,106,12
54,28,13,26,29,11,28
18,57,2,21,2,16,27
1,7,5,16,1,3,2
3,2,4,45,17,73,3
34,2,27,24,37,11,9
57,14,2,27,9,69,47
11,2,9,7,1,22,12
1,27,17,1,5,2,1
1,8,28,53,37,0,25
19,2,6,17,12,54,27
72,1,3,11,5,23,30
12,1,14,1,2,3,3
2,94,20,1,6,45,1
23,8,7,31,42,4,4
51,69,17,19,63,36,43
3,21,4,9,4,5,15
2,31,54,7,1,61,1
24,1,49,42,4,12,9
52,238,13,44,89,59,11
11,50,1,20,18,41,52
0,6,14,29,0,6,3
0,4,7,3,2,22,1
52,2,23,71,23,2,15
41,0,2,31,30,36,46
4,8,1,60,3,6,13
1,66,25,8,1,5,1
9,33,19,5,0,16,16
44,28,4,20,58,2,27
37,2,1,39,6,16,32
2,12,1,7,2,37,2
2,15,20,48,32,22,1
37,2,34,26,19,15,5
70,2,16,12,17,5,44
9,0,0,6,53,29,14
1,109,17,2,4,96,2
1,95,29,138,12,9,9
32,29,29,20,21,32,12
57,3,2,92,26,6,51
6,0,1,10,2,8,3
0,132,9,45,0,5,0
11,37,12,57,20,6,13
33,17,26,11,30,70,48
20,19,1,2,5,55,21
1,7,21,57,1,42,1
0,1,8,21,0,2,7
44,2,21,9,49,0,11
47,7,3,29,6,7,53
3,52,18,25,19,12,4
2,38,3,5,2,41,0
15,2,51,106,10,4,11
71,2,8,13,26,0,36
27,27,1,2,11,31,12
2,25,11,6,1,15,2
1,5,9,33,1,41,7
19,1,39,6,79,2,9
72,0,10,4,48,34,60
6,155,34,5,3,29,8
0,73,11,21,0,6,1
11,39,13,6,35,43,6
50,2,3,35,47,5,12
16,22,5,1,5,65,49
2,15,21,4,2,3,4
4,14,1,13,1,17,1
21,1,14,29,19,16,12
46,23,0,16,16,2,36
4,43,1,9,16,29,17
2,4,14,8,1,2,1
4,8,26,87,9,1,4
25,1,10,14,45,45,11
51,1,3,18,9,49,55
5,5,3,74,2,5,4
1,2,7,43,1,12,1
28,7,21,14,55,41,13
48,58,1,2,9,6,38
9,36,1,2,19,34,17
2,314,34,36,2,9,1
1,47,22,16,1,2,8
32,84,6,1,11,27,14
58,58,2,24,29,60,59
5,4,5,32,4,24,4
1,80,7,61,1,4,1
1,5,6,3,8,5,26
39,0,29,2,30,14,34
46,59,1,5,10,53,16
4,14,2,42,3,15,1
0,2,11,26,0,0,4
30,0,22,9,2,25,7
56,20,22,2,39,77,56
6,36,3,44,23,12,10
1,2,37,83,13,8,1
2,0,7,38,1,19,16
36,19,35,2,6,76,30
34,0,1,1,51,32,19
3,316,9,71,13,2,2
1,179,31,16,1,0,7
5,6,17,1,28,50,11
24,10,8,156,34,73,50
11,23,1,18,26,5,4
2,96,3,1,1,1,0
1,4,11,0,2,5,17
15,10,17,0,48,75,34
42,9,1,73,8,29,15
11,1,2,16,10,4,2
1,5,11,7,1,47,14
2,1,9,37,39,74,14
41,23,14,16,9,21,46
38,5,1,2,17,6,2
1,0,8,1,5,25,1
0,2,31,10,4,44,7
11,1,10,1,22,7,32
50,27,7,21,46,96,22
9,9,1,16,13,31,1
1,2,12,18,3,2,3
15,1,15,2,31,25,5
63,2,56,11,15,62,46
36,50,3,12,33,13,9
2,10,1,8,3,2,1
1,0,24,7,1,7,6
34,1,15,2,14,35,8
40,1,13,13,50,10,46
11,54,2,14,6,8,10
0,9,11,18,1,2,1
2,1,30,1,13,81,19
48,1,5,1,35,47,28
37,14,2,32,10,3,21
3,32,1,41,2,30,1
1,5,13,3,0,89,2
12,2,11,2,20,6,8
50,3,13,32,8,31,48
15,14,2,14,23,2,10
2,28,16,7,4,45,2
1,2,10,6,0,33,10
47,1,6,0,55,13,30
39,1,4,3,7,1,23
2,48,2,64,1,10,1
0,28,26,74,1,23,1
15,4,14,19,16,79,3
46,0,4,2,21,5,44
16,1,1,40,10,1,11
0,2,32,62,1,45,1
4,62,4,4,1,11,14
44,37,10,46,48,14,31
47,4,11,6,23,25,22
3,15,3,53,3,36,1
0,24,10,11,0,77,1
17,2,13,0,2,29,5
36,7,3,3,59,12,58
12,13,1,32,20,14,11
2,29,1,10,0,40,2
2,2,17,2,0,32,11
43,0,25,1,57,7,28
45,18,7,21,12,15,22
4,5,1,10,5,54,2
1,1,11,12,26,7,3
19,1,12,2,16,10,5
49,0,6,3,55,1,45
14,0,24,14,8,25,12
0,7,2,26,1,80,1
5,31,2,1,0,15,9
45,3,33,0,13,1,11
47,1,4,37,34,2,49
3,0,5,30,9,30,8
1,9,21,8,2,21,1
18,40,2,1,2,1,7
41,8,43,11,41,1,17
17,1,5,15,27,56,20
2,0,6,78,4,37,2
3,5,4,5,1,3,7
34,39,5,1,23,1,7
46,8,26,30,16,2,58
4,1,11,26,53,34,18
1,0,0,12,4,29,2
18,3,13,2,19,2,13
51,39,30,11,36,1,19
15,9,12,42,36,11,25
0,2,2,5,3,46,2
6,0,17,1,1,60,9
41,4,43,1,19,4,2
40,31,17,32,12,2,36
4,7,0,18,11,14,16
0,2,1,3,0,15,1
19,2,17,1,30,1,3
55,3,20,20,20,0,6
14,42,3,8,25,0,61
1,10,1,8,3,75,6
1,0,5,1,1,64,1
34,1,13,1,37,3,4
47,21,17,1,25,1,11
4,26,1,31,4,3,53
2,2,6,43,1,30,2
18,1,16,4,19,19,6
50,0,22,1,58,1,1
18,33,9,14,42,0,36
1,22,0,39,2,15,29
1,1,2,10,1,51,6
39,1,28,1,37,11,6
49,3,26,1,9,1,3
4,35,1,49,1,21,63
1,45,3,39,1,24,9
10,4,7,3,2,24,25
46,1,2,1,45,1,22
18,32,33,6,45,34,39
0,17,3,30,13,4,56
2,2,1,32,0,29,5
43,0,27,1,12,3,1
44,1,6,1,25,0,36
3,33,18,27,10,23,20
1,22,1,25,1,34,3
11,6,1,4,4,3,5
51,2,20,1,46,0,3
17,17,22,18,75,4,29
2,42,4,18,68,31,88
1,5,0,23,3,29,5
42,5,1,3,14,3,0
57,2,9,1,28,0,7
3,13,28,27,15,7,15
1,32,3,31,34,37,26
12,4,2,8,2,19,3
44,1,8,1,27,1,0
22,0,13,1,3,1,38
1,27,23,30,0,19,70
0,24,4,17,7,32,8
44,2,1,2,47,5,2
46,1,64,1,54,2,1
3,2,7,6,5,0,12
1,42,3,33,0,33,37
11,14,2,30,8,26,2
50,1,1,3,74,5,2
21,1,18,2,20,2,2
0,18,5,22,2,0,8
1,34,21,26,1,9,39
45,3,1,6,33,21,18
49,0,7,2,46,2,2
4,8,24,1,6,1,3
1,50,10,23,1,8,37
10,5,6,40,0,40,28
52,2,1,2,36,18,2
18,1,4,0,44,1,1
2,1,11,11,4,1,19
0,23,23,19,1,19,31
41,29,5,10,7,29,1
46,3,0,2,42,5,1
4,1,22,2,25,1,75
1,1,2,23,2,1,18
11,32,14,27,0,34,30
52,15,2,3,14,28,8
19,1,1,1,27,3,22
1,1,18,13,4,0,24
1,17,16,17,2,8,63
41,32,4,9,0,39,3
45,4,1,5,24,26,1
4,0,3,1,25,3,4
1,0,14,18,3,1,49
9,31,24,29,0,22,37
44,21,2,6,1,37,1
39,2,1,1,37,5,2
3,1,9,0,21,1,5
1,2,9,44,1,1,38
27,38,20,25,1,36,2
45,9,0,2,25,25,3
9,1,1,1,37,2,2
2,1,29,10,18,1,1
0,1,9,24,1,3,44
40,39,2,7,1,34,6
49,10,1,1,51,21,1
6,1,4,1,20,1,5
2,1,22,28,2,1,7
6,10,13,16,0,14,85
40,34,5,5,42,34,22
41,4,1,2,67,4,2
3,1,1,0,3,1,32
0,0,11,33,1,0,13
23,31,27,18,2,32,31
46,22,11,1,77,21,2
10,1,0,0,37,1,12
0,0,6,16,7,1,66
7,2,17,26,0,3,13
45,39,15,7,0,33,11
36,12,2,2,10,20,2
3,1,1,0,30,1,1
2,2,53,22,1,1,38
24,10,31,30,1,12,4
46,28,2,4,38,23,7
12,1,2,1,20,7,0
1,0,2,1,8,1,2
5,0,6,29,2,2,36
39,25,14,18,0,26,41
44,24,2,3,18,23,0
3,1,1,1,25,3,1
1,1,4,11,2,0,7
19,2,10,33,0,1,74
46,33,18,6,11,33,5
12,11,2,2,17,19,0
0,1,0,0,13,1,5
3,0,14,9,1,1,8
40,11,7,27,0,14,56
41,34,16,7,24,29,5
3,2,2,1,27,6,1
1,0,2,1,3,1,9
21,0,18,19,2,1,14
45,23,10,22,3,28,30
12,28,4,7,34,27,9
2,2,0,2,27,3,2
3,0,2,1,1,2,36
40,0,9,40,1,4,33
44,32,18,13,7,42,8
2,12,4,2,38,24,1
0,2,1,0,13,2,3
19,0,2,10,1,1,4
44,8,13,32,1,26,86
13,37,19,10,30,24,8
1,6,4,1,12,8,1
3,2,1,4,3,2,35
39,0,10,31,2,1,48
43,11,12,14,0,25,64
4,31,11,3,27,32,4
0,2,1,2,20,2,5
19,2,2,8,1,0,7
43,0,10,27,0,2,13
15,23,19,13,18,35,17
1,24,3,1,29,22,17
1,2,0,0,9,2,1
32,2,5,28,2,1,2
42,1,4,21,0,12,92
3,33,20,2,40,22,5
1,13,4,2,40,7,9
16,1,1,1,3,1,6
30,1,8,29,1,1,6
20,6,4,23,4,23,101
1,42,16,3,42,16,5
0,6,3,1,24,4,1
27,0,1,6,3,1,11
42,1,9,32,0,2,46
5,6,5,19,14,33,11
1,42,14,2,37,17,2
10,6,3,0,6,3,49
31,2,0,19,2,1,12
23,1,12,33,0,10,17
2,3,6,2,30,19,1
0,40,16,1,26,11,2
28,6,0,6,4,1,5
44,2,1,37,1,2,33
5,1,19,13,4,29,55
1,4,10,2,48,18,3
11,40,2,1,14,3,10
30,4,1,2,2,2,13
26,1,5,31,1,11,37
2,1,24,19,19,16,6
0,7,18,1,31,8,1
22,39,4,1,8,1,4
41,5,1,19,2,1,42
8,1,8,34,1,15,5
0,2,5,4,36,14,1
10,8,16,1,30,7,21
27,38,2,2,2,1,8
32,5,2,35,0,0,42
0,1,11,18,9,31,9
1,1,8,2,40,20,23
22,7,16,1,19,4,7
48,40,1,6,2,1,11
7,7,2,29,1,12,34
1,1,17,14,19,19,1
9,1,7,1,40,8,1
21,3,11,0,4,2,4
42,37,0,20,1,1,33
2,9,2,21,1,20,10
2,2,12,3,34,20,1
22,1,16,1,35,5,9
35,7,2,1,3,2,9
17,33,2,27,1,1,44
1,6,5,24,6,24,4
7,1,7,4,40,16,0
20,0,17,1,20,2,14
46,5,2,6,1,0,13
5,39,2,26,2,4,17
0,10,10,12,13,27,14
23,1,9,1,38,15,26
36,0,21,1,9,2,46
16,20,1,16,0,1,13
2,29,1,32,1,20,6
7,2,18,3,33,17,9
18,1,7,2,33,4,8
45,0,11,3,4,0,22
4,32,0,31,1,2,5
1,15,3,22,1,30,1
23,1,10,3,38,15,1
36,1,17,1,27,3,60
18,5,4,7,1,1,22
2,35,1,35,0,8,6
5,8,6,11,15,36,2
21,1,5,2,32,17,8
47,0,17,1,5,1,53
6,5,3,19,2,0,16
1,37,2,26,0,20,7
22,8,7,5,31,20,1
33,0,4,0,21,3,8
19,1,21,1,2,0,17
2,2,2,29,1,1,22
8,41,1,19,1,32,6
18,8,9,3,35,24,1
48,1,4,0,26,2,21
4,0,17,11,3,1,41
0,3,4,25,0,10,16
20,31,1,7,8,28,1
34,7,10,0,39,8,9
19,2,5,0,22,2,18
3,1,21,14,1,0,22
3,2,2,23,1,25,1
17,40,1,4,27,26,1
48,7,15,1,24,3,6
5,1,7,1,4,1,31
1,0,17,35,1,0,11
23,3,1,25,1,41,1
35,34,0,3,36,24,6
20,7,10,1,21,2,12
1,1,16,4,4,1,45
4,2,4,29,0,11,3
17,5,1,15,11,30,2
50,34,2,0,32,10,14
5,8,3,1,7,1,31
1,2,23,15,1,1,52
22,0,5,27,1,39,3
33,4,1,4,29,25,58
22,39,6,1,29,3,56
1,8,5,1,4,2,45
4,0,18,26,0,10,3
25,1,5,23,4,30,0
49,4,0,2,34,10,8
5,41,5,0,21,1,26
1,8,3,6,2,3,12
19,1,15,30,1,44,1
30,1,5,15,10,23,6
22,4,1,2,29,3,7
0,33,5,0,8,1,39
2,8,3,19,1,3,5
21,2,15,23,0,42,1
49,1,2,5,27,15,7
5,4,2,1,25,1,4
0,37,6,2,5,2,40
20,7,4,30,0,24,5
35,2,12,26,0,27,0
21,2,3,3,39,5,7
0,3,1,0,27,1,6
3,37,4,10,3,0,45
24,10,5,21,2,34,36
53,1,17,9,10,21,4
4,1,5,1,29,3,48
1,13,1,1,10,1,36
18,29,5,19,1,5,8
36,3,5,22,0,37,2
22,0,15,4,42,18,0
1,0,6,1,18,1,7
3,32,1,0,2,2,33
25,19,4,30,0,21,13
50,2,3,25,14,21,1
4,1,14,2,27,5,3
