HandOpen,HandClose,Wrist Flexion,Wrist Extension,Supination,Pronation,Rest
3,27,23,9,1,18,2
1,12,10,5,1,8,16
7,6,5,3,1,4,29
13,2,2,3,6,2,37
29,2,3,2,22,2,38
41,0,2,1,27,2,29
38,1,2,0,35,2,16
31,0,2,2,31,9,6
18,12,1,3,16,18,3
8,28,59,15,6,17,2
5,34,45,27,4,30,2
2,36,22,30,2,42,0
2,22,9,29,1,32,0
2,9,10,19,0,14,0
0,6,9,9,4,6,7
2,2,5,4,25,3,18
10,2,1,2,38,2,27
22,1,2,0,35,1,41
34,1,1,2,34,2,38
37,0,1,2,33,1,36
25,3,2,2,26,7,21
15,10,1,1,13,16,9
6,6,2,8,7,24,4
3,13,35,19,4,20,2
3,27,59,29,1,9,2
1,23,25,31,2,4,1
1,16,12,26,2,1,2
0,19,5,18,0,2,2
0,10,3,11,0,1,6
13,2,1,3,3,0,34
34,8,10,1,8,6,18
6,32,21,0,27,9,2
1,15,28,23,33,6,2
0,1,34,24,1,0,20
28,1,2,3,10,2,37
28,4,1,1,26,1,3
3,40,49,4,2,2,2
0,20,76,29,2,0,1
5,1,32,11,1,22,29
40,2,8,0,22,15,31
13,25,23,1,22,1,4
1,36,69,12,2,2,1
0,5,23,28,2,11,5
20,1,11,3,1,3,36
34,3,27,1,28,2,20
4,32,84,1,14,4,3
1,22,19,22,1,5,2
2,2,2,17,1,5,10
29,0,21,3,23,8,50
34,4,33,0,55,3,8
2,29,61,5,6,1,1
0,6,12,23,1,0,2
4,1,15,11,1,20,16
39,26,32,2,30,34,27
18,4,6,1,9,4,1
2,18,24,19,2,2,2
0,3,2,19,2,5,5
14,2,43,2,6,41,37
43,0,80,2,19,10,28
10,23,33,1,21,2,2
0,24,10,27,2,0,2
5,4,3,17,0,13,18
47,3,26,2,2,28,37
14,0,2,0,34,2,5
1,50,17,5,16,1,1
1,56,1,32,3,0,0
19,5,56,12,2,1,25
39,1,23,2,14,29,31
4,10,11,2,35,11,4
0,38,7,9,3,0,2
2,12,5,33,1,11,4
25,1,59,8,8,8,35
24,0,33,0,30,1,9
3,62,20,2,36,6,1
0,63,2,13,3,8,2
2,4,74,26,0,2,5
36,1,18,5,5,6,31
17,10,24,0,64,1,19
0,43,2,1,10,1,1
1,7,111,22,1,1,1
17,1,67,16,0,1,12
29,2,13,1,7,9,33
3,19,12,0,61,7,5
1,36,52,2,21,2,1
0,5,5,24,1,1,2
27,2,13,14,0,1,19
23,1,32,2,29,0,31
2,25,5,0,24,28,3
1,49,19,12,3,35,1
3,3,31,29,2,3,4
34,0,3,3,2,1,40
21,2,1,2,38,28,13
3,27,59,0,12,23,0
1,27,90,23,1,3,2
16,3,23,21,1,1,12
35,0,1,1,6,0,37
3,17,19,0,37,15,5
1,40,47,5,8,16,1
1,4,44,30,2,4,1
27,2,23,15,1,2,25
34,3,13,2,10,2,30
3,30,20,1,39,28,3
0,33,3,11,4,3,1
3,2,30,24,0,2,4
32,1,4,3,2,1,33
13,13,93,0,44,10,23
2,30,8,2,5,17,1
1,29,6,26,2,3,0
10,2,6,32,6,1,12
37,1,43,3,2,4,28
6,32,67,0,19,19,2
0,20,28,2,52,2,1
1,1,12,29,7,1,0
14,1,10,15,1,1,25
34,25,20,2,1,1,33
8,30,27,1,41,49,4
2,6,2,6,17,56,0
7,2,3,30,2,4,4
23,1,65,11,2,1,38
22,50,11,1,11,2,21
2,79,5,1,39,16,2
1,5,6,17,4,19,1
12,1,2,23,1,1,12
29,6,55,2,1,1,43
5,29,6,0,20,19,5
1,22,2,1,23,16,0
0,2,2,26,4,4,2
23,1,8,15,1,1,27
29,7,29,2,1,0,44
2,34,23,2,26,19,6
1,17,1,10,23,32,1
5,2,0,32,3,1,2
40,0,1,7,1,2,31
14,37,10,2,7,1,23
2,42,36,2,36,1,1
0,4,4,19,6,53,2
12,2,2,23,1,20,9
35,0,48,2,1,2,40
4,49,23,2,2,1,13
0,29,26,1,30,7,3
1,2,2,21,28,11,1
33,0,1,17,4,1,23
30,0,93,1,0,0,29
3,51,49,2,19,4,3
1,17,25,8,17,20,1
2,0,4,37,1,1,2
29,2,36,9,1,1,34
15,20,2,3,13,0,24
1,40,1,2,42,1,2
2,5,0,8,9,15,1
12,1,102,33,1,25,13
33,1,53,12,1,2,48
2,33,29,1,0,16,7
1,27,24,1,32,9,1
1,2,8,13,36,4,1
16,0,16,24,3,7,18
27,2,51,2,0,1,29
4,35,35,2,30,1,4
1,14,3,1,57,14,1
3,2,26,27,5,13,6
37,1,25,17,2,1,38
29,19,2,2,2,2,18
3,15,0,0,12,0,3
1,5,31,8,21,8,1
8,0,66,32,14,16,10
46,1,5,6,1,3,36
16,46,1,1,16,1,6
3,31,2,1,34,5,1
2,1,46,7,3,20,2
38,1,14,30,1,6,22
30,32,2,9,0,2,32
3,66,0,2,25,1,3
0,13,1,2,26,37,2
1,1,51,12,2,16,2
39,0,34,23,1,2,35
19,8,3,3,2,1,27
2,5,0,2,43,1,1
1,6,19,1,32,1,1
14,4,45,18,4,35,13
38,2,4,25,0,7,42
7,27,0,1,19,2,3
2,25,1,1,28,0,2
2,3,34,1,2,1,1
10,1,17,17,2,47,19
33,1,2,18,13,28,36
8,35,2,1,53,3,4
1,16,4,1,14,1,2
1,2,46,5,1,20,1
33,2,32,27,2,11,30
21,15,3,9,50,4,25
2,19,1,1,27,2,2
1,8,5,0,3,1,1
7,1,21,3,1,32,6
29,1,47,30,1,25,41
31,20,5,7,43,3,13
2,26,2,1,30,1,0
1,4,22,1,3,2,2
26,0,10,7,2,8,21
32,1,3,22,14,1,27
3,19,1,4,63,8,3
1,37,2,1,8,2,0
3,5,41,1,2,2,0
37,3,5,5,2,23,48
27,0,2,26,15,5,27
2,40,2,7,49,1,2
0,45,2,1,6,1,0
15,9,27,1,2,9,10
32,0,12,7,14,31,39
4,16,1,29,35,8,7
2,28,0,11,21,1,2
1,7,5,2,2,2,1
24,2,20,1,2,4,23
41,0,2,14,16,2,35
4,21,1,23,12,9,2
1,22,0,4,6,27,0
2,1,9,1,2,3,1
36,0,40,2,1,3,35
19,24,14,19,30,20,29
1,21,2,18,17,21,1
2,3,0,2,3,1,2
1,2,8,1,2,7,11
40,6,5,4,3,2,37
33,3,7,29,15,27,5
2,28,1,9,27,6,0
1,4,1,2,3,1,2
19,0,1,0,1,1,22
34,1,39,3,31,7,38
5,17,15,23,26,29,5
0,42,2,8,3,6,2
2,7,1,1,0,2,1
37,2,3,2,1,1,27
20,2,10,4,8,8,20
2,5,38,30,34,31,2
1,24,5,8,6,8,1
9,5,0,3,1,1,6
40,1,21,2,0,1,38
11,2,24,6,7,30,15
2,18,7,25,12,22,1
0,19,2,9,14,2,2
23,3,1,3,2,3,29
24,1,38,1,0,0,36
2,3,22,7,31,2,4
0,35,3,26,6,5,0
10,25,0,9,0,31,1
33,3,11,1,2,5,31
16,0,6,2,31,0,26
1,9,7,4,23,13,2
1,28,2,25,5,34,1
22,11,2,13,1,4,7
31,0,36,3,0,0,46
4,1,12,2,9,0,19
1,17,2,6,40,15,2
0,32,1,25,5,18,1
33,3,0,5,1,5,22
35,0,5,2,1,1,40
3,1,10,0,3,8,5
2,33,16,14,29,4,2
7,17,6,24,15,21,1
45,1,9,2,2,3,31
17,1,54,1,0,2,29
1,26,8,2,28,3,3
1,42,1,17,17,13,1
19,5,3,12,2,19,8
27,1,2,2,1,2,41
3,2,33,1,8,2,22
2,16,22,1,57,4,2
3,49,3,25,18,10,0
55,5,0,9,1,29,21
25,1,7,1,0,4,28
3,1,28,0,27,0,4
2,19,11,5,72,6,1
4,20,2,22,7,2,0
44,1,1,12,3,0,33
17,2,29,0,0,1,33
1,14,22,1,37,1,2
0,13,2,8,56,16,2
22,4,1,29,6,44,9
27,1,10,8,2,2,41
4,2,50,1,2,0,10
0,20,7,1,24,1,1
1,16,1,7,42,40,1
31,2,0,23,5,33,15
22,0,6,5,1,3,29
1,2,1,3,8,1,4
2,44,44,1,42,0,2
5,22,36,7,15,2,2
41,2,3,18,2,26,28
22,1,18,3,1,4,21
2,19,7,2,33,1,1
0,44,2,1,14,7,3
16,6,0,13,2,14,7
38,3,1,25,1,14,37
4,7,38,4,2,3,19
0,25,27,2,22,2,3
0,7,2,1,52,14,2
26,2,0,15,5,14,25
38,1,5,21,2,1,39
4,1,59,1,5,1,7
2,20,18,2,13,19,2
5,12,1,1,7,57,1
37,3,1,19,2,6,24
13,2,5,7,2,2,18
2,0,27,1,32,1,3
1,31,25,1,23,2,1
20,24,2,2,3,26,6
37,2,4,25,1,11,37
4,0,29,9,2,2,15
1,8,13,3,37,0,1
1,31,1,1,20,1,0
30,12,1,2,3,9,21
41,3,0,22,0,23,36
5,1,30,12,1,5,4
1,19,31,2,53,1,1
4,8,3,2,31,24,1
41,1,3,6,7,36,33
16,2,34,26,1,2,29
3,0,22,9,4,1,2
0,13,2,2,31,2,1
14,11,2,1,3,17,7
31,2,10,12,1,36,40
6,1,8,21,1,4,25
1,4,3,2,8,1,3
2,27,0,1,23,5,1
24,15,3,0,10,50,15
32,1,1,16,1,17,34
5,2,15,25,2,2,4
2,29,22,3,33,1,1
4,26,4,2,38,4,0
32,5,1,0,4,2,26
14,1,2,22,1,14,26
1,2,59,16,2,12,2
1,31,22,1,35,11,1
20,10,2,0,17,18,8
33,0,0,8,2,10,38
8,0,0,29,2,2,14
1,1,22,7,7,2,1
1,21,53,2,43,7,1
32,50,4,0,5,20,6
35,8,1,4,4,22,22
3,2,23,24,12,1,6
1,4,27,6,10,0,0
6,45,3,1,13,12,1
43,11,2,2,1,55,17
26,1,2,3,0,7,60
1,0,28,24,5,1,14
1,32,1,6,48,4,2
19,36,3,2,18,22,2
39,3,0,1,1,7,29
6,1,2,12,0,1,20
1,2,47,22,4,1,2
0,11,96,1,35,0,3
48,28,7,1,3,18,18
22,2,2,0,1,24,36
3,1,23,14,1,1,4
1,9,11,19,11,1,1
3,50,2,3,18,2,0
39,28,3,2,4,26,24
17,2,2,1,1,15,19
2,1,14,25,0,1,2
0,25,15,10,16,0,2
7,16,2,1,30,3,7
44,1,1,0,10,28,48
14,0,8,6,0,21,26
1,4,31,24,2,2,3
1,46,16,7,33,7,1
22,31,1,0,27,32,10
33,3,0,1,2,7,32
2,1,24,5,1,1,5
1,8,28,19,26,2,3
4,43,6,7,30,6,2
43,12,0,1,4,29,36
28,0,1,1,1,4,36
4,0,6,4,1,3,5
0,29,29,27,9,0,2
9,32,23,5,18,1,9
39,3,1,2,9,52,44
7,0,9,0,3,57,19
2,1,22,5,1,5,2
2,18,3,23,14,0,0
15,7,2,5,41,2,13
33,2,1,1,4,25,33
7,2,1,0,2,3,4
1,11,61,9,32,1,0
2,59,54,17,56,12,1
28,5,3,4,6,41,24
28,1,0,2,1,5,30
3,3,1,0,2,1,4
1,1,17,4,13,1,1
2,29,11,21,16,2,5
38,10,1,5,1,22,41
22,1,1,2,2,7,13
2,1,38,1,2,6,1
0,28,17,5,19,1,0
9,35,1,26,11,0,10
44,5,1,6,3,13,34
18,3,10,0,1,31,6
3,4,34,2,3,4,1
2,19,10,2,31,0,1
30,34,2,27,23,12,25
28,2,0,11,2,39,33
3,0,15,0,3,7,5
1,20,26,1,9,2,0
6,29,2,12,11,1,8
23,5,0,17,3,13,104
13,1,0,2,1,20,6
2,3,26,1,3,2,0
2,64,18,1,2,1,10
13,28,5,17,35,2,39
34,3,1,13,25,40,10
5,2,0,1,1,12,2
0,2,30,1,0,1,6
1,32,32,9,45,1,4
29,14,5,18,22,0,31
29,0,0,2,3,33,22
5,0,9,1,0,11,2
2,1,15,1,3,1,0
3,24,2,3,32,2,23
42,16,0,20,5,18,40
22,1,2,9,2,47,17
3,1,22,2,2,11,17
0,35,39,1,8,1,1
9,27,4,3,29,1,16
48,6,0,26,6,11,9
14,1,12,13,2,26,5
2,3,17,1,0,5,6
1,57,19,2,0,2,1
23,22,2,17,30,10,25
30,1,2,14,44,47,38
3,1,14,3,4,6,3
1,1,17,0,1,2,0
1,29,1,1,18,3,12
32,48,1,19,35,10,56
14,4,1,18,1,19,4
1,2,29,3,0,3,1
1,27,23,0,18,2,1
9,21,2,1,34,2,15
35,2,0,17,18,0,25
15,1,25,8,1,44,3
2,1,36,1,1,31,1
1,29,12,1,18,2,2
19,26,1,4,37,1,90
34,1,0,24,5,14,40
3,1,20,11,1,26,2
1,9,34,1,1,3,1
3,41,8,0,19,0,18
37,16,1,12,3,12,28
28,1,2,23,4,18,22
2,0,37,3,5,1,1
1,15,14,2,1,2,10
15,48,2,0,20,4,37
39,20,0,18,18,19,5
7,2,17,20,2,11,1
1,3,12,2,2,2,0
0,38,11,1,6,0,31
36,13,12,4,46,6,27
29,2,10,21,20,24,2
3,2,19,15,0,25,1
1,10,1,1,1,3,1
2,32,2,2,19,1,33
27,11,1,7,30,10,21
21,1,25,27,5,13,7
1,4,24,11,2,1,3
1,39,3,3,0,0,12
10,9,0,1,28,3,32
41,1,5,16,22,38,30
11,1,21,17,2,44,1
1,3,13,2,0,9,2
4,22,5,1,1,1,43
32,13,0,3,38,2,20
23,2,18,26,14,8,3
1,1,48,11,1,32,3
2,16,9,2,2,4,37
10,30,2,0,41,0,29
39,4,2,12,23,17,2
7,1,16,20,2,9,0
1,1,74,5,2,28,1
2,29,11,2,2,2,34
28,46,1,1,19,1,21
26,4,14,17,11,15,2
3,1,51,14,2,20,1
1,18,12,2,2,0,2
1,30,1,0,2,1,34
30,15,1,2,21,1,27
46,1,49,21,12,42,3
5,1,19,15,2,58,2
2,46,3,1,0,6,13
9,28,2,1,10,1,37
49,3,17,7,32,5,6
30,2,36,21,3,30,1
3,3,2,6,0,7,0
2,39,2,2,2,2,29
19,16,0,1,18,1,30
32,2,14,4,35,16,6
4,2,41,26,5,68,1
0,16,4,6,3,7,1
1,28,1,1,2,2,33
15,13,7,1,1,0,20
6,2,38,9,9,33,2
4,1,17,26,14,39,1
0,30,3,7,2,4,8
29,27,1,2,7,1,41
85,1,16,1,43,1,8
11,1,12,8,10,2,1
1,16,5,28,1,21,1
1,41,2,10,0,4,4
49,5,2,0,10,1,41
99,2,63,0,38,0,10
8,0,16,17,6,26,2
3,38,1,21,1,12,1
0,16,1,2,1,2,21
31,3,1,1,28,1,31
21,1,17,2,24,6,2
3,20,19,26,4,28,1
1,29,2,14,2,9,5
14,10,0,2,5,1,33
89,0,29,2,57,2,21
10,7,5,7,13,3,2
1,41,18,27,1,39,1
4,6,16,7,2,14,12
43,1,1,1,71,1,38
4,1,17,1,54,2,7
6,6,25,5,5,2,2
10,43,3,23,1,18,1
2,20,0,7,1,2,22
30,2,9,2,36,2,25
6,2,33,1,26,1,4
2,8,8,5,2,19,2
15,29,1,24,2,24,0
61,8,0,7,1,14,29
21,2,0,1,28,2,19
2,0,21,0,25,1,2
1,1,39,7,4,12,1
1,28,4,26,0,12,6
99,53,7,9,2,0,42
22,7,77,1,40,12,13
1,2,12,1,29,30,18
0,16,2,8,2,9,2
130,47,1,23,0,1,31
39,4,0,7,30,12,30
4,2,54,1,18,1,2
1,2,71,1,0,19,2
3,30,5,4,4,5,2
113,24,2,22,26,1,46
47,3,6,8,35,1,17
5,0,36,1,3,28,2
3,2,11,1,1,49,1
0,33,0,11,0,2,28
11,25,1,29,8,1,41
64,2,7,1,49,3,3
21,2,21,1,13,50,2
9,1,12,1,2,11,1
2,55,2,15,1,3,38
21,17,2,17,22,2,22
34,1,3,1,37,0,3
2,2,25,0,4,30,0
2,40,6,1,0,11,10
24,33,0,22,0,2,38
7,4,1,20,22,1,9
48,0,11,0,4,0,2
38,10,5,1,1,25,1
77,59,78,3,0,21,26
11,11,24,25,27,1,43
1,1,7,11,33,1,4
39,0,9,2,2,19,2
7,16,4,0,1,72,2
1,36,3,14,1,5,47
0,4,1,22,4,1,21
1,0,1,4,35,1,2
31,3,39,1,10,2,1
2,44,25,2,1,29,12
88,18,2,27,1,28,39
24,1,30,19,23,3,44
1,2,57,2,56,5,3
18,45,9,0,18,28,2
128,39,2,11,9,8,25
10,4,0,19,25,1,21
2,2,30,2,25,0,2
6,1,22,1,2,6,1
90,24,4,0,0,32,13
19,23,5,16,0,8,37
1,3,0,24,33,1,10
0,0,1,2,16,1,0
52,2,61,0,13,5,1
16,30,7,0,78,41,30
21,24,0,20,20,13,23
3,3,25,18,22,5,3
44,2,67,1,13,0,2
64,32,33,2,3,8,5
14,42,5,4,54,20,40
15,9,1,24,4,10,23
9,2,41,10,1,1,2
3,1,76,2,144,2,0
43,32,10,0,164,25,17
20,16,0,12,10,24,28
2,1,0,21,14,1,4
15,1,120,2,2,1,1
86,19,41,1,72,1,1
5,37,9,1,46,18,33
1,4,2,16,6,6,33
30,1,22,18,75,1,3
77,1,91,2,11,1,2
30,2,206,1,40,17,3
6,54,10,4,14,71,39
1,8,49,22,1,9,15
57,2,4,9,1,2,2
77,2,2,2,67,0,1
6,7,1,1,97,4,19
2,31,62,9,57,31,32
3,23,50,25,5,10,5
11,3,42,9,59,1,1
43,0,73,1,20,0,1
4,20,5,2,66,32,32
1,30,57,4,4,9,33
27,5,159,29,22,0,3
7,1,22,14,16,1,2
27,1,2,1,36,2,4
1,30,106,1,8,8,35
0,21,111,10,6,16,18
59,2,104,25,28,15,1
94,0,29,3,6,2,0
8,3,93,2,8,1,19
2,69,22,1,15,1,33
1,28,2,16,2,7,8
39,2,4,17,4,33,1
29,2,67,2,28,6,0
2,17,47,0,48,1,29
5,19,11,1,8,41,30
3,2,2,32,2,4,4
80,2,39,16,50,2,2
38,1,33,2,51,0,5
4,47,2,0,5,1,39
10,13,1,9,0,15,18
31,3,87,21,88,12,1
24,0,20,6,49,0,1
16,5,3,0,9,2,25
4,32,132,2,13,37,25
4,39,26,17,9,29,3
93,3,9,25,19,6,0
11,2,24,2,23,1,1
3,19,19,0,6,0,29
2,67,1,0,13,14,28
49,10,1,17,15,33,2
8,1,4,19,57,3,1
10,8,59,3,23,3,1
2,26,4,1,16,19,37
41,10,1,6,12,13,15
17,1,21,25,22,11,1
2,1,24,9,21,3,1
20,34,23,3,1,2,19
10,22,5,0,1,5,35
13,3,1,5,74,23,4
38,1,1,30,23,7,1
2,1,5,12,1,1,0
1,34,145,2,5,1,24
12,40,7,3,18,19,27
36,6,40,13,65,50,2
2,1,261,23,11,6,0
1,27,10,5,8,2,3
1,25,1,2,8,1,37
49,6,13,1,116,27,16
20,0,225,17,15,28,1
12,0,13,18,6,3,2
54,21,8,3,42,1,23
13,44,11,0,25,18,38
14,13,50,0,21,7,4
21,1,80,23,19,1,1
5,25,10,13,41,0,1
25,24,16,3,37,2,27
50,1,39,2,33,2,27
20,1,61,13,3,6,1
7,1,57,20,8,7,0
16,4,17,3,29,1,4
58,96,3,1,42,0,45
5,62,55,1,5,5,10
5,4,142,22,28,31,1
2,39,20,21,2,7,2
28,64,61,2,35,4,14
26,5,48,1,16,1,33
14,2,4,2,17,2,5
0,0,22,24,3,5,1
36,3,26,19,54,19,1
54,17,85,2,47,13,31
10,1,17,0,25,2,30
15,80,8,7,30,2,4
5,57,84,21,56,12,2
46,16,16,10,28,3,4
8,21,8,1,30,14,43
52,1,17,3,2,2,17
4,8,25,19,27,1,2
32,26,104,25,86,4,1
20,73,5,2,12,5,14
2,3,23,1,14,1,38
2,3,20,2,21,2,6
74,1,122,27,27,5,1
25,18,3,22,19,24,2
21,115,6,1,33,7,31
4,4,87,0,36,1,28
5,0,66,2,32,1,4
12,121,6,21,13,7,2
48,191,72,7,19,17,6
30,7,35,0,18,15,44
2,3,55,2,21,3,10
4,21,21,9,20,1,1
74,25,176,23,3,16,0
26,7,27,7,16,58,15
4,1,6,3,66,5,37
1,23,0,1,25,1,6
1,104,12,6,19,0,1
46,15,148,23,7,3,1
18,4,124,9,54,16,22
1,42,12,3,12,34,31
9,4,7,0,2,3,2
67,177,5,8,5,14,0
21,39,46,24,52,8,1
2,3,59,3,22,3,40
0,98,4,2,25,1,16
11,58,10,2,3,0,1
11,20,39,12,0,1,2
3,170,33,35,40,33,13
41,11,26,6,34,23,41
9,121,20,2,3,3,5
21,5,21,1,2,2,2
2,1,3,2,2,8,1
43,112,25,25,53,22,29
3,281,32,27,6,15,25
30,19,8,3,5,3,3
34,1,89,2,2,11,0
4,153,13,1,32,31,3
2,15,1,40,26,5,42
17,260,42,32,9,1,13
37,12,4,2,1,0,0
41,28,7,62,2,17,2
10,114,38,32,44,154,16
2,26,3,4,31,7,34
54,70,1,2,5,1,5
29,13,35,2,7,1,1
25,30,154,16,9,17,0
2,8,7,41,26,26,23
0,1,2,5,16,24,31
12,83,88,3,1,6,3
53,3,35,1,1,53,1
3,416,4,1,9,51,1
1,100,8,3,54,3,36
1,156,22,26,12,1,16
25,6,165,35,6,0,2
30,48,11,18,5,69,1
3,218,3,6,4,16,11
1,78,67,2,41,15,34
48,232,35,2,26,3,5
28,34,65,7,2,102,1
3,5,4,2,31,103,2
2,279,1,7,21,10,23
4,23,16,36,10,37,29
47,426,90,94,3,52,3
24,36,7,14,3,158,2
1,41,6,24,14,6,3
0,4,4,106,16,28,38
8,97,130,7,9,89,24
65,93,15,2,6,126,2
12,142,67,0,1,28,0
2,200,4,54,16,50,13
48,11,95,159,12,74,36
16,156,100,6,3,146,5
54,63,7,21,1,9,2
4,5,14,90,47,215,1
1,100,41,28,25,38,25
27,180,7,2,33,382,31
75,7,4,0,6,32,3
6,1,14,157,5,120,1
1,115,39,67,36,306,1
5,40,41,36,35,22,35
4,131,28,39,7,45,21
32,16,1,6,3,31,2
6,100,31,26,2,160,2
2,114,91,25,65,48,13
1,14,7,24,16,49,42
47,153,11,36,2,184,5
53,20,15,261,2,41,1
6,50,50,9,32,139,0
2,37,37,2,48,435,27
0,111,50,39,4,58,33
73,149,7,303,4,53,4
28,21,9,13,14,5,0
6,11,85,3,31,412,2
2,79,99,163,27,34,34
0,16,11,27,4,86,20
47,59,24,67,2,44,1
26,11,96,4,10,115,1
2,31,34,122,40,57,15
2,791,2,40,3,9,36
24,100,4,11,7,146,6
6,24,26,265,2,22,2
12,116,21,12,24,277,0
5,8,79,55,59,271,20
4,288,4,73,11,107,31
17,14,27,55,2,5,2
5,562,52,20,22,57,1
68,17,29,46,20,106,2
5,181,2,158,11,3,33
19,15,68,99,1,55,22
18,5,113,69,10,190,1
11,12,22,17,52,16,2
1,0,27,116,20,278,14
2,684,42,204,2,35,36
50,55,50,49,0,97,5
37,20,54,85,68,8,1
4,41,10,151,22,69,1
2,64,2,55,10,284,20
36,29,59,88,3,16,30
69,22,24,141,42,179,5
9,5,3,149,51,133,2
2,136,4,40,2,33,2
8,43,67,96,2,277,37
42,164,98,135,17,12,25
43,53,61,112,44,127,1
2,232,6,59,10,143,2
3,53,72,107,0,362,15
2,53,27,46,1,14,35
35,178,28,45,70,169,6
52,38,3,222,21,124,1
3,45,9,8,3,139,0
4,56,150,28,1,53,27
1,125,30,189,0,6,32
16,37,4,48,43,34,5
21,14,102,235,20,201,1
7,112,50,30,9,83,2
2,22,16,87,1,9,30
8,45,39,203,32,141,25
4,37,29,136,47,82,3
39,56,18,286,7,42,0
3,76,18,104,2,5,13
33,7,8,359,1,259,37
28,30,26,161,8,218,6
17,24,9,26,62,54,3
3,170,44,169,6,245,1
1,10,66,40,3,9,28
1,228,13,122,3,39,29
16,91,16,180,26,41,1
57,124,40,28,25,45,0
5,4,2,210,8,35,2
1,87,3,154,1,62,38
22,24,18,123,0,29,17
17,187,20,246,40,79,2
33,63,57,61,18,301,1
6,13,4,169,12,9,8
9,196,6,32,5,60,42
27,27,30,9,13,42,14
27,30,30,85,53,141,3
2,182,24,77,16,93,1
0,6,4,65,2,15,22
48,307,15,91,2,9,33
30,137,29,62,52,387,4
13,52,103,49,15,27,0
0,144,18,208,2,29,2
23,6,35,34,8,96,33
18,75,30,50,10,5,30
13,12,40,82,54,8,1
2,191,5,16,10,69,1
26,35,77,301,1,114,10
12,9,12,24,18,62,37
34,125,17,48,45,45,6
1,66,25,60,17,112,2
1,20,45,212,2,15,1
19,114,31,152,3,71,21
65,14,52,26,62,51,35
17,107,5,69,27,127,4
5,46,2,165,10,145,1
1,17,195,28,3,16,1
69,153,21,99,12,336,29
14,174,2,24,45,67,26
1,60,35,207,15,76,3
1,33,34,112,2,33,1
13,174,153,92,13,14,12
57,5,6,6,44,1,37
13,24,51,96,13,158,10
1,165,82,77,2,85,1
2,17,6,23,10,35,1
25,145,10,161,38,29,31
16,45,15,151,38,6,22
2,8,31,5,4,111,2
29,69,13,432,2,79,0
11,21,45,121,4,5,5
25,48,2,50,36,211,41
4,18,94,32,11,79,14
2,193,41,83,1,398,1
0,20,33,21,2,51,2
24,85,3,4,47,32,12
46,108,14,211,39,280,31
3,268,51,44,6,106,4
2,41,45,5,2,46,0
8,108,29,51,2,60,2
56,6,78,205,61,46,31
12,128,7,10,20,22,22
2,6,90,130,4,97,2
2,137,27,17,2,27,0
28,167,30,197,23,26,7
29,9,64,143,22,4,39
2,73,59,84,34,55,13
2,242,4,291,5,203,1
5,18,1,39,2,11,2
37,7,4,131,24,13,21
17,22,55,68,18,52,35
15,22,28,9,2,170,4
3,121,5,25,1,32,1
44,8,14,56,17,4,0
38,90,68,44,52,105,33
8,11,22,156,16,72,23
1,162,13,78,8,24,2
5,39,1,95,7,1,2
24,9,38,26,46,48,5
35,21,102,48,37,95,35
17,102,10,119,4,14,14
3,26,5,38,2,123,2
23,13,53,39,29,112,2
54,121,30,4,30,86,24
5,162,28,9,7,6,31
2,7,25,41,3,108,3
3,78,11,68,1,48,1
15,88,9,6,28,21,0
15,70,34,75,28,20,27
1,10,4,10,5,269,23
2,3,9,271,1,137,3
30,155,58,37,5,60,0
21,99,43,75,42,167,2
34,6,3,9,28,204,39
2,54,1,40,3,7,16
1,147,26,37,1,3,2
49,120,103,69,7,35,1
27,7,13,44,67,22,17
5,128,4,187,17,117,33
2,32,30,36,1,57,6
13,47,109,7,1,5,1
48,3,46,278,35,89,2
5,149,12,171,57,40,28
1,11,67,86,6,68,27
0,87,41,223,3,25,4
40,10,115,22,8,46,1
15,77,5,114,60,169,5
8,64,33,6,38,63,42
2,6,10,78,2,65,14
2,2,31,153,0,12,0
26,88,3,32,25,54,0
24,94,6,258,29,66,20
1,63,79,106,26,9,31
21,6,24,14,3,78,4
42,8,13,7,2,43,2
10,228,1,0,46,16,0
2,11,90,280,13,21,27
9,4,62,158,3,156,26
3,69,40,102,2,70,2
27,48,4,43,6,23,2
34,7,84,105,51,60,4
1,9,53,10,23,4,41
2,0,22,46,4,230,15
5,36,6,192,1,129,2
5,35,14,188,23,47,0
52,64,21,15,41,57,15
17,26,56,190,7,132,36
1,10,17,95,1,38,3
16,28,35,35,1,17,0
78,109,8,18,54,71,1
8,8,39,79,19,30,28
1,1,2,124,4,25,27
9,198,132,56,0,37,2
24,180,5,120,13,103,1
11,5,9,26,48,27,6
3,31,38,66,16,5,36
0,67,7,15,1,91,15
32,61,5,27,2,28,1
18,5,42,16,35,6,2
3,2,39,4,14,54,20
1,55,4,190,1,4,32
1,36,1,67,5,13,4
40,55,54,49,4,43,1
9,5,50,46,39,22,1
8,96,12,31,14,21,28
1,55,23,27,1,10,31
0,64,50,131,8,234,3
16,115,166,425,36,13,1
46,5,6,60,29,65,6
6,197,3,57,2,71,30
1,56,9,20,1,20,16
16,20,54,22,0,7,1
27,69,35,135,25,151,1
20,8,10,28,25,81,22
3,127,1,92,4,43,32
2,4,58,105,2,11,3
35,2,50,257,11,25,1
61,76,24,126,46,104,1
6,40,2,390,7,7,28
1,3,1,19,1,16,27
15,3,43,62,2,7,3
27,48,73,101,12,5,2
21,17,10,22,45,119,5
1,10,27,126,8,29,36
1,12,29,13,4,31,13
13,10,9,35,4,4,2
59,61,1,217,32,85,2
7,9,3,48,17,68,22
2,26,17,33,3,6,34
2,19,102,70,1,20,4
12,36,8,19,1,64,0
31,51,2,82,36,37,2
5,28,12,10,17,71,28
1,48,117,133,6,30,29
51,29,67,9,1,8,2
44,59,10,156,4,17,2
29,5,4,54,38,46,4
3,7,75,213,30,3,37
11,104,4,9,2,42,17
5,54,1,29,0,24,3
14,21,2,52,51,34,2
2,48,16,21,12,29,19
5,38,125,335,2,66,35
2,136,12,69,0,11,5
25,7,6,15,25,13,0
14,11,18,1,58,3,2
1,92,14,11,27,100,31
2,61,27,109,3,12,29
41,10,51,37,2,1,2
56,59,11,70,36,2,1
7,11,42,229,24,32,4
2,4,12,82,5,100,34
8,98,7,8,2,13,21
24,57,3,41,44,9,3
22,101,39,25,34,25,1
2,51,27,103,11,49,18
2,5,37,81,2,19,34
27,16,38,26,4,6,5
61,68,17,124,53,28,1
15,243,93,44,40,63,0
5,9,11,153,14,25,26
3,2,2,24,5,22,26
18,2,62,22,25,2,2
28,76,17,202,38,22,1
15,82,42,48,6,46,6
3,22,2,99,1,37,56
2,99,101,67,53,9,11
33,54,38,20,39,6,1
33,11,12,1,30,3,1
2,90,12,139,6,98,20
1,81,1,12,0,13,35
21,5,80,39,14,1,6
20,54,53,14,43,92,2
2,91,7,200,15,30,0
1,8,13,237,5,19,29
14,1,70,19,14,2,26
99,192,42,8,43,23,3
11,15,4,189,13,25,1
1,4,82,51,2,12,3
1,0,68,36,1,55,34
48,93,4,95,34,87,20
41,67,48,18,18,16,3
4,20,4,4,7,42,1
1,0,43,37,4,3,11
6,186,63,5,10,21,34
37,153,5,115,53,69,5
21,17,18,102,5,14,1
2,7,2,48,4,18,1
3,37,30,31,0,72,29
3,140,75,5,21,20,38
38,4,5,130,37,8,2
7,122,6,150,9,2,2
13,70,16,34,2,0,0
2,22,131,2,1,36,34
51,1,9,78,41,47,18
38,72,2,13,29,11,3
5,94,2,22,14,8,0
1,15,40,59,1,31,16
7,15,26,68,9,25,36
25,13,24,123,42,6,4
20,34,69,72,6,9,1
1,7,42,40,12,1,2
0,42,37,9,10,1,20
38,174,46,10,30,28,28
41,137,26,2,13,64,3
6,74,30,135,14,12,1
1,6,10,78,2,12,2
0,34,3,31,47,31,35
37,23,23,88,18,40,22
12,176,101,113,3,14,2
1,11,92,5,1,23,1
2,174,16,39,0,65,15
2,67,25,144,54,43,37
31,13,80,171,21,9,6
14,3,58,10,4,0,2
2,19,9,6,4,21,1
1,65,14,170,16,27,26
13,111,2,41,54,34,28
64,69,78,18,8,4,3
13,136,14,29,2,7,2
2,72,34,62,0,53,3
28,93,3,151,38,15,34
4,39,78,6,23,29,25
64,27,21,8,5,25,2
23,11,3,68,2,72,0
2,89,2,14,0,13,15
34,23,92,116,21,87,35
26,8,10,34,32,11,6
3,80,35,122,2,23,1
2,155,25,74,0,7,2
1,4,116,9,0,13,27
1,72,9,56,61,24,28
95,58,37,4,12,41,1
21,64,43,130,1,24,0
2,16,54,28,1,20,2
2,4,17,49,36,1,41
58,17,14,4,22,19,24
24,70,2,149,2,29,3
2,187,171,13,0,34,0
24,6,14,47,15,3,11
7,92,2,207,26,2,39
10,33,34,17,25,21,7
15,3,9,109,3,25,0
1,2,10,73,1,24,1
17,83,8,24,47,3,20
52,67,32,2,55,2,28
8,50,2,194,4,41,1
1,4,119,34,1,4,1
1,42,11,4,1,2,1
1,61,12,48,45,51,32
47,38,9,40,10,18,25
33,4,16,56,6,14,2
2,100,66,5,0,10,1
2,172,43,164,34,11,14
4,14,3,33,46,194,32
37,5,4,71,8,28,6
21,60,35,33,1,1,2
1,210,10,25,0,30,0
2,21,14,19,21,37,25
27,15,3,133,49,30,28
8,4,37,26,4,18,3
3,42,29,40,2,24,2
2,97,53,28,2,49,2
13,8,17,21,34,5,31
21,152,3,6,13,14,22
26,16,7,165,6,51,2
4,117,16,137,3,9,2
1,14,38,56,6,26,9
75,59,11,61,46,31,45
19,53,31,5,14,18,13
1,34,4,13,4,65,1
0,38,2,8,1,32,1
24,5,9,185,7,5,25
40,164,80,26,64,17,36
5,29,26,2,5,38,4
1,2,21,61,4,41,1
14,220,2,11,2,49,4
37,20,45,52,18,11,31
22,49,53,15,35,5,20
2,8,21,25,13,91,3
1,9,14,139,1,6,1
34,51,42,28,6,1,10
67,18,55,105,54,9,36
23,15,5,30,14,37,5
2,21,8,33,3,13,1
3,132,3,124,1,26,1
29,4,32,31,22,6,24
21,2,15,64,42,22,35
1,96,4,48,9,45,4
1,55,2,66,9,11,1
27,114,6,30,4,2,0
37,13,13,116,38,41,30
4,55,97,72,17,27,27
1,81,94,97,13,4,3
1,13,12,38,1,28,0
73,43,7,146,11,3,13
22,33,90,107,28,33,30
2,11,7,10,9,36,6
0,191,9,73,7,9,2
39,11,1,19,1,2,0
50,25,84,65,48,0,23
7,9,14,5,37,59,31
2,185,33,53,10,8,4
1,8,23,112,1,54,2
27,227,8,38,29,54,2
14,195,113,88,73,5,33
14,15,2,5,12,55,24
1,3,1,76,1,11,2
2,2,38,59,15,10,1
33,31,39,51,40,59,10
18,72,7,6,18,22,36
1,4,11,324,1,8,6
1,25,2,27,2,1,1
9,53,57,6,17,4,2
54,77,110,87,24,16,23
19,6,4,21,5,55,32
1,3,0,96,3,13,2
1,5,6,11,1,3,1
31,115,22,58,44,1,1
48,8,14,47,13,13,34
7,111,7,12,3,13,18
2,34,2,25,1,10,1
0,61,9,34,48,6,1
43,16,27,140,35,2,12
28,21,50,55,9,32,36
3,23,60,130,1,84,9
2,25,3,46,2,4,1
23,34,88,53,50,50,2
35,13,26,103,20,8,23
6,240,1,104,1,64,36
3,28,0,19,9,11,4
2,9,18,105,9,1,1
20,26,19,6,56,93,1
21,2,49,35,16,17,33
1,168,3,32,3,20,25
2,76,12,193,2,2,3
0,91,56,11,35,41,2
29,38,24,11,33,27,14
20,211,3,126,21,18,36
2,43,1,82,4,1,7
0,4,81,62,11,20,1
8,24,27,91,34,54,0
30,18,4,15,6,24,24
10,14,8,72,7,1,27
1,3,25,5,2,26,2
1,46,77,34,24,14,2
23,45,10,11,36,22,2
26,106,16,71,8,5,34
2,13,71,4,1,3,27
0,2,27,13,19,88,2
0,141,4,37,34,9,1
28,38,35,24,26,32,7
26,15,1,36,4,5,49
2,26,34,104,2,32,14
0,32,77,111,5,6,0
2,19,15,39,58,30,0
50,7,18,12,8,62,20
29,49,7,17,1,4,32
2,11,33,163,1,28,4
2,97,9,6,19,29,1
26,92,4,43,41,67,1
17,11,1,21,6,15,31
3,22,61,58,1,14,25
1,2,41,150,5,25,2
2,6,3,5,36,15,1
67,109,16,78,26,28,6
14,178,15,139,5,3,40
2,19,25,7,2,37,14
1,40,19,29,5,67,1
9,73,3,111,58,7,0
10,29,5,94,11,2,20
78,41,41,6,13,8,31
7,6,18,95,8,8,4
1,1,8,22,39,34,2
54,361,3,108,39,42,0
37,43,115,4,5,19,26
4,4,69,9,0,24,24
4,4,5,24,2,15,1
21,63,1,30,19,9,1
73,108,2,22,34,15,6
5,5,55,99,10,29,41
42,210,68,26,1,75,17
2,67,9,123,29,5,1
2,25,2,39,36,2,0
35,36,115,21,4,18,17
11,77,16,26,0,34,32
1,9,77,122,0,5,5
16,28,4,9,26,90,2
49,128,22,24,21,7,2
7,4,11,245,3,4,28
0,118,73,31,1,107,26
1,26,5,3,16,9,2
3,6,2,4,49,22,1
40,2,72,27,3,77,6
26,142,43,36,1,11,36
3,9,20,28,2,13,20
2,68,23,1,26,43,2
31,55,12,177,28,20,2
34,25,37,137,2,43,18
7,4,3,138,2,9,37
2,35,1,16,2,13,5
6,82,83,82,28,62,0
18,5,33,18,49,48,1
36,141,14,17,3,10,28
4,82,12,105,1,20,32
2,11,17,21,6,38,1
0,3,45,48,50,28,1
52,8,15,14,7,45,5
23,17,2,12,2,27,34
2,5,33,68,0,3,13
1,9,56,25,11,53,2
6,170,33,9,41,52,2
19,11,1,7,4,18,21
54,11,2,12,0,2,33
6,5,65,32,1,41,6
2,1,59,72,29,12,1
65,62,13,49,36,5,1
35,24,2,19,4,23,26
3,13,2,94,1,32,25
2,37,36,11,3,103,1
16,4,20,100,34,3,1
55,119,35,18,17,20,7
8,8,2,205,1,16,32
3,1,79,171,1,20,11
3,57,20,6,7,37,1
21,35,3,33,60,4,0
44,20,0,198,6,24,21
5,4,47,17,1,9,35
2,43,23,42,1,16,4
0,16,15,142,14,63,1
48,11,2,12,41,11,1
31,88,22,4,5,36,29
2,4,24,39,2,16,23
1,59,33,42,0,2,2
12,40,6,44,35,3,1
50,16,8,4,28,1,8
46,89,93,117,3,80,42
2,6,45,7,2,19,15
13,67,5,100,1,3,2
35,99,2,9,47,4,1
40,38,1,139,24,56,18
2,38,63,70,2,90,33
0,21,65,120,2,9,4
25,18,4,35,15,11,0
47,3,6,3,46,40,0
11,1,4,46,8,88,24
2,90,98,48,2,10,25
9,120,30,102,0,2,3
54,5,1,12,23,61,0
16,1,2,31,32,39,1
4,46,35,25,5,4,36
0,121,6,4,1,6,17
25,154,2,62,2,3,2
37,4,2,53,38,16,1
5,9,1,12,13,21,17
1,117,18,14,1,7,34
2,55,79,42,0,28,6
30,11,8,89,11,4,2
33,57,1,6,57,29,2
4,150,1,78,12,38,26
2,7,21,41,1,3,29
10,3,46,2,1,38,4
34,55,4,25,42,125,0
27,58,9,42,22,23,2
3,44,14,21,3,2,33
1,71,73,2,2,45,19
55,39,73,11,17,40,2
50,155,6,203,87,123,0
4,7,1,51,15,5,18
1,26,36,8,3,2,34
5,10,3,81,1,14,3
44,36,1,31,26,12,2
11,7,1,31,20,49,1
2,25,30,19,2,2,26
1,21,41,3,2,1,22
20,105,3,216,30,51,3
43,4,18,67,47,47,3
6,3,46,4,21,5,6
0,2,42,47,3,1,37
0,55,36,82,8,9,21
25,24,51,98,5,64,1
31,4,5,18,10,14,2
2,93,1,157,5,10,17
2,9,12,6,0,10,35
7,42,21,153,17,22,7
35,4,232,5,75,3,2
23,120,19,29,15,1,1
2,35,2,33,2,2,30
0,56,1,3,9,13,26
10,6,11,31,14,49,3
55,20,25,45,21,5,1
4,15,48,99,33,8,5
1,14,5,15,2,25,33
1,14,5,82,18,22,20
31,2,11,9,68,34,1
19,5,23,42,24,3,2
3,32,9,129,18,1,16
1,29,39,5,1,3,36
6,13,2,15,68,42,4
39,8,1,119,27,7,1
22,117,24,145,1,1,1
2,31,7,113,0,2,29
0,3,4,34,24,0,33
46,30,5,16,71,31,3
10,13,1,4,10,9,1
4,64,32,17,100,11,4
1,20,71,50,3,2,36
1,3,15,37,8,15,18
31,1,1,18,19,14,2
35,5,59,9,4,3,1
3,22,40,104,2,0,15
3,3,7,32,73,1,33
1,1,0,51,20,55,5
38,4,26,16,3,33,0
16,148,5,12,1,5,0
2,11,5,131,2,2,18
0,2,12,19,101,7,30
16,0,0,2,8,21,4
44,96,6,64,3,2,2
9,43,114,40,21,1,3
2,7,11,27,27,1,34
0,3,3,9,45,2,16
31,10,1,40,8,42,3
22,118,31,34,2,33,1
2,13,28,5,9,2,13
0,1,3,3,33,1,38
0,8,2,10,34,43,6
47,124,2,22,6,31,1
25,130,23,26,16,7,0
2,6,25,1,18,1,26
2,3,2,2,36,1,25
3,3,29,102,6,46,3
40,40,94,22,5,78,0
14,11,6,18,47,18,3
1,18,1,7,30,2,39
1,32,1,9,21,1,22
28,27,6,28,2,33,2
36,16,54,4,3,14,2
4,6,16,1,25,5,11
1,3,3,0,8,1,38
14,59,1,9,11,2,5
36,6,5,51,13,1,1
10,13,31,6,2,49,0
1,3,8,1,67,140,24
1,20,0,2,15,44,27
27,40,1,19,3,4,2
42,39,33,27,1,10,2
4,25,16,3,16,14,1
2,11,49,1,42,1,35
1,20,66,2,3,0,18
39,14,6,21,30,35,0
32,3,15,10,10,89,1
3,2,3,1,28,11,15
1,12,1,0,3,4,34
18,26,1,3,1,37,4
35,53,8,71,0,91,1
9,4,56,30,29,8,1
1,53,12,0,40,14,21
2,20,1,2,13,14,27
18,24,0,25,1,3,3
26,3,14,22,0,0,1
5,22,41,17,33,1,2
1,65,7,4,15,49,36
1,4,1,109,28,24,18
36,20,0,14,15,2,1
49,9,0,1,43,23,1
6,8,56,1,11,4,19
2,16,46,6,3,9,41
27,6,5,6,0,18,5
38,1,2,1,13,1,0
7,2,0,35,38,0,3
1,16,57,6,6,24,20
2,34,54,87,1,47,25
26,4,4,9,14,58,2
35,2,12,1,34,4,0
3,6,20,5,7,2,5
1,23,7,3,8,30,34
6,12,1,57,2,24,20
34,0,2,15,21,2,0
17,6,16,15,40,0,1
2,63,7,1,6,0,10
0,7,2,1,4,25,33
9,3,1,16,0,16,5
46,8,2,47,24,1,1
17,1,1,11,26,2,1
2,24,50,0,16,8,16
0,46,45,14,1,72,29
21,4,4,39,4,9,2
39,3,6,7,51,2,2
5,46,87,2,30,5,3
2,26,37,2,2,43,40
1,14,3,17,2,29,25
42,2,1,20,9,4,2
10,2,16,2,79,2,1
1,19,38,1,31,0,13
1,24,8,0,2,53,32
13,4,2,50,1,20,6
42,24,0,8,51,2,1
9,4,38,1,18,0,0
2,40,62,0,4,0,28
1,12,7,2,2,26,31
39,2,2,56,17,15,3
28,0,12,6,31,44,0
4,28,165,9,8,18,1
2,87,15,1,2,12,36
4,15,2,5,0,5,21
33,28,2,25,17,0,3
22,46,21,25,29,1,2
2,28,17,3,4,0,10
2,4,3,0,2,24,30
5,1,13,1,1,30,5
35,7,22,29,42,3,1
13,37,34,10,19,0,2
1,33,7,2,6,7,24
3,5,2,0,1,30,28
21,2,2,10,0,14,5
28,39,19,28,54,2,0
4,42,18,5,23,1,3
1,17,0,0,3,5,34
6,4,1,2,1,9,23
36,10,0,30,2,3,1
29,25,28,13,11,1,1
2,11,32,1,29,3,10
2,2,2,1,6,17,34
19,1,1,1,2,17,7
23,22,12,34,19,1,0
6,32,36,15,22,1,1
1,2,6,2,5,1,22
0,1,1,2,0,13,31
36,1,0,5,7,70,4
33,38,30,29,65,12,2
6,24,22,45,24,1,2
2,66,2,2,1,0,29
2,5,1,10,3,28,16
39,16,12,34,30,8,1
50,28,30,25,67,2,0
3,6,18,3,8,0,12
1,3,2,0,2,15,35
11,2,2,11,0,5,7
40,38,7,23,48,9,2
11,19,17,37,20,1,0
0,3,3,6,2,1,20
2,20,2,9,4,13,30
31,26,2,32,2,29,3
34,33,37,11,68,12,2
2,3,23,2,25,2,2
0,0,3,0,7,1,32
11,7,6,6,2,31,27
56,39,12,52,15,20,2
5,13,28,44,44,2,2
1,1,5,4,14,0,7
0,12,2,12,0,17,42
25,45,1,20,7,24,11
32,22,14,17,42,11,1
6,7,27,8,6,1,1
1,1,3,1,1,26,20
0,11,1,1,2,59,29
62,46,2,37,9,8,4
15,13,45,27,33,2,0
2,1,25,3,10,1,2
2,1,3,2,1,32,33
11,21,7,26,1,18,27
35,40,4,27,18,5,2
18,2,30,1,36,2,1
2,3,14,1,4,0,10
2,22,2,4,2,17,40
38,13,0,52,2,17,8
29,8,17,16,31,2,1
2,6,37,2,37,0,1
0,24,5,3,4,7,28
12,14,1,8,1,28,27
31,19,0,31,6,4,3
8,3,14,5,48,0,0
2,0,31,2,19,1,0
0,1,2,2,2,2,22
18,41,2,19,0,33,24
27,60,13,42,17,4,2
5,5,39,3,34,13,0
0,9,11,14,29,2,8
0,24,1,1,2,0,38
55,73,2,28,2,43,16
20,5,15,20,62,11,2
3,2,80,2,11,0,2
1,1,17,2,3,1,26
11,29,1,14,0,15,32
43,33,12,48,18,23,4
9,12,47,3,35,2,2
3,13,4,1,11,1,1
6,22,0,1,1,14,26
10,23,0,15,2,47,33
12,5,12,26,35,5,4
3,0,82,8,28,1,0
3,1,7,2,1,1,7
2,45,2,0,0,3,41
29,12,8,44,23,11,12
26,1,49,9,64,5,1
2,0,5,1,8,0,0
1,16,2,0,2,1,20
12,18,0,5,2,15,32
41,7,8,28,42,32,2
11,2,46,29,24,2,0
1,43,19,4,2,2,4
0,22,1,1,0,1,30
35,13,2,19,15,1,21
25,2,17,32,80,22,2
2,31,33,5,15,5,0
1,5,6,1,1,8,6
3,22,2,0,1,5,39
41,13,2,57,0,4,14
22,2,60,14,23,5,2
1,10,45,3,28,2,2
0,20,4,1,2,0,21
26,16,1,1,3,2,34
21,3,1,24,64,2,5
5,0,32,18,23,0,2
1,34,23,2,2,33,2
1,42,2,2,1,20,31
29,6,0,8,4,2,27
26,3,15,34,49,7,3
3,16,32,15,6,15,1
1,23,8,2,0,17,5
18,4,2,1,4,1,39
34,0,7,20,8,0,15
11,13,53,20,25,4,1
2,15,16,2,16,3,0
2,55,4,0,2,14,16
30,6,0,2,1,7,28
37,3,0,38,3,1,2
3,44,39,11,19,19,1
1,12,24,1,44,11,0
3,12,2,2,4,3,27
41,1,9,12,2,1,25
17,1,39,32,44,9,2
1,1,24,10,40,26,0
2,13,4,2,5,8,8
8,70,1,2,1,2,39
47,5,1,42,21,1,15
9,19,26,14,35,5,1
1,73,21,1,2,33,0
1,7,4,2,1,26,17
23,4,3,7,0,2,32
39,2,16,37,34,0,3
7,2,21,15,33,1,2
2,40,33,2,2,63,1
2,14,3,0,1,27,28
11,16,0,11,0,3,28
35,1,34,56,54,13,1
5,39,47,6,15,25,1
1,26,5,4,2,8,6
13,4,1,0,2,2,40
36,1,0,39,2,9,21
16,17,40,10,41,1,1
2,31,33,4,18,0,0
0,7,3,2,2,11,25
24,1,2,6,0,2,29
26,3,8,29,72,1,3
3,113,38,11,90,8,2
2,6,8,1,7,13,0
2,3,2,1,1,10,27
45,0,47,32,2,1,24
19,0,37,12,28,1,2
1,40,20,9,13,7,1
0,10,3,1,3,25,2
15,1,1,2,0,15,34
29,3,2,29,16,2,16
4,8,34,18,36,1,4
1,24,20,1,8,1,0
1,20,3,4,2,7,17
18,2,1,6,1,17,35
36,2,5,18,19,3,4
4,56,19,18,33,1,0
2,13,20,1,5,37,0
1,9,1,1,0,15,27
73,2,2,8,1,2,26
6,0,18,31,33,2,1
4,28,25,11,18,0,0
1,29,6,2,1,17,5
8,4,0,0,1,6,41
32,5,0,29,11,2,18
25,2,23,23,41,16,1
4,70,10,4,10,22,2
0,19,0,2,0,18,10
17,2,2,7,2,1,33
36,0,13,55,33,1,4
9,6,31,5,46,1,0
2,32,7,3,5,7,0
2,10,2,1,1,18,31
44,0,0,10,11,6,26
29,6,41,18,21,1,3
3,26,72,17,2,1,2
1,71,9,1,0,15,2
13,13,2,6,0,43,36
30,5,9,21,25,3,22
10,2,32,21,61,3,2
1,46,15,2,5,1,2
0,6,1,2,2,32,18
22,1,0,5,1,14,31
28,0,22,36,30,2,5
4,20,56,16,27,1,1
0,27,5,2,1,4,0
0,5,1,1,1,44,27
38,0,8,13,2,19,31
31,2,19,39,33,1,3
4,28,26,10,6,1,2
0,18,5,2,0,18,5
19,1,1,3,1,14,32
32,3,1,26,9,3,22
10,21,22,22,47,2,3
1,29,3,4,9,2,1
5,11,3,6,3,43,18
35,1,1,6,8,8,36
23,2,1,14,17,1,4
2,42,31,16,42,4,2
0,14,46,2,13,2,0
11,6,3,2,3,17,26
34,2,2,23,1,4,29
5,2,4,20,14,3,4
2,41,35,3,31,1,0
1,37,40,0,2,0,3
24,2,3,9,1,25,34
18,2,1,36,10,13,21
2,40,27,14,38,1,2
2,29,40,2,13,0,0
3,3,8,1,1,12,15
37,0,2,5,9,26,35
22,10,6,42,43,4,4
2,9,45,11,13,1,2
1,14,25,0,2,1,2
6,7,1,2,1,5,21
46,1,2,25,4,3,19
5,28,0,30,28,2,2
1,42,40,2,4,13,0
2,4,31,1,0,6,3
1,1,3,6,0,26,38
42,2,0,40,18,16,21
15,9,33,19,58,3,2
1,18,30,2,4,2,0
1,4,1,0,2,27,14
20,0,2,10,1,25,33
33,2,1,43,19,4,6
3,15,48,3,38,2,2
0,43,53,1,3,0,1
3,3,5,2,0,6,26
44,2,1,15,2,21,29
16,5,4,35,15,19,4
3,23,24,2,45,1,1
3,19,2,2,22,1,2
1,7,2,1,2,22,32
51,1,1,38,8,20,22
20,1,2,15,35,2,2
1,54,33,2,9,1,1
1,8,18,2,1,28,13
36,2,1,12,0,21,36
39,12,1,24,35,4,5
2,15,13,4,44,0,1
2,20,23,2,4,0,1
2,17,1,0,1,3,24
36,1,0,24,0,0,31
25,6,2,18,29,20,3
2,60,48,2,17,25,1
2,15,55,2,2,2,2
7,2,4,5,2,20,35
42,2,2,29,1,25,20
16,23,8,15,53,4,1
0,23,2,2,35,2,0
1,2,40,0,3,1,12
17,0,24,15,1,22,37
39,1,3,33,8,16,5
5,35,23,4,46,1,1
1,17,28,0,9,1,1
1,3,10,0,2,3,22
28,1,0,10,2,46,33
21,1,1,35,18,13,3
1,31,30,9,33,1,1
0,22,22,2,7,2,3
14,3,1,2,1,11,33
39,1,1,23,0,67,21
6,3,33,45,21,10,1
1,27,19,6,22,1,0
3,8,5,1,2,4,3
1,1,2,18,1,26,34
36,1,1,54,7,4,11
13,16,27,8,39,0,2
2,40,17,3,10,0,1
1,7,4,1,0,3,21
50,1,0,22,1,35,34
14,1,1,24,16,7,4
1,47,52,5,13,4,2
1,22,12,0,4,5,2
6,1,0,3,2,7,35
41,2,2,39,1,18,21
7,9,26,16,17,7,3
1,70,21,1,4,1,1
2,6,2,1,5,2,11
17,2,0,6,28,1,34
29,0,2,39,2,12,7
7,2,34,30,30,12,1
1,56,42,4,7,1,1
1,24,2,1,1,8,24
24,2,2,13,1,10,23
39,0,1,19,6,13,2
3,19,40,3,38,2,2
1,42,22,1,22,0,7
11,4,2,3,2,5,36
40,4,0,24,0,27,20
31,2,25,22,9,13,0
3,45,116,3,39,2,2
1,14,11,2,8,0,6
19,5,0,8,1,18,42
37,1,13,39,0,33,13
3,8,31,15,6,3,1
1,28,6,1,43,0,2
0,13,1,1,9,2,24
37,1,1,15,1,17,28
24,2,30,32,1,21,4
3,12,23,4,14,3,0
1,31,3,1,40,0,2
2,5,2,1,5,38,33
38,1,14,38,2,49,24
15,2,34,13,0,9,3
2,49,13,0,23,3,0
0,10,2,1,28,1,12
31,9,2,1,3,0,34
16,2,31,41,0,33,5
2,11,43,15,1,46,1
0,39,6,2,40,4,2
2,18,1,0,21,0,19
32,4,3,28,1,2,31
29,1,33,35,2,13,6
2,24,6,4,2,11,0
1,25,0,2,51,1,2
16,2,2,1,46,1,31
39,2,1,30,3,24,21
10,4,35,30,1,6,1
1,25,34,4,28,2,1
1,37,2,1,30,0,13
33,2,1,19,2,2,37
29,2,14,20,1,6,4
2,22,8,4,2,6,2
1,29,1,1,36,3,1
8,9,3,0,25,9,23
35,3,16,52,1,3,31
14,1,16,13,1,2,3
1,28,12,1,16,15,0
2,30,2,1,61,3,2
27,3,1,15,6,1,32
20,2,5,12,1,1,30
7,18,51,24,2,5,2
0,24,20,5,23,13,0
2,1,2,1,21,20,9
36,1,0,14,1,3,38
27,2,5,41,2,2,10
3,26,24,3,9,19,2
1,25,36,0,34,26,0
7,5,4,1,28,3,26
46,1,1,29,3,1,31
15,1,37,26,1,22,3
0,24,18,2,4,29,1
1,13,2,2,47,1,0
25,2,2,3,13,6,29
31,1,2,49,2,20,23
4,1,30,9,0,9,3
1,41,16,2,18,7,0
2,15,3,2,3,7,11
29,1,1,1,3,2,29
36,0,2,38,1,2,6
5,16,30,41,2,19,2
2,26,8,2,30,14,0
9,3,2,1,23,1,24
53,1,1,19,1,0,29
8,6,19,21,1,2,3
2,4,9,4,0,25,1
1,30,16,1,26,25,0
7,2,7,1,24,2,32
39,27,3,26,4,0,24
14,1,7,16,1,5,2
0,48,53,1,1,59,1
0,32,10,2,37,25,9
23,3,1,2,12,2,41
33,2,1,31,1,0,13
8,20,9,8,9,10,1
2,9,45,1,22,40,1
2,8,15,12,26,7,25
29,2,2,3,2,2,32
26,2,1,30,1,2,4
3,15,27,12,2,12,2
0,37,22,0,29,3,2
3,3,2,0,10,2,35
39,2,2,42,0,0,20
17,0,16,8,13,0,2
2,26,28,3,41,27,1
0,30,3,1,23,17,7
18,2,1,0,2,10,35
36,1,1,16,1,0,15
9,23,14,32,1,2,2
1,57,27,5,37,2,1
3,22,7,1,10,18,20
37,1,1,28,1,13,35
17,0,29,24,1,2,3
2,13,23,13,1,14,1
0,71,4,3,28,3,0
1,4,1,2,24,1,30
42,1,3,23,2,0,23
26,2,8,26,2,45,2
1,29,42,3,7,12,2
2,24,3,2,29,11,10
33,2,1,1,6,8,36
32,2,2,41,2,1,7
6,15,19,10,1,8,1
2,27,18,1,13,32,1
2,5,1,1,17,6,24
5,1,2,8,4,2,30
36,0,0,41,3,1,4
7,17,13,5,1,14,0
1,30,39,0,22,13,1
2,7,3,1,43,4,28
27,2,1,8,3,0,23
26,0,4,50,0,1,2
2,35,33,4,20,3,2
1,6,13,0,62,5,9
5,2,1,1,6,20,38
46,1,0,26,0,1,12
23,8,24,27,1,1,1
2,42,43,3,4,29,0
2,16,8,1,34,30,23
16,1,1,2,8,4,32
36,7,2,27,1,0,3
5,1,22,48,0,1,0
3,12,10,9,10,45,1
1,29,3,2,27,6,25
34,2,0,2,5,1,25
30,0,36,36,2,1,2
2,11,72,21,0,4,0
2,31,9,2,31,28,7
2,6,3,8,4,3,47
42,2,2,4,2,2,14
15,9,17,33,10,10,3
1,27,31,15,18,41,1
2,14,5,2,56,5,22
14,1,1,2,5,3,32
31,1,1,26,1,3,2
5,23,39,22,1,2,1
2,36,16,14,2,5,1
1,5,0,1,36,22,29
32,2,10,2,3,5,27
33,2,4,42,2,0,2
3,45,21,9,0,1,1
0,29,14,2,16,0,6
0,6,0,0,36,28,32
26,1,1,24,3,35,15
14,7,25,16,1,4,2
2,57,29,13,0,2,1
1,19,4,3,26,42,18
7,3,1,5,18,16,31
47,1,4,30,1,4,5
12,18,39,35,2,1,1
1,31,3,4,4,18,1
1,5,2,2,25,24,30
28,2,5,28,8,4,25
31,2,6,24,0,2,2
2,41,39,7,4,1,2
1,27,15,1,41,7,8
6,3,0,6,35,55,30
46,2,1,12,2,8,18
24,7,56,40,1,1,1
3,50,18,3,0,1,0
0,12,4,2,7,9,21
18,1,2,2,27,35,34
45,9,1,11,5,13,4
7,2,7,22,2,2,1
1,35,8,6,2,3,1
1,10,8,1,41,33,29
21,1,5,2,63,34,21
23,1,1,42,5,3,1
2,16,22,18,1,0,1
0,40,21,5,1,15,3
3,18,2,2,39,14,36
38,3,1,15,19,13,18
16,1,0,33,3,0,1
2,46,26,6,1,0,0
1,22,5,0,4,4,17
0,3,5,0,35,42,33
42,1,1,32,9,9,3
13,16,0,25,1,1,1
2,26,43,3,0,2,1
1,5,29,0,49,15,33
12,2,5,4,47,9,26
31,3,0,36,4,3,1
2,8,2,24,1,1,1
0,25,20,1,2,3,8
2,3,21,1,4,23,40
43,1,2,46,45,11,15
24,1,2,10,8,1,1
1,34,0,11,1,0,2
0,22,30,2,1,1,17
21,1,7,34,14,15,37
39,1,2,10,35,35,4
6,16,0,2,3,2,2
0,30,28,1,2,2,1
1,2,40,1,2,12,28
4,1,3,18,49,18,24
38,11,1,32,15,32,2
7,33,0,3,2,4,0
1,12,25,0,0,1,4
3,2,9,1,1,44,34
25,1,2,18,48,6,17
28,18,12,11,23,2,2
3,14,4,6,3,2,1
0,9,11,1,2,1,14
15,5,18,21,13,26,36
15,1,1,22,58,22,5
8,32,0,20,6,2,1
0,37,6,2,2,1,1
2,8,38,1,0,13,29
17,1,9,34,18,25,30
42,2,1,24,48,4,3
9,35,0,2,8,2,0
2,46,7,1,1,2,3
3,4,20,24,0,0,37
41,3,6,23,34,27,15
24,11,1,9,11,10,2
3,46,0,1,0,2,0
2,8,4,6,1,1,13
1,1,34,5,6,20,34
33,1,22,25,15,44,4
15,3,2,16,23,4,0
2,60,0,1,2,1,0
0,8,12,0,1,0,26
20,1,28,22,46,41,28
43,2,6,28,21,71,4
20,10,1,4,1,6,3
1,43,1,2,1,1,2
5,10,44,0,2,6,36
32,3,14,30,42,10,23
20,16,2,22,11,2,3
1,43,3,1,2,2,0
2,4,10,2,0,1,13
11,2,10,25,18,19,35
35,1,4,22,62,12,6
4,39,2,10,4,3,0
0,19,0,2,2,1,2
11,3,16,2,0,0,25
28,1,11,32,15,3,29
52,7,1,6,26,24,3
151,29,0,1,4,19,1
6,15,1,0,2,2,4
3,3,50,0,1,0,42
13,1,12,36,9,11,19
17,2,0,19,19,4,2
2,48,1,1,6,0,1
24,6,8,0,2,6,12
188,0,12,36,0,12,37
26,0,17,19,32,27,6
8,0,3,11,40,3,1
16,84,2,1,3,1,1
1,77,37,1,1,3,25
0,11,62,48,5,16,28
101,17,4,12,62,27,2
80,85,1,1,45,3,2
33,11,2,0,3,1,3
12,2,0,12,2,9,31
0,0,24,30,10,33,20
44,7,3,6,24,3,2
56,46,2,2,3,2,0
5,7,24,1,1,0,17
9,3,31,18,3,3,36
12,1,8,22,57,39,5
1,18,2,6,11,7,0
17,28,2,4,2,0,0
86,2,12,1,2,2,30
20,2,39,35,4,0,33
35,0,15,13,40,2,4
11,53,2,10,11,24,0
4,23,12,5,3,6,3
4,1,59,12,15,2,34
0,0,10,27,35,2,20
0,24,2,5,14,27,2
76,33,2,2,1,10,1
140,10,27,1,1,2,12
8,2,33,24,1,1,34
76,1,6,15,25,16,3
60,50,2,1,13,10,1
8,36,1,2,3,5,1
1,4,3,9,0,2,16
2,1,37,41,10,14,26
3,18,9,14,27,38,3
108,9,2,1,3,9,1
42,48,46,2,0,1,0
25,23,76,23,0,0,38
3,5,13,18,19,1,17
68,5,19,4,17,11,2
15,120,95,2,1,9,0
1,14,33,3,1,1,12
18,0,5,32,10,1,34
27,146,1,21,42,1,6
12,71,2,7,6,26,1
21,5,6,2,1,68,1
1,3,23,28,2,6,27
27,0,25,18,70,2,28
31,71,1,3,36,6,3
3,192,2,1,2,46,1
1,14,86,2,2,18,1
48,10,40,27,9,2,33
31,75,31,63,47,1,23
156,19,3,6,12,4,4
23,39,11,1,2,35,0
10,0,29,7,6,4,20
64,171,14,36,13,1,38
17,160,46,9,39,1,5
1,6,18,2,6,3,2
18,1,48,0,1,38,2
51,87,20,3,0,29,24
15,176,14,38,16,11,30
2,8,37,11,28,6,3
36,3,116,1,3,18,2
54,157,3,0,2,3,1
28,38,17,13,2,1,29
1,3,2,50,20,3,23
23,26,69,4,15,29,3
104,89,5,1,1,15,1
114,17,41,0,0,4,11
14,3,5,24,19,3,39
1,90,1,10,79,2,5
63,92,51,22,7,15,1
19,6,45,2,1,34,0
84,9,6,15,1,4,22
26,17,3,28,9,2,31
20,47,45,8,24,2,3
1,51,18,2,2,16,1
12,125,3,2,0,9,2
25,5,2,15,1,3,31
42,401,19,37,8,1,22
35,51,14,4,54,1,2
82,97,15,1,9,20,2
10,13,19,12,3,15,11
36,400,3,27,2,2,33
15,204,7,52,22,1,5
16,6,143,4,25,15,0
4,57,10,1,3,45,1
6,296,14,2,1,12,25
27,126,106,17,0,8,33
4,91,9,5,6,2,3
24,6,4,1,28,9,0
20,25,73,0,21,30,2
19,38,109,10,2,9,27
40,246,9,18,1,2,26
54,21,2,4,63,1,1
5,108,168,1,37,25,2
17,548,131,10,2,10,10
23,52,202,35,1,1,41
10,42,15,3,37,1,7
2,275,62,1,182,4,2
89,59,26,0,6,27,0
18,36,7,1,22,7,15
45,37,19,50,30,1,32
9,437,58,13,200,2,2
24,18,4,1,11,4,0
6,234,63,2,2,26,3
44,229,7,17,120,7,36
11,35,109,28,44,1,25
2,54,63,6,34,1,2
31,450,21,1,49,1,1
8,533,10,0,18,42,9
38,22,64,22,28,26,45
21,170,4,40,12,1,13
6,31,73,3,17,6,1
35,176,32,1,4,35,1
19,96,7,4,117,27,21
2,36,130,44,82,3,33
2,39,13,27,12,1,2
89,18,35,2,29,1,1
65,117,61,2,54,21,2
4,221,9,12,5,5,30
1,23,136,24,16,2,30
6,130,34,6,1,1,3
31,32,3,1,23,7,0
78,64,2,2,30,2,11
5,76,65,36,7,19,36
42,5,23,8,12,22,6
14,282,16,2,29,3,3
54,111,63,0,18,1,1
12,45,4,8,2,32,21
2,83,49,19,30,13,31
36,25,29,14,9,1,4
53,396,119,5,63,1,2
6,44,4,1,10,3,0
15,11,183,36,6,14,29
16,180,8,13,26,12,26
21,31,16,4,51,1,1
13,3,85,1,33,1,1
5,0,110,0,3,46,6
3,34,51,42,11,39,38
43,263,136,23,15,5,13
7,24,44,4,61,1,2
16,8,17,2,13,5,0
5,239,1,2,5,14,22
1,43,47,48,22,11,34
32,205,3,14,82,1,3
61,23,155,2,5,1,1
24,201,42,1,11,4,1
2,83,4,9,6,2,27
46,182,1,34,72,21,22
63,164,60,6,24,8,2
6,63,198,8,2,0,1
27,19,6,0,3,5,15
47,42,6,18,24,11,34
10,68,74,44,48,5,5
22,332,27,5,19,1,1
44,64,1,0,30,0,0
11,6,7,1,14,7,20
25,37,61,2,29,38,33
11,79,9,35,9,9,6
2,112,125,10,36,1,0
0,162,14,2,28,2,2
1,314,8,0,22,21,32
60,28,58,37,40,13,22
44,68,27,16,9,1,1
2,12,4,7,8,1,1
1,152,2,2,10,5,6
15,23,109,12,49,62,40
30,5,172,3,9,35,15
4,210,54,5,1,2,2
2,80,22,2,9,2,2
6,127,34,0,40,2,19
59,16,106,7,31,16,37
35,87,43,2,7,33,5
4,121,94,44,4,4,1
2,54,56,6,38,2,1
13,4,5,1,48,10,29
45,280,3,3,8,24,22
9,31,67,58,1,2,4
1,299,47,84,20,1,1
25,287,58,6,52,6,6
61,16,16,23,38,30,40
11,263,97,2,7,23,14
4,79,24,81,2,6,1
1,23,29,87,26,1,0
69,305,51,7,42,26,22
35,29,3,119,6,35,33
9,8,147,197,25,20,4
3,223,28,355,24,2,2
3,67,5,83,46,6,1
31,5,55,69,10,59,32
11,2,115,9,47,9,20
4,45,51,3,72,6,3
7,354,107,1,28,10,1
21,54,9,88,44,38,8
32,8,166,32,3,136,44
4,338,143,5,20,16,16
28,21,6,1,18,19,1
3,244,77,2,58,1,0
57,23,150,2,4,67,20
24,260,12,34,10,110,38
22,171,28,136,12,3,4
1,6,16,14,53,46,1
8,55,119,3,6,60,0
48,15,22,61,2,89,34
13,468,48,10,34,36,18
1,32,76,3,32,36,2
15,92,71,131,24,97,0
47,237,19,35,1,12,11
10,46,2,104,46,3,34
0,47,73,62,19,22,7
33,185,21,4,7,179,2
13,202,5,59,4,69,1
39,68,1,43,22,6,17
2,6,37,33,37,51,34
0,336,58,66,35,39,5
15,58,9,82,7,27,2
37,140,2,142,6,9,0
22,152,82,5,14,5,25
3,6,35,2,100,75,25
42,20,7,15,18,55,2
61,86,122,59,3,13,2
13,206,13,17,22,25,3
2,49,2,250,52,233,43
1,25,87,58,11,9,15
0,22,54,35,0,55,2
80,144,29,6,29,60,1
22,124,25,72,54,3,18
1,4,13,130,30,233,36
32,205,60,69,2,29,6
16,108,8,211,1,14,1
46,24,28,49,11,37,1
21,159,95,4,86,202,27
6,27,26,217,14,22,26
36,246,16,7,7,102,2
8,18,95,32,19,119,0
8,279,18,249,8,203,5
3,174,56,37,45,13,41
1,23,6,342,39,384,17
58,0,64,231,2,191,2
24,185,52,28,27,6,0
1,21,36,3,22,54,18
1,413,63,107,30,57,35
12,34,13,16,5,471,4
18,123,33,89,4,26,1
11,62,31,56,33,126,2
6,86,6,20,23,136,31
2,55,2,5,1,24,31
56,222,1,130,1,190,3
34,50,157,112,30,47,0
3,182,30,365,65,367,5
0,387,5,15,8,63,37
9,169,90,46,2,31,15
45,23,40,118,1,214,1
6,83,76,406,2,61,0
15,75,2,37,48,95,19
5,20,57,4,9,105,31
30,32,21,36,11,77,4
33,46,65,530,1,173,2
7,4,12,27,58,4,1
2,162,2,184,27,89,27
2,41,16,6,6,185,31
44,103,35,146,2,7,2
46,206,11,273,32,6,2
8,49,39,117,34,170,5
1,143,48,13,18,107,34
0,52,56,93,0,34,23
47,28,80,31,6,406,2
22,242,11,4,42,230,0
3,20,20,332,13,162,8
28,62,66,81,4,7,36
37,278,18,11,12,8,9
33,25,18,32,54,91,1
2,34,27,264,33,122,1
2,236,221,33,13,5,13
9,17,16,114,2,38,34
91,87,6,170,9,50,4
16,136,146,111,60,77,0
8,15,4,129,39,125,1
3,141,73,7,3,19,22
22,11,5,83,3,149,28
63,226,1,28,27,93,3
15,12,120,74,45,243,1
1,54,35,119,12,16,2
15,159,17,180,5,68,35
28,22,6,251,26,63,23
10,20,133,11,61,3,2
1,13,11,103,11,96,0
8,124,85,75,1,110,14
46,146,49,66,21,23,34
20,57,169,6,73,26,4
2,60,6,100,25,47,2
1,2,17,33,3,165,2
19,244,3,59,2,15,32
34,90,33,82,47,78,24
22,37,17,181,38,132,3
2,129,20,8,2,95,1
3,65,4,147,2,24,4
29,72,5,109,6,79,37
71,9,45,163,58,208,22
5,73,52,9,31,22,2
2,121,5,33,3,105,0
5,4,78,22,2,21,25
26,1,12,217,5,139,25
27,239,105,21,78,49,5
9,19,156,80,22,65,0
1,71,10,245,1,63,2
22,6,126,23,2,134,24
54,86,6,32,10,32,29
14,188,73,115,27,155,2
0,22,86,221,27,89,0
1,154,65,114,2,170,2
52,46,18,194,30,100,38
57,47,10,234,33,96,22
3,7,115,92,7,5,3
1,71,55,138,1,45,2
51,85,5,107,1,3,13
25,62,0,166,38,178,36
23,8,66,55,30,139,5
1,158,75,26,14,19,2
25,191,88,256,12,30,2
31,29,5,18,46,56,31
2,166,10,264,11,47,27
2,114,27,10,7,83,3
17,97,16,117,2,17,1
53,7,119,91,53,69,2
39,6,27,26,45,74,36
2,82,17,66,20,95,20
1,127,106,31,10,5,1
22,107,4,85,11,183,0
28,5,61,55,35,15,9
4,25,19,183,19,37,41
3,74,89,125,7,3,11
2,11,17,13,1,100,2
13,48,2,76,19,69,2
38,434,52,11,52,42,21
4,18,7,168,6,39,30
0,2,7,10,1,94,3
4,7,1,29,8,25,1
44,77,60,136,57,106,3
9,183,120,19,25,20,31
16,11,5,9,4,34,22
1,236,3,88,1,89,3
5,48,61,40,18,58,1
25,130,69,26,53,22,13
52,18,66,35,5,19,34
5,4,59,168,1,65,6
0,173,33,80,1,7,1
31,395,22,50,40,60,1
28,22,13,160,45,139,27
15,8,2,193,4,113,35
1,184,2,75,1,11,2
20,12,9,22,0,4,1
82,85,59,140,33,89,0
12,89,4,22,14,49,34
1,26,1,44,3,8,24
1,39,33,25,1,15,1
40,149,15,49,16,26,0
60,104,34,69,43,125,10
10,115,8,111,7,19,39
1,160,35,187,2,47,6
40,191,73,43,2,12,1
69,57,29,56,39,99,0
11,84,8,27,33,89,22
2,5,2,85,6,63,29
2,1,78,47,2,72,4
73,122,30,27,27,12,2
25,93,31,14,23,2,0
3,12,2,47,16,49,32
2,113,1,38,2,38,22
41,74,150,22,29,48,2
40,82,24,36,54,6,0
8,102,11,65,22,11,14
3,15,2,167,2,19,39
7,145,187,93,1,21,6
65,5,28,80,16,34,1
24,59,7,30,56,6,1
7,93,2,176,12,57,25
2,10,39,31,2,52,30
21,115,40,122,11,84,3
12,50,41,204,44,11,2
16,228,3,7,6,49,3
5,18,1,322,6,116,28
2,127,39,14,1,77,22
5,25,37,60,9,5,2
3,63,29,210,75,290,1
31,19,10,8,11,102,12
7,58,6,34,1,4,41
2,5,67,276,1,99,6
30,69,11,55,27,8,0
40,74,3,147,20,46,1
24,25,1,10,2,69,23
1,253,47,122,9,10,33
66,47,33,46,2,50,2
84,72,24,32,36,11,0
5,4,4,173,14,20,2
2,126,42,69,3,30,36
2,77,24,53,4,69,25
26,6,6,4,16,31,3
41,6,1,67,34,38,0
5,16,6,6,18,19,10
18,70,111,203,1,8,39
35,37,18,13,1,78,6
18,2,1,6,20,15,1
8,8,33,228,46,29,1
1,48,52,78,7,13,22
17,29,21,41,2,180,33
32,251,45,43,8,64,3
38,10,3,156,32,33,1
3,104,131,11,15,51,2
1,71,4,2,1,81,32
26,60,23,132,1,99,24
23,5,10,18,16,13,3
8,138,19,278,44,67,0
1,25,41,22,6,19,12
0,31,9,61,1,36,37
62,7,1,31,2,3,7
6,131,60,101,17,38,1
13,22,74,5,53,55,2
4,4,17,12,5,33,25
9,61,4,107,1,29,30
43,85,5,51,11,85,4
33,10,12,66,51,10,1
2,205,84,5,11,16,3
0,30,10,14,1,81,31
50,285,17,159,10,6,17
41,30,29,45,31,53,2
2,18,33,43,11,47,2
1,161,12,91,8,6,8
1,8,27,106,1,3,42
67,74,15,37,28,34,13
9,78,49,24,28,22,1
17,11,9,40,3,29,0
2,17,5,22,2,7,24
10,15,7,339,4,35,33
23,6,113,14,21,33,3
12,6,6,100,33,16,1
2,202,21,60,4,50,1
8,8,2,75,0,67,32
4,133,3,64,2,6,23
10,85,91,37,55,118,2
4,37,12,4,11,6,2
15,95,14,96,5,1,8
6,37,3,46,0,42,44
81,165,29,69,24,102,10
9,23,35,13,59,79,1
3,90,5,37,4,5,1
0,141,3,31,0,2,19
86,8,26,7,10,77,37
26,94,71,182,65,26,6
19,36,21,106,9,18,1
1,125,15,94,3,6,1
13,35,17,14,0,76,32
90,103,61,85,15,18,24
8,5,34,50,49,42,3
1,2,2,71,8,11,1
19,6,81,51,2,132,10
31,176,96,5,0,24,36
10,225,7,25,29,12,8
5,16,1,258,40,1,2
2,173,11,173,12,25,1
0,106,25,15,3,23,17
25,5,23,9,1,5,30
32,18,24,170,58,41,3
8,48,22,86,17,35,1
2,5,1,9,0,14,0
10,62,21,113,1,42,31
49,61,16,6,27,12,26
20,6,2,187,45,8,2
3,14,40,50,13,17,2
1,78,10,291,1,58,9
11,12,47,22,30,5,38
36,256,3,104,43,4,12
5,74,1,44,24,33,2
1,26,3,46,2,73,0
14,1,26,20,3,12,18
35,72,25,16,27,151,36
28,92,7,49,16,9,4
12,16,53,204,2,34,2
3,111,10,17,1,3,1
40,6,18,38,1,21,35
7,93,5,19,45,4,27
2,26,1,61,20,18,1
2,2,32,3,2,42,1
5,20,147,78,0,3,8
41,136,80,175,22,0,39
6,36,5,85,53,63,14
1,26,109,37,13,6,1
12,6,14,9,1,42,0
25,58,5,121,17,13,18
12,158,14,150,29,89,35
2,18,13,24,23,39,4
1,68,29,18,3,52,2
4,15,5,124,0,10,1
24,1,18,6,14,17,27
16,294,15,269,60,65,29
2,19,75,23,4,57,2
17,50,9,56,1,14,0
4,39,3,11,16,8,5
19,19,1,14,27,71,38
33,72,55,108,13,12,15
3,43,63,65,1,3,1
3,112,6,32,1,33,1
46,35,1,22,34,41,19
31,64,123,82,22,18,34
5,38,8,102,8,76,3
1,26,22,27,1,73,0
21,14,29,104,1,26,3
5,41,2,9,41,6,29
1,53,38,162,17,2,25
12,40,32,20,3,5,3
3,93,3,2,1,24,1
55,255,3,175,22,45,8
50,15,40,56,38,55,46
7,14,28,70,10,23,19
1,37,1,6,2,99,2
2,136,2,87,2,15,2
4,76,24,166,56,7,17
75,131,67,57,12,5,34
12,3,63,36,3,4,4
2,92,10,2,10,22,0
6,16,48,62,16,58,1
58,146,25,36,22,7,30
7,30,6,80,6,24,28
21,49,0,29,1,69,1
2,17,3,293,20,8,1
47,43,44,20,38,30,6
68,20,74,97,22,94,39
10,201,11,111,1,6,18
4,97,3,37,1,48,2
28,22,1,6,44,5,2
34,93,51,215,28,39,18
28,25,56,29,3,7,34
2,9,7,8,2,5,4
2,4,3,19,10,34,1
23,61,11,86,42,14,2
40,26,28,49,6,11,29
7,43,35,25,1,3,25
1,6,4,61,1,8,3
29,30,24,11,20,52,1
12,159,55,58,22,18,4
32,199,20,91,8,8,41
3,118,21,230,3,7,16
0,75,2,25,1,42,1
8,47,65,113,29,20,0
21,5,22,41,48,26,19
20,0,2,11,6,4,34
2,52,0,44,2,22,5
11,88,24,184,0,36,2
35,97,40,96,58,8,2
7,26,18,7,15,0,27
2,23,12,2,2,39,23
1,330,3,84,1,65,3
41,10,29,100,22,30,1
29,2,25,16,37,63,7
3,114,6,86,6,6,32
2,102,2,19,2,29,15
0,103,54,29,1,34,3
18,24,21,11,20,3,1
46,2,2,20,33,31,18
3,280,5,14,2,46,30
2,41,1,107,0,29,4
6,53,4,32,2,15,2
54,18,34,149,26,21,1
21,12,39,42,36,19,23
2,38,7,76,5,44,29
3,49,40,8,2,3,2
34,124,4,38,4,41,0
36,361,1,69,59,7,2
12,35,0,9,7,2,32
2,3,0,134,9,18,17
0,65,3,38,1,1,1
40,84,46,63,14,1,1
36,55,19,202,65,38,14
5,89,3,38,14,22,30
2,43,2,17,1,10,6
13,145,17,104,13,5,1
45,52,35,111,71,13,2
33,13,5,90,15,16,17
2,325,1,103,1,11,18
0,60,1,6,2,29,1
50,5,32,1,25,5,1
34,111,18,410,24,19,5
3,84,2,21,6,76,33
1,5,0,58,2,5,15
4,45,37,22,0,65,0
41,155,132,26,31,14,0
25,40,8,35,21,9,15
2,4,1,15,7,9,27
0,241,6,161,3,5,4
3,177,38,35,8,21,1
31,69,29,212,41,11,1
3,31,9,50,25,42,22
11,4,2,9,4,3,25
1,22,0,3,2,50,1
31,13,27,87,20,19,2
66,174,27,99,25,17,1
4,5,3,32,2,4,30
2,7,7,182,1,4,22
5,43,40,35,10,43,2
52,47,58,18,22,49,1
33,26,4,1,23,7,15
3,2,2,132,3,8,30
14,167,8,7,0,13,4
16,17,56,30,6,28,1
28,6,13,24,37,12,0
7,3,37,93,12,22,23
5,203,8,23,1,29,23
3,49,31,41,1,62,2
32,3,113,2,47,47,2
34,155,21,0,30,24,1
5,119,1,72,2,18,21
5,44,1,57,1,1,17
61,23,13,50,1,14,2
47,1,83,8,55,4,1
6,239,71,71,20,4,12
2,14,8,87,2,27,27
7,3,11,6,0,39,5
24,35,25,5,38,51,2
21,129,5,5,33,3,0
6,22,1,61,3,1,22
1,10,64,60,0,81,27
38,93,31,8,1,52,3
66,135,5,12,41,38,1
16,5,8,30,31,8,1
1,0,1,325,3,24,26
5,28,2,39,2,57,14
76,81,81,50,6,4,1
9,26,26,28,63,15,2
2,26,3,7,19,29,9
1,2,64,60,4,69,24
1,107,57,11,2,14,7
56,106,15,19,31,7,2
25,9,2,49,44,1,1
2,2,1,12,8,95,10
2,57,20,74,1,36,27
51,62,85,66,9,8,4
49,22,14,101,29,2,2
11,2,2,7,37,34,0
1,6,3,49,4,23,18
4,22,38,26,1,8,17
54,43,6,68,34,23,1
14,4,0,17,54,14,0
2,14,2,16,16,116,5
2,67,34,1,2,47,31
19,5,115,131,1,40,12
21,3,40,22,37,17,2
6,1,4,102,30,2,0
1,26,9,46,3,24,10
1,61,45,56,0,4,29
41,54,4,36,0,15,3
11,4,9,70,59,39,1
2,37,1,14,9,24,0
1,83,17,143,9,5,21
2,10,33,51,1,4,24
29,106,2,91,11,16,3
22,9,21,36,34,35,1
1,187,16,10,29,29,2
1,7,3,16,2,13,30
1,23,27,32,8,22,17
23,21,8,13,32,24,1
4,314,0,153,20,44,0
3,10,4,24,3,3,9
2,123,23,6,2,12,30
1,126,35,196,8,21,9
31,68,3,135,41,85,2
30,9,2,49,26,9,1
3,120,5,171,3,8,9
1,58,44,62,1,6,30
11,3,47,105,11,62,11
28,30,4,46,44,22,0
2,55,1,17,11,42,1
1,138,55,49,1,3,24
1,76,4,6,15,66,30
29,6,3,5,44,32,3
23,1,7,2,16,10,1
2,97,75,38,2,104,2
0,44,79,135,2,35,32
12,31,14,11,27,70,19
69,3,2,23,38,13,1
7,103,0,72,4,17,0
2,26,11,73,1,4,7
1,112,28,5,2,34,35
14,4,6,1,51,44,9
50,94,3,2,32,17,1
4,106,2,152,6,4,0
2,12,38,24,1,26,14
1,7,44,0,20,6,28
26,2,6,246,48,38,3
23,118,2,77,4,23,1
2,8,2,38,3,16,1
0,1,77,3,20,21,22
5,1,19,124,45,3,22
37,34,5,98,14,32,2
13,35,2,25,1,109,1
1,5,18,3,1,9,2
1,2,7,107,10,11,30
17,6,3,38,41,7,16
32,57,1,49,5,25,1
5,11,0,9,0,76,1
1,2,2,1,2,13,9
1,2,28,62,16,1,38
29,3,21,9,24,48,8
26,99,1,1,3,39,1
3,10,3,81,1,14,0
0,3,34,23,1,5,14
5,0,18,237,48,37,30
41,22,9,8,19,37,6
16,63,1,82,3,14,1
3,6,18,47,0,43,1
1,1,23,68,21,10,24
20,4,24,6,23,96,26
41,13,3,2,6,12,1
6,77,2,9,1,3,1
0,8,25,92,5,5,1
0,1,13,11,22,51,29
39,43,1,2,36,6,22
25,62,2,146,3,2,2
4,40,0,59,2,6,0
0,4,12,8,2,19,13
7,0,80,26,35,99,25
36,67,5,9,32,6,6
18,7,1,224,2,27,1
1,3,42,40,1,23,0
2,1,13,41,1,78,22
17,1,2,6,32,45,22
38,14,2,135,18,10,2
3,25,14,111,2,11,1
2,3,49,89,0,49,1
1,1,16,8,38,43,25
18,2,2,53,19,14,18
25,161,1,25,2,6,2
3,32,17,16,2,37,2
1,2,58,7,1,38,9
1,2,11,1,52,17,33
34,44,0,221,32,7,8
14,62,17,28,3,81,2
0,15,35,2,0,23,0
1,2,26,119,5,93,8
27,31,2,21,56,6,29
32,32,2,15,12,12,11
3,68,20,1,2,56,0
1,5,24,14,2,32,1
2,2,2,77,31,18,12
6,44,1,3,36,49,25
25,36,15,15,4,39,2
2,2,44,198,1,28,1
2,1,8,48,0,30,1
2,34,0,5,44,3,22
24,86,2,1,24,24,16
25,6,32,22,2,36,1
3,2,34,10,1,22,1
1,30,7,32,7,2,5
14,53,2,3,44,73,31
29,33,2,34,16,79,10
7,2,17,51,1,7,2
1,1,25,243,0,2,1
1,15,16,49,27,2,20
13,46,2,10,37,52,23
34,8,24,31,4,20,2
2,1,18,67,1,9,2
1,1,3,10,1,3,0
2,46,0,2,41,47,20
37,34,5,93,23,30,22
30,5,15,10,2,44,3
3,2,12,49,0,8,1
2,3,3,19,6,1,0
8,73,4,6,46,43,24
38,26,11,19,13,117,10
21,4,1,140,1,5,3
7,0,14,7,0,1,1
1,13,19,1,25,26,12
33,44,6,65,30,63,27
35,3,30,11,3,39,5
13,1,24,13,1,5,2
1,0,4,29,0,13,1
9,31,1,92,38,26,25
22,65,4,46,18,66,16
14,6,4,10,2,7,3
1,2,12,5,1,2,2
1,1,1,12,7,1,3
35,29,3,8,46,54,29
25,18,28,37,12,30,10
4,1,13,127,1,6,1
0,1,7,81,1,6,2
1,14,1,95,23,26,14
31,48,12,6,36,24,29
25,14,12,14,4,8,5
3,1,24,107,1,44,2
1,2,1,36,2,25,1
3,46,1,2,47,42,21
45,33,11,25,29,12,21
20,3,55,82,2,39,2
1,1,5,24,1,68,1
0,20,3,2,16,146,1
24,56,2,1,40,15,27
48,10,21,0,9,2,10
16,0,61,80,2,5,1
0,1,7,67,1,71,0
6,72,2,86,1,28,12
42,31,1,8,36,25,25
24,3,12,46,24,4,2
1,1,12,54,1,38,1
2,6,12,10,1,18,0
14,58,1,2,63,9,25
55,15,8,13,12,10,18
5,2,44,3,1,65,2
3,0,11,121,0,95,1
0,37,2,29,2,6,6
38,31,0,30,37,103,25
27,4,16,3,4,47,11
1,1,48,22,1,101,1
2,16,2,1,1,14,1
0,29,1,2,8,11,15
44,17,9,23,47,16,25
34,2,22,22,17,12,3
4,1,21,16,2,31,1
2,37,12,4,0,32,1
13,46,1,0,18,14,27
40,5,31,16,25,37,14
7,3,15,17,3,19,2
2,2,0,14,1,8,1
2,26,2,2,0,62,6
20,38,0,87,35,59,26
27,5,38,103,28,30,12
4,2,4,6,3,48,2
2,11,7,1,1,36,0
6,53,26,11,8,13,16
25,7,9,63,37,36,21
13,1,6,46,18,6,3
2,0,12,9,2,11,2
1,35,3,4,1,6,1
12,15,1,56,18,36,25
40,4,4,17,38,18,21
8,2,40,7,5,12,2
2,2,18,1,3,23,1
0,50,4,20,0,73,6
30,26,1,46,24,4,35
25,1,7,19,24,34,12
2,0,51,3,3,25,2
0,2,17,30,1,33,0
4,60,1,37,7,4,15
42,11,13,44,41,3,24
18,0,29,65,16,69,3
2,1,4,3,2,31,2
0,42,1,9,0,3,1
11,45,0,36,8,2,21
44,4,2,14,40,41,9
8,1,34,9,10,56,3
3,1,20,4,1,111,1
2,47,2,48,1,10,2
21,32,14,8,32,8,18
32,1,22,2,21,39,16
3,1,44,10,3,44,2
2,28,3,15,0,5,0
0,30,6,23,0,7,3
30,8,12,3,37,29,27
22,1,28,1,20,9,12
4,1,3,0,2,2,2
0,58,1,30,1,1,0
11,11,2,18,11,2,15
35,1,9,9,33,67,29
6,0,23,47,4,32,4
0,0,4,11,1,4,1
5,83,1,33,2,1,1
27,16,1,7,28,5,22
29,3,38,1,20,39,22
3,0,3,1,2,23,3
2,12,21,16,1,2,0
0,57,3,43,4,4,4
17,8,23,3,39,13,30
26,0,22,1,14,36,11
1,1,4,0,2,33,2
0,33,6,38,1,2,1
15,55,2,10,11,1,10
42,8,6,1,33,39,20
10,1,32,1,4,4,6
2,2,13,22,3,1,0
2,64,1,40,1,28,1
32,29,3,2,28,36,21
24,3,17,1,27,40,20
3,1,66,11,2,3,3
1,3,10,35,0,1,1
1,59,12,7,0,2,2
47,37,46,3,34,14,28
12,2,24,0,18,2,19
0,1,3,10,2,1,3
4,43,2,25,0,15,2
8,30,1,6,10,8,17
40,3,20,3,41,68,24
12,1,18,1,6,15,5
0,1,4,9,3,0,0
4,50,1,38,1,6,1
42,28,9,7,26,73,24
27,2,27,1,28,91,21
3,0,18,1,4,8,1
1,20,4,20,0,4,0
13,52,1,6,1,2,2
48,11,10,31,36,15,29
15,1,30,7,13,4,11
2,5,7,1,1,27,1
7,63,2,18,0,10,1
34,10,8,20,10,1,10
34,3,55,1,40,11,20
3,0,52,0,4,38,2
0,7,7,2,1,10,2
21,55,1,16,2,10,1
65,27,2,13,22,12,23
6,2,20,2,31,10,23
2,0,2,0,2,21,1
1,9,7,11,1,24,1
17,56,1,32,1,4,1
37,22,26,3,40,13,24
6,1,37,2,16,83,13
1,2,7,0,2,25,3
3,52,4,13,0,3,0
35,21,3,25,12,2,12
27,2,8,4,32,83,23
2,1,3,1,3,22,4
1,9,21,1,1,2,0
12,54,1,23,1,36,1
32,17,2,18,24,31,17
6,1,25,2,18,2,21
2,1,14,1,2,1,3
0,35,2,7,2,2,1
32,36,0,35,0,57,2
48,2,2,10,23,34,22
4,2,28,1,17,2,15
1,2,12,1,2,14,1
0,43,3,20,1,55,1
30,19,1,21,10,11,9
39,2,16,2,38,1,25
3,1,13,0,5,2,4
1,5,15,1,1,46,1
6,57,0,24,1,87,0
20,18,2,15,22,6,10
16,1,4,2,31,1,22
1,1,44,0,4,2,3
0,45,17,9,1,47,0
33,22,2,29,0,82,2
21,5,6,10,36,8,23
5,1,16,2,17,3,12
1,0,6,1,1,9,2
4,49,0,19,0,20,0
26,32,1,21,10,5,2
20,1,14,2,42,2,25
2,1,16,2,5,0,10
1,5,1,0,0,2,1
2,60,1,23,0,21,2
52,14,1,21,18,13,11
18,1,34,2,31,2,20
2,1,45,1,5,2,4
1,23,9,6,1,32,2
46,60,1,35,2,70,0
25,7,2,13,44,12,17
9,1,42,1,39,3,17
2,0,26,0,3,1,3
1,55,5,14,2,43,0
40,31,0,26,17,96,2
23,1,8,3,42,13,25
3,0,32,2,12,2,9
1,21,16,0,1,22,2
10,9,2,26,1,66,1
43,41,0,20,52,7,2
7,17,0,1,26,2,26
2,1,56,0,2,2,16
2,26,7,5,1,48,1
32,28,2,32,10,11,2
19,3,0,11,28,3,9
3,1,19,2,5,1,20
1,2,46,2,0,4,8
1,52,4,17,1,37,2
37,18,1,27,22,29,1
36,2,1,4,27,2,5
3,0,11,1,2,1,28
2,24,12,1,0,1,7
12,52,4,29,2,43,3
25,6,0,27,13,14,1
13,2,17,2,15,1,13
2,1,30,1,3,53,19
1,40,9,3,1,31,4
46,29,2,33,0,13,0
21,2,3,18,35,34,1
1,3,33,2,11,3,11
3,9,23,1,3,23,18
12,50,2,16,0,8,2
41,18,0,27,13,5,0
4,0,2,5,33,2,0
0,1,19,1,3,2,21
0,22,13,1,0,16,11
29,41,0,31,1,18,2
40,6,0,20,32,3,1
5,2,3,2,21,0,7
0,1,27,0,2,3,28
2,44,10,4,0,19,7
40,32,2,26,7,23,2
13,2,1,10,36,4,0
3,1,1,2,12,1,7
2,2,13,2,1,18,29
12,64,31,8,1,10,7
42,32,2,30,20,2,3
6,2,1,5,28,45,1
3,1,22,1,5,13,9
0,33,22,1,1,20,26
31,32,3,12,0,3,8
36,10,1,23,32,2,2
7,0,0,5,22,1,1
2,5,33,3,3,18,9
15,44,10,2,0,14,29
23,22,1,16,6,0,11
32,2,0,37,40,1,0
1,1,9,2,6,33,1
2,18,36,2,2,29,19
21,49,4,1,1,9,24
39,5,2,31,7,0,2
2,2,1,16,24,1,2
2,0,7,1,44,6,3
1,37,43,0,4,19,23
15,36,15,20,2,12,17
24,3,1,24,19,1,2
2,0,0,6,41,4,0
0,1,30,1,5,18,9
7,94,20,1,2,18,28
39,32,2,24,0,4,6
14,2,0,22,28,1,1
1,0,1,2,26,3,1
2,16,36,1,3,23,5
33,38,50,7,1,5,26
29,3,3,26,9,8,9
3,2,2,16,34,2,1
2,1,7,1,15,1,1
5,41,56,2,3,20,4
10,64,9,6,0,45,24
20,7,2,34,15,4,10
5,2,1,7,27,1,1
1,8,14,2,5,15,1
15,40,55,0,0,21,10
40,25,6,4,0,10,19
16,2,1,23,24,2,3
2,1,2,5,29,1,2
1,14,59,2,3,20,2
42,38,24,0,1,10,16
20,5,3,9,8,2,14
4,1,1,22,65,0,2
1,0,3,11,23,11,1
12,34,74,2,2,30,10
46,53,13,1,1,10,27
6,4,3,19,11,1,4
2,2,2,21,29,4,1
0,4,5,1,13,44,0
11,54,39,1,3,17,16
38,14,11,1,1,2,22
8,1,1,36,26,1,3
2,1,0,6,13,41,1
2,21,55,1,1,30,1
29,32,32,1,2,2,20
33,7,3,1,11,1,18
2,0,1,16,8,0,4
2,2,2,14,1,10,2
0,41,21,2,5,36,9
27,27,20,1,2,7,23
27,2,2,15,15,2,7
1,0,0,27,29,2,2
2,0,10,4,2,36,0
3,46,25,1,1,14,7
36,39,2,0,0,1,28
13,3,1,21,24,2,8
2,1,0,16,25,13,2
2,21,16,1,3,26,1
39,41,47,1,0,5,9
17,4,7,1,6,2,29
1,0,2,27,44,1,10
0,5,14,21,6,16,2
5,53,16,1,1,30,1
38,38,5,0,1,2,14
20,4,2,9,18,1,24
3,2,0,30,47,2,3
1,1,6,7,15,25,1
19,58,54,1,1,8,0
45,41,6,1,0,7,30
6,3,1,9,23,16,14
2,1,0,28,21,1,3
1,23,14,5,1,31,1
22,39,39,0,2,37,7
32,5,6,1,4,3,29
3,2,2,10,41,2,16
0,0,2,31,21,3,2
1,29,19,5,3,26,2
29,41,70,0,0,4,15
25,7,7,2,15,1,23
3,2,2,21,31,1,2
1,2,1,24,3,5,0
34,21,24,4,2,33,2
21,51,12,0,7,11,21
9,5,0,0,31,0,18
1,1,1,21,29,1,1
0,10,19,21,4,18,1
23,61,36,2,1,13,4
49,9,5,1,1,0,30
6,1,3,6,33,2,11
1,1,2,33,15,5,2
15,46,5,12,3,38,1
27,31,64,1,0,7,12
7,4,39,0,13,3,21
0,0,4,24,31,0,3
2,1,2,24,5,16,1
12,51,38,2,2,5,1
36,28,43,0,1,18,21
5,3,6,2,27,33,23
1,2,0,32,24,5,2
0,22,3,11,3,7,1
22,48,38,2,1,18,7
46,7,29,1,2,3,33
4,2,2,10,29,0,8
0,2,13,36,21,0,2
10,21,28,7,2,42,0
47,35,49,2,1,11,3
9,4,5,1,14,1,34
1,1,1,17,35,2,14
1,2,4,25,4,1,3
13,50,31,5,1,8,1
53,43,40,1,0,1,15
5,5,2,1,33,12,32
1,1,1,22,45,3,4
1,15,36,18,6,4,2
26,27,26,3,1,18,1
32,3,1,2,2,2,26
5,1,1,12,34,1,25
2,2,11,35,14,2,1
5,36,34,6,1,3,2
46,35,4,1,1,21,4
10,3,11,0,3,3,33
1,0,6,16,41,2,14
0,2,2,27,9,0,3
13,58,36,2,3,7,0
39,25,6,1,1,22,16
10,2,1,1,4,9,32
1,2,0,16,48,1,4
6,16,2,22,22,1,1
25,20,6,2,1,3,0
24,16,50,0,0,25,18
2,1,7,8,22,10,22
0,12,2,28,30,0,2
5,56,9,7,3,1,1
51,5,67,2,2,32,5
9,1,18,0,2,30,37
2,1,2,4,31,2,16
0,26,2,29,20,2,1
14,31,43,9,1,0,0
35,4,29,1,0,29,17
9,2,3,0,13,12,31
1,1,1,4,16,1,4
1,37,17,33,11,2,0
18,12,47,16,1,1,0
38,4,5,1,1,13,24
4,1,1,0,33,38,23
0,1,2,17,19,8,2
3,39,7,25,2,0,1
31,13,17,4,1,8,4
30,2,16,1,18,55,42
3,1,3,1,45,24,13
3,18,6,17,6,1,1
28,31,10,16,1,0,0
11,7,7,2,2,10,13
3,1,3,1,22,8,27
1,1,1,9,30,2,6
1,19,1,22,7,0,1
20,22,61,9,1,2,1
34,2,87,2,1,23,28
4,0,5,1,37,19,26
2,1,1,4,16,2,3
1,42,3,30,1,2,2
39,44,47,16,2,1,5
20,10,13,2,8,19,34
1,3,1,0,39,17,16
1,5,0,19,14,1,1
14,37,6,20,1,3,1
37,17,62,4,0,12,16
6,1,16,1,26,25,30
2,1,1,0,26,2,4
2,26,1,25,3,0,0
28,16,17,21,1,0,1
27,2,22,2,0,23,28
5,1,3,1,31,12,27
3,11,1,8,27,2,2
2,27,10,39,3,0,0
41,8,17,8,1,2,4
34,2,13,2,5,24,34
3,1,2,1,36,8,15
0,31,18,4,36,2,1
26,35,49,33,4,2,0
30,3,11,15,0,0,16
10,1,2,2,14,27,33
1,1,1,0,22,18,4
2,27,26,14,3,1,2
61,31,53,20,3,0,0
9,2,6,3,0,4,26
8,1,32,2,31,50,27
2,16,3,2,22,49,4
4,61,0,20,4,5,2
36,6,66,25,1,2,3
18,2,17,3,7,11,35
3,0,2,1,41,6,21
1,22,7,1,15,3,1
9,34,24,24,3,2,2
41,3,30,17,0,7,13
14,2,50,2,18,13,37
1,2,12,2,18,13,4
1,20,0,13,6,2,1
31,22,0,32,2,1,1
14,1,180,3,2,1,20
1,0,119,1,42,13,29
1,12,44,1,10,11,3
10,47,17,26,1,2,0
19,11,1,23,4,0,3
10,1,8,2,10,16,30
2,0,32,2,31,61,20
0,14,12,2,3,10,2
27,26,0,44,1,1,1
32,3,1,23,2,0,13
4,2,6,2,6,24,41
0,4,147,0,36,12,7
2,30,11,6,31,23,1
48,27,103,30,2,2,1
18,3,10,9,1,17,24
2,1,22,0,35,26,25
0,36,8,1,16,4,3
17,49,1,19,1,1,2
21,6,2,29,1,1,4
7,2,154,5,9,56,33
2,8,7,1,39,33,17
0,32,14,1,10,4,2
27,8,25,27,2,2,2
26,3,6,27,2,15,16
8,2,1,4,13,13,33
1,10,4,2,34,2,5
2,43,22,1,6,1,2
36,4,19,28,1,4,0
28,2,79,16,1,35,22
4,2,140,3,35,11,25
0,0,4,1,19,1,2
1,26,1,11,1,1,0
47,17,17,32,1,2,2
39,1,47,5,3,17,35
3,1,86,1,22,5,21
2,47,17,2,21,2,2
15,21,7,26,3,2,0
38,1,87,23,1,0,14
5,1,25,4,7,32,34
1,0,18,1,42,8,5
1,23,35,2,8,3,1
45,33,85,16,2,0,2
17,3,65,10,1,9,24
3,1,24,2,24,30,26
1,8,38,2,54,14,1
12,37,127,9,3,1,0
47,7,19,28,0,0,3
5,2,30,7,1,0,30
2,1,9,1,25,24,21
1,1,82,1,21,19,2
28,63,10,7,2,2,1
29,5,27,33,1,0,6
4,1,22,15,3,11,38
2,1,123,1,32,17,8
0,20,32,0,13,18,1
41,29,7,25,2,0,1
15,6,4,23,1,2,9
6,2,41,1,15,15,35
2,1,151,1,26,15,14
9,22,7,4,3,2,1
32,39,1,24,1,1,1
17,5,46,28,2,10,20
1,1,185,2,29,20,29
2,1,8,0,30,5,4
15,17,19,5,3,0,2
40,18,109,39,0,1,3
4,8,40,13,2,18,29
1,2,37,1,49,17,23
1,13,4,0,53,2,1
45,41,45,16,3,0,1
36,8,115,26,2,3,9
3,1,83,4,11,30,37
1,2,16,1,37,10,14
16,6,95,2,5,0,2
47,26,32,31,0,1,1
11,12,139,19,1,10,23
2,2,8,2,38,22,32
1,1,8,2,22,7,4
36,45,52,12,3,2,0
33,20,3,31,2,1,2
18,1,47,4,18,48,28
1,0,109,2,48,26,21
18,9,122,0,6,3,1
52,40,13,17,1,1,0
3,18,18,19,1,13,9
2,2,132,1,8,30,33
3,2,17,2,34,5,10
41,26,8,1,9,2,3
25,32,3,30,1,0,2
1,6,113,15,1,6,20
0,0,24,2,15,32,37
5,3,32,1,37,6,5
47,33,5,5,3,3,0
14,32,93,39,3,1,0
3,3,88,14,1,13,30
2,2,66,1,27,20,21
22,1,5,1,16,5,1
24,21,18,16,2,2,1
4,48,29,32,0,20,10
1,3,36,3,1,51,34
2,1,50,0,31,4,8
30,16,3,5,9,2,3
18,46,168,24,1,1,2
5,6,14,23,1,9,19
1,1,26,3,6,84,31
30,1,58,1,54,26,5
32,23,35,6,10,2,0
21,10,115,20,2,2,1
1,1,5,7,1,9,34
2,0,96,2,11,14,20
37,0,24,2,36,2,2
28,35,24,4,4,2,0
2,9,18,31,2,7,7
1,4,54,22,1,9,33
8,2,78,0,17,32,14
39,2,6,1,45,5,2
19,38,26,18,8,3,1
2,20,35,32,0,0,22
0,3,28,5,1,13,27
18,1,43,1,47,24,2
25,17,34,1,14,4,1
3,35,24,25,2,2,1
1,4,32,21,2,0,25
2,1,64,2,4,30,16
24,1,16,1,21,18,2
33,26,9,9,4,2,1
3,18,55,36,0,1,6
0,1,44,4,2,1,35
4,0,67,2,30,18,16
48,18,7,1,58,16,1
22,42,21,4,6,1,0
2,3,94,24,2,1,17
1,1,6,10,2,1,29
17,1,11,1,8,6,4
38,24,9,1,54,28,2
5,34,50,25,15,8,1
1,4,9,28,2,1,23
1,0,22,5,1,1,24
26,1,11,0,17,18,3
32,25,18,0,17,12,1
3,69,101,25,2,1,5
0,8,47,31,1,2,34
1,1,5,4,9,58,6
43,2,12,1,37,21,3
22,33,76,9,8,1,1
1,29,61,33,2,1,4
1,2,13,16,0,54,34
19,1,52,1,19,23,15
30,15,81,2,25,3,2
3,48,66,20,1,1,0
0,4,27,31,1,0,16
1,1,2,3,1,4,28
42,1,20,2,27,71,4
18,21,84,3,22,12,1
2,27,23,31,2,1,2
3,5,16,28,0,1,26
9,0,28,2,1,23,28
37,4,45,1,47,15,1
19,38,2,4,38,1,2
4,16,23,35,5,1,5
1,2,97,19,0,14,34
21,2,9,2,8,30,14
41,6,6,0,41,2,1
5,45,2,17,9,2,1
2,9,204,38,1,2,18
1,3,15,3,1,15,29
32,1,27,2,25,22,3
35,22,73,0,52,1,0
6,41,48,30,4,0,1
2,11,12,23,2,1,17
13,1,21,2,0,24,25
29,2,59,2,35,25,2
13,22,47,7,36,5,0
3,45,90,31,5,0,3
0,6,28,17,1,2,30
77,2,2,2,2,26,12
9,28,3,1,35,10,2
5,45,174,14,18,1,1
1,5,7,32,2,0,16
3,2,8,5,1,22,28
23,2,3,1,3,29,4
46,26,35,0,30,1,2
3,8,48,13,4,1,2
1,2,11,33,1,4,21
9,0,32,4,12,36,26
35,7,45,0,30,16,2
30,23,56,8,16,13,1
1,21,16,29,1,2,4
1,1,39,17,1,1,29
16,2,101,2,2,18,14
31,1,11,1,27,22,2
11,57,76,22,6,2,2
3,22,17,34,0,1,15
2,2,8,3,2,19,26
40,1,104,1,8,8,3
15,16,11,0,32,1,1
2,75,14,27,14,1,3
0,8,63,24,2,1,29
14,2,108,3,1,20,15
38,2,3,0,8,34,2
7,16,2,6,37,4,1
3,34,145,28,9,1,0
3,4,16,17,3,2,30
23,2,12,1,0,22,18
22,0,12,1,0,30,1
0,43,33,7,70,1,1
1,20,29,28,54,1,15
0,3,61,9,3,10,34
36,0,5,3,2,19,4
30,1,16,1,16,3,1
2,42,53,9,5,0,0
0,42,22,26,1,1,21
17,3,11,5,1,13,25
41,0,27,3,0,31,2
5,15,22,0,18,3,1
3,3,2,11,22,0,2
1,9,42,39,3,13,32
32,6,56,5,0,32,14
26,1,97,0,0,4,2
4,21,8,1,33,1,2
0,30,7,27,16,12,8
1,2,33,29,2,9,36
10,1,133,1,1,29,6
19,1,8,2,4,2,2
11,55,33,5,11,1,1
8,55,3,29,15,14,12
9,5,69,12,1,24,28
35,2,21,1,0,4,6
1,14,3,0,26,0,0
0,33,13,9,33,2,2
9,4,25,40,4,2,22
63,0,65,5,0,20,21
17,2,25,3,0,9,4
3,17,4,1,25,2,2
0,60,18,12,30,1,2
0,8,34,25,6,12,33
39,1,7,6,1,10,15
110,1,2,0,12,14,1
20,46,1,0,37,1,1
29,23,69,22,4,1,14
46,2,132,18,0,54,32
55,2,7,3,1,73,5
35,18,17,2,45,7,1
16,30,57,2,28,1,2
1,6,22,23,3,1,21
20,1,3,19,1,23,28
1,1,66,3,1,7,3
0,25,17,0,39,1,1
33,25,27,13,24,2,4
176,2,21,37,3,1,31
54,0,2,5,0,16,16
4,1,25,1,3,32,3
0,48,58,0,37,5,0
14,11,30,26,11,2,10
93,2,2,25,2,16,28
8,2,51,2,2,22,6
13,14,31,2,12,9,1
34,28,12,0,48,2,1
41,9,49,29,10,1,18
2,2,7,14,2,6,25
0,1,42,1,4,25,3
103,32,30,2,28,1,1
45,21,15,4,9,1,2
27,31,57,48,2,1,30
1,2,5,11,1,22,20
64,13,8,1,0,16,1
10,48,3,0,43,1,0
11,12,16,14,18,1,12
31,3,28,27,2,3,30
57,53,13,3,1,22,6
23,72,90,1,9,12,2
63,26,9,16,39,2,1
13,2,2,13,3,2,19
2,8,46,10,1,4,30
69,110,56,1,1,27,3
45,16,5,1,17,6,1
3,2,24,24,30,2,2
1,0,7,18,4,2,27
120,2,64,3,2,29,16
7,31,37,1,2,21,2
58,96,5,1,19,1,1
12,10,12,27,35,0,14
19,1,105,17,6,25,30
36,25,27,1,1,11,3
3,29,4,0,1,2,2
1,3,2,1,37,1,1
81,2,2,56,7,1,20
95,14,81,10,1,0,24
7,32,32,1,0,26,1
3,4,15,15,5,17,2
5,2,14,1,32,1,1
45,1,32,68,16,0,23
62,52,72,31,1,8,21
8,15,20,32,0,40,2
88,2,5,6,10,3,1
22,7,33,29,36,0,9
97,1,14,76,5,3,38
22,50,39,11,1,1,8
6,43,45,8,0,6,2
0,2,7,57,30,5,2
5,0,27,7,18,7,10
135,80,18,8,2,15,30
5,96,2,87,1,3,5
21,16,23,6,5,12,1
8,3,88,120,32,5,2
12,0,10,15,8,1,15
43,6,21,2,1,1,22
9,4,3,1,1,0,2
4,2,101,3,6,67,1
15,31,11,6,47,30,3
23,150,3,58,26,5,28
112,9,5,15,4,2,21
4,11,80,26,0,3,2
17,5,38,38,13,22,2
50,144,23,3,37,3,10
49,51,9,2,6,0,33
4,5,10,6,0,0,6
38,1,95,7,1,6,0
39,141,40,26,33,38,0
30,178,6,22,21,7,23
22,7,2,115,1,0,29
10,2,82,4,1,2,2
63,2,116,24,0,6,2
4,11,5,68,36,16,3
14,81,0,20,16,4,32
0,4,1,12,1,1,16
4,74,119,16,0,5,1
81,92,7,43,66,9,1
19,149,0,220,44,21,11
14,31,65,12,3,7,31
1,29,46,35,1,4,5
123,15,12,2,0,1,2
8,171,6,61,29,5,1
6,103,3,42,31,31,19
2,159,59,55,2,7,27
88,18,38,9,1,2,3
15,14,6,58,2,1,1
1,1,1,81,52,9,7
32,429,1,24,32,30,27
68,45,135,1,2,9,20
7,243,5,31,2,3,0
23,88,2,127,6,3,1
14,54,70,71,43,8,16
7,13,82,68,7,23,31
4,64,15,11,1,4,6
54,74,12,5,9,1,1
18,93,17,0,20,1,1
2,69,7,22,16,9,21
37,65,104,513,2,35,28
18,4,12,53,0,13,2
2,156,1,95,1,2,0
15,112,49,7,22,1,1
31,202,25,131,8,18,27
5,15,3,51,2,7,21
56,166,2,27,8,2,2
5,64,1,175,2,0,2
15,3,11,318,13,3,6
108,209,37,25,43,30,33
60,287,25,52,3,19,12
7,77,13,150,1,1,1
4,68,9,89,0,2,2
18,101,10,7,77,8,20
33,10,24,11,33,35,30
13,283,1,292,40,8,3
1,178,105,60,48,2,1
42,9,17,59,5,0,2
36,211,12,80,17,26,23
23,32,8,5,3,28,21
3,128,25,524,0,3,1
0,21,60,78,11,2,0
62,175,11,95,58,0,5
7,89,2,37,35,13,33
6,15,1,376,3,26,11
29,267,60,144,1,1,2
1,52,21,124,66,2,0
45,35,7,26,161,36,20
18,526,0,287,4,50,32
20,17,11,33,1,10,3
3,60,28,42,58,2,0
10,34,41,118,150,1,1
60,231,12,75,14,6,31
15,181,1,20,25,43,13
2,56,77,68,27,10,1
112,116,46,62,145,3,1
55,222,12,277,39,2,7
15,33,6,10,23,18,31
10,171,62,61,19,9,11
26,130,48,64,1,4,1
53,251,7,32,29,1,0
4,10,27,30,58,2,18
0,363,75,4,63,16,28
66,71,11,176,37,19,3
47,170,12,63,13,2,0
5,17,2,84,20,2,1
25,293,2,15,19,7,33
3,14,45,12,58,25,13
55,40,73,146,12,12,3
28,180,6,42,16,2,2
1,16,21,268,5,1,8
1,59,44,303,93,11,32
40,15,36,133,8,28,11
135,31,4,17,20,2,2
10,356,2,48,2,3,0
1,23,3,12,31,2,22
14,12,60,339,29,26,29
63,546,27,21,25,13,3
8,47,13,41,2,4,2
2,26,17,203,24,1,1
1,109,12,109,10,10,23
1,43,43,53,37,26,20
69,185,11,18,2,17,1
26,203,8,279,11,2,0
3,233,11,13,29,1,7
30,247,87,5,8,21,34
12,8,9,74,1,15,12
8,92,2,85,0,1,1
21,27,2,87,119,0,1
6,133,128,7,26,13,17
2,57,44,6,4,39,25
19,128,11,292,1,9,3
7,138,59,393,8,2,1
6,20,12,44,46,1,0
0,316,9,49,57,54,16
26,127,67,104,4,27,28
21,16,5,4,30,2,2
3,6,51,37,14,2,1
2,59,41,152,3,2,6
19,289,10,99,86,26,33
13,29,1,10,8,17,14
6,23,29,314,2,2,1
21,76,79,141,16,1,0
3,79,6,126,18,3,16
29,69,4,35,33,36,27
20,326,1,114,2,9,4
9,22,31,64,54,2,1
6,63,32,6,66,0,1
0,5,20,358,7,5,27
28,282,2,36,3,27,23
92,94,39,45,14,7,3
12,12,13,39,82,2,2
2,76,60,53,19,2,6
141,66,3,27,9,1,35
16,14,84,224,2,22,15
6,180,12,43,28,13,2
1,27,8,26,12,1,1
84,19,18,26,3,1,14
21,22,79,47,6,1,30
20,98,11,35,50,13,3
6,21,11,71,55,64,2
3,72,34,271,10,6,2
45,99,1,31,1,2,29
32,36,17,4,14,9,22
3,85,39,11,48,6,2
17,81,30,64,38,6,1
6,47,2,157,9,3,6
2,134,7,7,2,1,35
29,70,27,30,40,24,14
21,88,24,3,20,21,2
2,34,30,201,11,4,1
67,144,2,40,2,1,15
45,105,32,4,5,0,29
5,19,26,49,54,14,4
2,115,29,185,11,6,2
1,217,2,16,3,9,0
89,73,50,99,3,1,22
22,303,10,9,46,0,25
2,20,6,106,29,18,2
29,262,9,70,12,13,1
24,87,2,9,6,2,4
38,76,32,23,35,0,35
5,41,15,77,31,2,17
2,46,20,214,1,20,2
40,4,11,8,7,12,1
42,21,2,3,50,1,19
5,70,46,65,61,1,32
2,57,32,75,37,13,4
18,89,4,5,2,24,2
18,59,27,15,7,5,0
30,141,7,44,23,1,17
2,20,1,54,45,0,22
4,0,24,37,24,15,3
0,229,7,14,2,14,2
27,59,131,195,2,1,4
45,225,68,24,43,1,36
7,13,17,333,80,2,15
5,28,18,9,21,26,1
45,128,49,246,44,8,1
40,119,28,14,41,2,14
51,14,6,9,41,1,32
4,45,24,171,2,0,4
2,18,24,39,29,29,1
19,22,46,103,36,14,0
27,7,8,2,66,3,28
2,164,1,260,11,1,24
2,26,2,20,6,18,2
19,28,30,37,15,45,0
24,55,48,2,57,8,2
13,132,8,62,34,28,37
2,4,1,62,17,10,26
4,7,1,29,3,21,2
117,141,24,56,96,45,1
17,179,48,66,39,54,18
2,21,4,21,3,18,30
1,2,0,107,0,45,4
23,332,73,11,26,34,1
50,31,20,33,49,57,2
11,8,50,125,15,13,25
2,143,49,6,2,14,21
24,111,14,64,7,27,1
49,7,15,44,71,42,0
4,339,25,84,27,23,2
0,22,2,5,4,3,36
29,30,54,98,1,7,21
31,39,12,44,22,29,2
28,104,38,4,29,35,1
4,7,3,39,32,19,16
2,392,2,211,8,34,37
14,39,17,261,5,11,4
12,8,79,18,58,4,1
13,33,6,18,53,13,0
1,81,8,7,6,33,27
17,24,0,10,5,86,27
49,61,28,20,14,8,3
15,99,25,69,53,65,2
1,68,23,12,16,160,5
5,58,2,48,2,38,36
11,20,55,21,6,75,27
22,155,4,21,45,146,2
11,127,2,70,23,242,0
4,47,3,88,5,41,20
2,3,1,26,2,3,30
1,318,4,75,18,62,4
47,45,23,5,31,197,2
14,155,17,126,9,6,3
2,246,2,94,11,93,17
22,109,1,29,2,11,25
33,9,31,2,56,280,3
6,59,26,0,36,116,2
0,12,22,182,3,66,2
12,288,14,27,1,100,36
40,37,58,0,15,167,16
3,69,23,1,76,6,1
1,6,2,180,14,200,1
6,118,29,163,15,272,14
8,15,30,23,6,204,35
53,238,55,6,36,115,7
49,42,7,103,39,161,2
5,45,9,94,6,6,2
1,57,1,8,4,534,22
27,35,58,39,33,46,30
31,9,43,60,23,28,3
15,314,3,143,9,79,0
5,13,0,78,9,65,5
17,83,54,45,19,118,38
17,93,7,11,63,79,17
14,21,9,118,30,100,2
1,12,4,141,17,262,1
6,580,1,95,6,200,15
87,52,5,16,31,9,34
64,100,6,4,17,132,5
5,40,14,103,5,189,2
1,88,18,26,2,25,2
15,55,3,55,16,4,20
74,171,89,44,42,83,27
18,79,9,2,29,32,3
2,9,22,126,3,87,2
20,176,22,20,1,65,3
8,109,4,44,41,79,37
30,47,19,81,18,36,21
11,15,19,90,12,95,2
3,304,10,132,0,33,1
17,143,2,17,45,130,9
13,25,45,5,24,352,41
43,22,79,14,10,11,10
7,264,8,25,3,148,0
12,13,1,81,9,210,0
48,205,9,56,50,22,27
7,63,68,5,14,23,35
2,75,44,1,3,92,3
0,233,3,181,2,98,1
7,15,2,15,32,80,2
23,83,36,262,18,29,40
18,141,44,45,16,47,20
2,206,12,4,3,18,3
11,56,1,5,47,95,0
37,7,30,89,41,10,14
13,64,29,88,6,492,45
1,160,89,14,2,352,4
0,39,7,50,1,224,1
35,53,9,5,26,17,1
47,10,30,23,39,115,34
5,120,92,88,11,48,30
0,49,14,21,10,37,3
4,13,2,1,44,5,0
65,119,81,22,25,83,0
8,146,15,70,3,42,45
2,24,39,66,3,33,28
19,91,2,19,8,37,2
24,88,9,98,24,39,1
21,64,47,27,22,257,19
3,55,25,313,13,46,50
2,203,1,17,11,192,8
45,19,0,21,24,208,2
6,10,13,136,12,8,0
29,188,36,56,10,44,38
19,161,17,96,2,50,40
3,8,7,18,16,65,6
18,377,17,72,48,52,0
9,25,32,6,11,55,1
8,118,8,7,1,93,48
3,187,2,224,24,19,32
5,73,5,28,46,86,3
38,38,48,58,8,35,1
24,14,54,47,1,76,17
3,219,6,59,4,42,58
12,7,3,68,38,137,8
0,260,54,6,25,20,1
42,92,18,3,8,39,0
53,29,3,146,0,209,33
4,41,1,12,57,124,39
1,173,0,75,47,6,5
28,428,22,109,30,52,2
47,123,63,262,3,308,3
28,9,11,55,5,41,44
3,98,10,24,16,36,31
1,344,20,27,63,186,3
118,38,28,10,8,12,2
24,15,10,42,1,15,16
1,5,9,18,18,46,49
8,469,10,134,26,87,9
5,29,11,23,31,12,1
49,188,47,67,26,95,3
9,155,6,5,11,148,34
2,69,1,132,42,67,44
1,3,29,117,16,55,5
53,345,36,67,5,6,0
34,33,17,6,1,95,2
2,4,2,7,36,12,47
5,43,30,149,57,72,33
3,68,15,17,4,51,2
46,173,11,2,0,16,1
35,264,3,16,3,46,8
35,66,0,75,26,113,54
2,56,37,6,19,14,22
17,31,18,1,21,45,2
65,169,5,169,3,204,0
10,236,4,21,20,79,31
1,42,2,66,26,7,47
2,136,38,20,3,37,5
27,45,35,170,2,62,1
53,65,3,30,8,205,1
6,254,30,25,29,65,56
2,35,2,41,72,33,34
26,173,33,2,6,65,2
10,211,5,155,2,30,2
15,23,3,13,10,88,15
2,22,0,30,35,7,52
23,77,41,212,13,13,9
64,139,4,51,3,35,3
10,10,4,10,1,31,2
3,85,3,97,73,9,31
1,197,0,97,17,92,45
21,143,45,105,2,300,3
49,5,27,38,0,11,2
6,51,3,9,4,142,1
4,72,1,75,45,107,48
2,5,2,41,39,22,32
29,527,41,7,4,19,2
14,95,8,1,0,58,2
7,24,1,119,18,82,8
4,285,1,27,60,36,62
16,50,0,5,8,52,17
105,34,15,2,2,73,3
6,53,21,95,21,70,1
1,78,3,28,54,6,26
23,55,2,62,12,10,49
35,432,49,5,3,118,7
16,18,66,37,3,47,2
1,178,5,25,24,17,0
2,10,3,60,28,27,50
9,9,2,71,10,25,34
63,156,43,12,0,5,1
13,6,21,29,7,108,1
2,72,1,16,59,36,10
3,243,0,309,21,6,55
92,41,0,11,1,74,9
14,122,56,53,0,24,1
3,74,107,40,27,11,1
27,76,10,3,55,26,27
2,6,2,2,23,132,40
30,134,57,26,2,41,3
16,38,35,85,12,47,0
1,18,5,16,39,18,2
13,17,22,52,6,1,46
7,314,4,30,1,119,34
56,14,18,100,5,27,3
12,186,4,11,18,21,1
0,81,9,1,30,204,11
20,10,190,18,6,47,55
39,76,54,51,2,31,11
4,246,5,15,14,21,1
0,102,2,70,21,183,0
30,106,2,24,20,8,48
68,60,22,4,2,12,37
14,2,41,2,2,45,3
2,71,8,27,20,16,1
19,144,0,32,25,60,8
81,71,0,48,4,4,55
17,31,14,6,1,156,29
4,0,153,94,1,22,2
3,21,6,8,34,2,0
2,152,1,61,28,116,28
31,65,30,10,5,12,47
17,3,90,87,3,30,6
2,75,10,6,9,3,1
6,132,2,46,56,36,2
30,17,4,70,12,9,46
80,40,74,4,3,17,33
9,69,22,130,5,95,3
1,49,23,65,4,7,0
41,10,16,123,35,18,2
78,18,5,46,34,55,57
10,136,1,58,11,120,20
1,52,22,83,3,9,0
1,51,16,84,26,4,1
34,132,6,28,26,34,36
27,51,10,1,23,114,36
24,62,0,41,4,69,6
2,141,31,136,20,19,2
5,30,24,171,54,122,1
59,90,59,75,3,108,48
12,167,86,18,7,7,34
2,78,7,181,5,3,3
2,99,1,53,41,55,2
17,114,70,8,12,106,9
47,168,49,2,3,20,57
5,8,17,0,0,48,23
1,67,2,222,28,60,3
6,45,4,6,97,143,1
53,82,40,110,6,7,25
8,21,3,68,2,3,45
10,57,18,79,7,229,4
3,44,3,5,63,45,2
35,236,46,9,15,40,1
13,17,10,23,5,38,50
6,2,2,24,3,11,28
3,333,1,36,14,32,3
2,21,1,2,42,81,2
33,234,10,100,9,17,7
29,8,29,5,2,27,55
4,29,7,90,1,30,22
1,167,0,4,20,21,2
1,22,11,217,28,4,0
57,222,22,16,8,122,24
12,129,2,45,13,26,50
10,4,2,20,24,10,6
2,6,1,83,32,100,2
19,225,19,21,11,9,1
13,145,55,38,6,86,40
4,58,7,17,2,97,41
2,9,1,174,30,14,2
10,161,1,18,17,61,1
55,103,13,67,13,63,6
8,76,98,3,1,44,53
3,5,14,0,21,14,21
0,25,1,38,46,88,2
45,15,11,251,9,10,0
21,111,25,23,3,23,21
6,60,4,3,14,11,50
2,27,1,7,12,53,6
2,162,2,106,39,167,1
28,75,25,8,4,26,1
51,121,11,2,13,143,40
4,26,1,117,60,8,33
2,138,1,13,29,43,4
6,6,16,31,9,8,0
41,198,7,132,1,30,7
39,38,13,35,9,4,58
5,3,0,28,34,33,23
1,13,1,12,21,94,3
10,82,29,1,7,27,1
77,5,18,28,3,34,23
21,253,9,7,4,28,52
2,31,0,66,73,31,5
2,46,1,36,6,21,1
43,100,61,7,3,13,0
19,124,6,124,1,90,45
10,5,6,12,10,53,40
2,145,1,2,41,5,3
32,71,2,74,24,16,1
3,42,20,20,1,140,6
31,168,17,27,1,10,53
5,12,44,20,27,95,26
2,73,4,73,25,6,1
39,16,4,28,3,26,0
54,153,9,3,2,82,21
4,4,19,9,1,6,45
1,55,5,94,56,21,6
1,20,8,129,35,85,1
40,114,3,41,4,18,2
28,132,6,3,2,47,37
1,86,18,26,27,20,38
0,126,2,73,20,56,4
67,112,6,58,6,27,1
17,26,2,3,2,21,3
12,3,29,10,1,13,53
2,194,26,109,42,116,26
32,37,2,114,32,67,3
42,258,1,34,3,8,0
7,13,34,9,4,83,21
6,83,67,64,21,19,47
1,54,13,29,36,42,6
29,7,2,1,9,16,1
37,387,1,4,4,14,0
5,30,41,142,0,9,40
1,18,4,9,7,67,41
13,21,2,0,36,17,4
40,32,47,18,9,32,0
4,314,57,54,3,43,4
1,36,22,20,1,88,54
38,53,0,3,28,16,26
43,108,2,79,20,1,1
7,26,15,8,14,117,0
16,44,43,65,7,6,21
1,93,11,9,11,4,50
18,160,1,16,14,85,6
59,113,2,18,15,6,1
23,209,22,12,5,79,0
2,8,17,10,2,12,37
5,153,1,66,50,9,36
6,67,1,5,25,216,4
33,14,2,28,5,32,2
48,136,62,48,2,24,6
4,28,28,23,28,4,51
1,10,2,4,27,37,23
23,235,1,49,19,17,1
44,48,13,77,3,67,1
3,34,50,34,1,4,16
21,71,9,4,42,0,52
4,5,1,89,31,15,7
63,77,0,23,7,56,2
8,300,19,30,2,81,2
0,11,11,159,7,116,38
0,256,3,14,48,39,41
98,13,1,15,12,97,4
27,215,1,22,3,14,1
4,31,41,6,2,3,2
1,5,61,136,18,68,55
20,172,14,111,39,5,25
47,168,0,18,6,52,1
15,36,27,30,2,3,2
2,45,25,32,4,28,19
6,40,1,11,8,7,55
44,58,2,53,31,14,9
8,20,8,3,15,9,2
30,11,57,1,2,7,2
3,23,16,85,5,84,43
10,97,2,116,25,111,32
54,11,1,14,14,11,2
30,7,1,143,2,57,1
1,105,31,51,2,10,4
1,28,22,63,33,38,51
18,5,2,31,19,3,30
89,47,21,18,3,42,2
6,7,9,46,2,45,2
2,16,33,11,3,38,17
2,4,4,60,37,16,52
14,90,3,6,37,39,6
28,5,14,147,5,19,2
3,75,44,22,2,13,1
1,22,10,2,16,32,34
60,2,2,50,42,21,41
11,0,0,4,8,4,4
24,97,66,139,4,132,0
2,43,40,16,1,22,3
1,38,6,18,20,44,58
58,9,2,26,43,9,29
10,106,14,4,5,15,3
39,22,17,6,2,24,1
3,15,32,141,2,12,13
7,25,3,82,30,13,51
29,96,0,83,36,69,7
80,48,35,28,2,48,2
8,20,43,32,2,3,0
6,23,22,50,5,2,34
10,1,1,38,29,11,40
25,35,1,5,18,42,4
31,16,69,66,1,44,1
3,3,29,32,4,9,4
18,89,1,72,20,34,51
31,16,1,15,38,44,26
20,134,42,46,3,9,2
3,7,64,29,1,11,1
18,12,6,28,0,25,15
18,19,2,14,54,40,52
28,8,1,10,40,6,7
1,1,7,22,2,22,1
14,15,29,28,2,50,1
29,45,12,49,14,13,30
78,31,1,2,37,4,45
7,14,1,3,13,1,4
3,49,22,41,2,12,2
12,4,46,62,9,63,2
37,41,12,35,33,52,55
9,167,2,2,28,84,26
2,4,23,40,6,17,2
6,6,35,17,2,1,0
26,167,4,71,1,75,12
32,36,2,7,61,58,52
2,4,11,37,13,12,7
7,88,20,12,2,31,1
1,235,5,2,2,47,0
58,11,5,0,9,104,30
31,70,0,0,29,4,44
3,90,16,9,20,12,3
1,9,19,65,2,79,1
34,4,13,53,5,39,3
33,99,1,7,48,35,51
2,72,1,2,22,63,31
37,7,44,56,2,37,1
6,69,33,15,0,40,2
63,7,3,2,8,14,13
10,28,1,1,25,2,54
10,48,7,1,36,15,9
2,5,48,89,3,29,3
11,0,12,25,1,20,2
85,107,1,4,13,22,29
10,59,1,0,47,22,49
2,6,40,26,11,17,4
17,0,26,61,2,15,2
66,5,4,9,12,18,1
18,99,2,3,46,103,49
1,5,15,6,10,10,34
12,55,19,48,4,8,3
79,18,10,23,8,15,2
12,2,3,1,32,52,13
2,18,2,2,47,64,59
29,10,35,8,2,75,9
25,14,30,42,1,11,2
16,3,4,14,4,21,1
3,1,2,3,63,52,30
2,47,0,5,17,12,45
8,26,15,1,3,21,5
27,2,30,29,1,1,1
24,1,14,9,24,39,2
2,1,1,2,46,53,48
10,45,13,0,4,42,37
50,38,21,33,0,67,2
56,4,14,33,1,73,1
2,1,17,7,40,48,14
3,73,17,0,53,12,52
14,4,33,3,5,8,11
46,34,4,39,1,28,0
23,2,1,5,13,49,3
2,9,6,2,42,3,47
2,2,40,22,7,6,30
83,29,14,12,8,9,2
10,4,2,25,1,27,1
33,2,1,35,20,83,8
3,0,38,4,34,22,59
68,30,44,1,14,26,22
62,39,10,36,3,20,3
6,2,0,12,7,2,0
1,1,25,4,60,81,26
2,11,53,2,15,9,48
20,27,31,3,3,104,5
39,31,2,21,2,41,1
13,4,2,25,20,9,1
2,3,33,3,29,15,44
73,52,23,2,25,46,38
53,4,2,25,3,86,2
4,4,6,22,4,17,3
1,33,21,3,49,61,7
1,41,9,1,14,14,58
15,10,19,4,7,22,18
40,2,2,37,1,85,3
7,2,0,12,51,32,1
1,2,10,0,46,26,26
1,1,24,1,27,224,46
52,33,16,0,1,16,7
37,41,1,39,0,13,0
1,1,2,26,53,32,1
4,10,87,2,16,20,45
25,12,13,1,3,41,37
55,20,2,21,2,22,2
6,2,3,40,11,89,0
1,1,9,7,70,44,9
31,36,38,1,5,3,57
61,50,14,6,1,80,22
6,2,2,25,2,34,1
5,1,0,22,24,74,2
2,1,17,6,45,9,27
2,67,15,1,6,11,51
62,14,1,7,4,88,6
11,25,9,41,2,62,2
13,5,12,10,24,19,1
35,9,63,2,17,79,43
39,70,16,1,4,55,34
17,12,2,15,2,23,3
0,3,1,34,17,1,1
7,2,33,6,64,60,8
37,7,24,0,19,75,55
42,15,2,2,0,15,21
3,6,1,27,1,58,2
5,39,3,20,34,6,0
0,3,48,2,23,3,27
32,69,14,1,1,103,45
27,61,1,3,0,38,5
5,9,0,32,15,16,1
2,0,12,13,24,35,0
17,30,32,1,6,90,44
43,50,15,1,1,28,34
5,16,1,16,0,15,3
1,9,1,27,33,26,1
0,6,25,4,28,21,6
29,42,31,2,4,63,52
43,17,6,0,1,5,24
3,1,1,27,5,89,1
1,10,1,22,51,28,0
4,17,33,1,32,24,21
37,18,46,0,6,11,47
20,6,4,1,1,45,6
2,17,1,32,12,69,2
0,2,10,25,45,81,0
14,40,45,4,11,13,41
44,14,3,1,3,36,40
8,2,1,14,5,38,4
1,1,2,26,32,74,1
2,22,28,5,10,10,7
22,33,17,0,1,5,55
34,6,2,0,1,15,21
3,2,1,19,13,53,2
0,55,14,23,70,65,0
1,49,44,2,21,6,15
37,11,30,2,3,135,49
27,1,3,0,7,55,5
3,1,7,17,42,44,0
1,35,42,10,9,4,1
15,77,12,2,4,38,44
36,8,1,1,2,18,38
5,2,3,12,8,19,4
1,23,17,32,45,17,1
1,37,26,10,19,13,5
26,7,6,1,6,12,57
25,2,1,1,2,16,26
2,1,1,52,26,2,3
0,38,32,10,38,1,3
1,33,41,4,6,79,26
40,2,4,1,1,27,47
18,1,0,11,1,27,7
1,6,11,16,23,41,1
1,12,47,2,35,5,2
0,71,4,0,9,74,32
33,5,1,3,3,58,36
27,1,1,17,2,12,3
3,2,0,36,62,83,2
1,33,16,5,37,38,2
22,17,27,0,8,10,56
31,3,2,4,2,28,25
3,3,0,26,7,4,2
2,15,11,33,60,39,0
3,55,45,3,9,44,14
38,13,4,2,1,5,49
24,3,2,6,1,6,6
2,2,0,38,13,268,1
1,49,22,11,31,96,1
16,14,35,2,11,13,41
42,2,2,2,1,4,35
6,2,1,22,8,25,3
1,1,13,24,38,128,2
1,29,36,12,20,10,3
26,14,7,2,3,18,55
38,1,1,6,0,45,31
4,2,2,60,25,23,2
2,36,13,8,36,101,2
0,26,21,1,10,54,21
40,2,3,1,1,11,47
32,2,0,14,1,16,5
3,9,5,35,35,6,0
2,45,59,7,38,2,1
5,43,14,2,3,65,34
24,2,9,0,2,58,39
24,1,3,24,13,38,3
1,7,25,35,41,1,2
6,39,34,4,6,55,8
28,18,4,2,1,59,47
26,14,0,1,1,22,30
11,1,1,6,5,3,2
2,53,2,15,46,2,2
14,13,28,3,7,53,18
40,1,8,1,5,176,51
6,0,2,2,1,6,6
4,10,2,21,22,47,2
0,39,19,20,31,75,1
41,5,20,2,5,12,36
43,2,5,1,1,8,33
5,1,1,9,1,92,3
2,28,1,42,58,13,1
2,36,53,10,17,62,3
54,3,30,0,2,9,51
51,1,2,1,2,98,28
4,5,2,15,3,6,1
2,33,7,27,51,78,1
45,16,27,2,15,6,15
11,2,9,0,3,18,54
2,1,1,1,7,4,9
2,9,2,31,14,46,1
0,51,8,19,52,28,1
40,10,31,3,10,4,36
23,0,8,0,1,1,39
5,2,1,10,20,1,3
13,10,1,32,39,36,1
9,39,13,6,12,9,4
37,13,44,2,1,3,51
21,5,10,2,1,1,30
3,9,0,12,42,1,1
1,61,0,29,39,30,1
30,18,29,2,4,25,15
39,2,45,1,1,3,50
3,2,3,0,19,0,8
2,32,1,32,64,4,1
0,28,13,21,12,1,1
34,4,41,2,1,1,37
25,1,9,1,0,3,42
2,0,1,1,29,5,4
1,35,2,39,40,7,2
25,46,8,13,5,20,1
51,4,42,1,8,20,49
16,2,13,1,2,18,32
2,57,2,19,39,3,3
3,34,0,23,33,18,0
42,21,36,3,2,62,14
24,2,55,0,2,4,52
10,15,4,6,24,2,10
1,22,1,45,22,31,0
40,6,5,10,3,10,3
33,2,31,4,2,46,55
6,1,12,1,0,85,35
2,0,2,6,36,5,3
1,34,1,37,39,32,1
30,19,11,15,2,114,16
35,1,29,1,0,6,50
6,2,2,2,14,13,8
0,32,0,16,50,121,0
18,18,0,37,6,45,1
29,2,25,6,1,3,32
14,0,22,1,1,1,48
2,1,1,0,29,3,5
3,46,2,20,25,68,1
32,10,1,38,2,112,1
36,2,33,4,1,145,50
4,0,14,2,0,45,28
0,7,3,8,38,45,2
24,37,1,38,21,2,0
23,28,14,16,3,1,13
6,3,32,1,0,9,54
2,1,4,1,18,27,7
2,61,1,21,47,3,1
5,22,1,34,5,0,2
49,2,29,2,1,2,33
11,0,27,1,1,10,51
1,2,3,1,16,30,4
4,41,0,26,38,5,2
19,26,1,26,3,4,1
27,3,30,3,2,91,51
3,3,16,2,1,45,33
1,10,1,8,19,47,2
13,35,1,43,27,3,1
40,8,12,24,2,26,20
17,2,34,2,1,3,48
2,0,6,2,1,15,8
2,20,2,8,49,6,2
29,17,1,53,49,2,1
30,2,23,8,3,3,31
4,2,29,1,3,14,45
2,20,5,2,58,6,5
1,25,1,18,35,2,1
50,3,4,35,3,19,1
12,2,32,5,1,10,46
2,2,7,1,19,1,36
0,6,1,1,78,82,3
14,46,3,22,84,21,0
29,20,22,37,7,2,10
2,2,38,4,33,19,53
1,1,8,1,74,2,8
1,22,1,1,118,2,2
36,25,0,28,5,39,2
53,1,3,22,1,2,31
4,1,25,2,13,33,46
1,36,14,2,22,33,4
9,8,1,11,4,2,1
45,2,0,36,2,1,1
30,27,35,4,46,18,50
3,4,28,1,83,27,46
1,1,3,0,12,4,3
19,44,1,39,0,1,0
22,15,9,16,52,13,6
37,2,42,2,22,21,62
2,2,20,1,45,11,18
14,5,2,3,12,2,2
45,32,2,32,8,15,1
11,4,6,10,14,69,29
1,0,33,2,39,29,41
2,2,13,1,17,3,4
14,37,1,9,2,0,3
26,34,0,36,13,3,2
5,2,24,10,59,14,50
0,1,33,1,8,18,30
2,1,2,0,2,3,1
48,29,0,10,1,1,2
27,51,2,26,7,11,7
2,6,22,3,54,15,55
2,2,25,1,17,2,18
34,4,5,2,1,0,1
30,47,2,28,2,0,1
5,15,14,20,31,41,28
1,1,29,2,37,36,46
1,0,2,1,3,5,5
38,36,2,16,1,3,3
40,19,2,36,6,0,1
4,11,34,5,59,23,46
0,1,46,1,21,17,38
43,5,4,1,3,3,2
28,27,0,25,0,1,1
4,15,1,21,11,20,9
0,1,31,2,56,17,56
1,1,23,2,7,7,21
5,56,3,4,1,14,2
53,33,2,30,1,9,1
13,2,15,15,33,10,26
1,2,43,1,44,18,46
9,10,4,0,4,2,5
8,33,1,10,0,0,1
50,13,1,29,3,2,1
8,1,47,8,46,31,43
1,0,46,1,18,15,37
1,25,3,0,2,2,4
48,46,0,10,2,2,1
21,36,17,38,15,0,6
2,3,37,4,45,47,55
1,22,8,1,7,13,21
11,62,1,7,2,2,3
53,6,1,38,0,0,1
17,2,10,22,41,14,17
1,7,24,1,23,10,43
2,2,4,0,1,3,6
38,30,1,13,1,3,1
49,64,1,18,3,21,2
3,4,12,5,45,24,43
1,24,8,1,15,3,40
3,16,1,1,2,1,3
60,32,1,21,0,1,2
19,2,27,34,13,8,8
2,0,43,5,39,20,56
0,12,34,0,6,4,20
27,13,3,6,3,0,1
20,5,2,32,0,1,0
6,0,3,21,24,18,28
3,0,35,4,29,11,39
0,35,25,0,3,5,6
34,26,2,24,1,2,2
37,4,0,18,4,21,2
1,0,17,2,42,23,43
2,46,31,0,13,7,38
5,54,5,1,0,1,3
51,4,0,21,1,1,0
29,3,1,46,11,7,7
3,0,36,5,41,34,56
1,19,19,2,8,18,28
13,28,1,4,2,1,1
44,22,0,40,0,2,2
7,1,10,25,28,21,23
2,36,57,4,28,27,46
1,19,7,1,4,6,5
29,3,2,7,1,1,1
39,21,1,38,1,13,1
4,2,18,10,38,28,44
1,31,29,2,18,20,39
12,42,1,1,1,1,4
34,2,2,19,1,1,0
13,1,9,26,11,14,7
2,2,19,4,33,28,54
1,39,5,1,6,3,23
33,18,4,0,0,1,2
57,2,11,25,2,2,1
5,0,5,31,22,26,20
2,16,22,5,35,12,48
7,40,11,2,2,2,6
33,6,1,9,1,1,2
46,2,1,21,2,5,1
3,31,37,16,38,43,40
1,7,25,1,15,14,43
16,31,4,1,1,1,4
43,2,2,21,0,1,1
9,2,1,24,9,22,7
2,16,28,3,42,33,54
1,46,38,1,10,3,25
30,6,2,2,1,2,4
22,2,2,27,0,0,1
2,2,26,21,24,20,26
1,24,36,2,29,22,49
2,30,5,0,4,3,6
42,4,15,16,2,1,0
22,1,3,23,2,7,2
3,2,17,8,34,23,38
2,15,18,0,20,29,37
18,13,2,2,2,3,4
27,39,1,18,1,1,0
9,3,10,30,7,7,4
1,9,44,2,42,29,55
0,27,15,1,9,7,24
48,7,1,1,1,3,2
27,1,2,35,0,1,1
2,1,33,22,9,15,17
0,35,72,2,35,20,58
6,41,9,1,7,1,8
51,22,3,5,1,2,2
37,2,14,33,1,2,2
5,2,20,22,7,1,40
1,66,5,2,36,31,37
8,11,1,1,12,6,4
51,9,0,8,1,2,1
15,2,38,42,1,1,6
2,26,40,4,22,14,51
2,28,4,2,29,21,28
18,9,0,1,5,2,2
40,3,0,6,1,2,2
5,2,19,52,1,20,20
1,33,28,6,32,14,50
2,27,2,0,21,21,5
19,2,2,0,2,1,1
29,2,8,12,1,0,0
2,24,10,60,6,6,36
1,20,37,6,40,32,44
18,9,17,1,13,6,4
60,3,1,1,1,1,2
7,1,15,25,2,1,3
1,14,13,20,16,11,58
2,40,1,2,35,24,28
27,8,2,1,4,5,1
23,2,43,0,1,1,1
4,4,52,51,1,1,15
3,22,9,19,24,1,53
2,27,1,2,28,25,6
37,11,1,1,2,67,2
25,0,7,25,1,4,2
2,34,26,29,6,7,39
1,23,4,3,42,20,34
10,6,2,0,13,17,2
45,2,1,0,2,1,0
7,1,11,29,0,0,4
0,32,28,22,19,14,52
2,6,2,2,30,24,26
26,3,2,1,4,2,4
44,1,3,4,0,2,2
5,2,18,14,1,1,14
2,55,21,17,27,22,40
2,54,13,1,18,13,6
63,7,2,1,3,2,1
19,0,14,13,1,0,0
3,9,4,32,7,4,27
1,39,2,5,41,24,24
12,27,21,1,17,3,2
31,2,1,2,2,4,1
22,2,21,35,1,1,6
2,19,34,13,19,3,32
1,50,6,3,29,32,15
38,9,1,1,3,10,2
32,2,1,6,2,1,2
5,3,25,35,2,2,17
2,32,19,15,27,15,23
8,15,2,2,19,30,4
47,5,0,0,1,3,1
13,1,13,10,0,2,1
1,1,15,27,6,4,22
0,47,11,3,40,21,20
14,17,1,0,19,17,2
48,1,4,0,1,1,0
4,2,33,50,0,1,2
1,14,12,19,18,7,37
9,15,3,4,33,31,14
6,24,1,1,2,7,0
28,2,42,2,0,2,2
9,1,52,35,0,1,14
2,16,4,17,29,2,33
0,10,2,1,26,27,5
41,0,0,1,1,12,2
45,1,20,30,0,1,2
2,7,32,22,7,0,36
1,53,3,10,43,22,29
11,5,2,2,14,16,4
44,1,0,0,2,4,0
17,1,35,33,0,1,0
2,14,12,31,22,3,35
2,50,2,3,32,18,26
38,8,1,0,2,18,2
26,2,35,17,2,2,2
2,0,47,25,0,0,8
2,21,5,5,25,8,45
11,36,3,2,24,30,13
35,37,1,2,2,8,1
11,2,13,29,2,1,0
1,2,33,27,4,2,27
0,45,16,1,44,25,36
33,9,15,1,18,20,4
29,1,13,7,3,3,1
3,2,19,20,1,1,2
1,15,1,20,14,1,37
16,8,2,2,34,26,23
37,8,5,1,4,12,1
9,2,41,9,2,2,2
3,1,37,37,2,0,7
1,9,2,8,31,2,45
44,35,2,2,24,29,12
22,35,9,0,2,22,1
3,10,34,9,2,2,1
1,3,5,43,5,1,20
14,29,2,11,40,3,35
15,19,5,1,15,26,3
29,0,1,0,1,7,0
2,1,32,22,1,2,1
1,16,90,38,17,0,33
3,42,6,2,37,0,27
47,8,1,1,5,34,1
6,2,7,16,2,27,0
3,8,4,23,1,4,8
3,3,16,5,29,1,40
25,19,7,2,21,22,11
34,11,0,0,2,29,1
4,1,31,9,1,3,1
0,33,63,39,7,1,23
2,49,6,11,33,4,35
28,8,1,1,14,24,4
35,3,18,1,2,21,1
4,2,121,34,0,5,0
3,1,24,14,16,1,31
36,39,40,2,39,2,24
15,26,76,0,4,41,2
22,3,16,10,2,25,0
2,1,2,53,2,1,4
0,47,17,7,28,1,40
25,11,3,2,26,13,13
50,11,71,0,2,19,1
5,2,333,12,1,2,2
2,14,22,38,2,1,15
16,44,1,4,35,0,38
41,8,10,0,17,29,4
8,3,101,2,3,24,1
1,0,41,5,1,4,0
1,14,65,38,11,1,31
41,37,95,5,36,17,26
37,5,4,1,5,12,2
7,2,107,3,2,1,0
1,12,11,29,2,1,5
1,45,115,18,25,20,37
29,8,62,2,30,24,15
32,3,13,1,3,8,1
4,1,19,2,0,2,1
1,13,1,33,2,1,19
4,14,9,13,42,3,34
51,25,194,2,17,33,4
19,2,16,1,2,21,0
1,0,4,8,2,1,1
1,47,62,42,6,2,33
22,39,4,14,35,3,30
11,2,25,1,9,26,3
4,0,7,1,2,4,0
0,28,68,9,1,3,7
1,63,25,37,10,1,41
40,9,60,7,35,2,23
24,2,4,3,6,21,2
4,2,53,1,2,9,2
1,42,27,33,2,2,21
1,10,2,37,27,1,38
38,3,1,5,33,5,4
23,14,97,3,2,34,1
1,2,22,1,0,5,2
0,34,2,26,1,1,34
27,8,1,25,34,1,30
65,3,3,1,22,17,3
5,1,27,2,0,22,0
3,5,31,3,1,4,6
1,37,15,29,8,2,43
24,13,1,16,27,1,17
34,3,35,1,8,16,2
2,2,91,2,2,14,0
2,28,19,11,0,3,20
5,34,2,20,9,1,36
47,3,32,3,33,0,4
16,2,86,0,7,36,3
3,7,33,0,1,15,0
1,36,5,24,1,1,24
7,21,1,23,9,1,30
45,2,74,1,39,2,3
10,2,9,1,7,15,1
1,15,110,7,2,22,4
0,25,24,43,0,2,42
33,12,11,27,12,0,15
39,2,90,3,28,7,3
3,2,78,2,3,39,0
1,27,3,20,1,3,18
9,20,212,38,0,1,35
43,1,61,4,22,2,3
17,2,18,2,27,16,2
1,20,115,1,3,17,1
2,35,98,34,1,2,29
16,2,22,22,2,1,31
40,1,35,3,31,0,2
8,2,11,0,22,17,0
1,45,26,1,2,23,3
1,13,99,31,1,2,40
26,4,6,16,8,1,22
49,1,3,0,38,1,1
6,2,57,3,11,42,0
2,27,109,4,1,30,17
0,9,16,24,2,2,34
33,9,8,9,19,1,5
30,1,33,1,16,12,1
2,5,64,1,4,11,1
0,45,170,14,0,1,29
10,5,30,30,2,2,25
48,7,13,6,32,2,2
10,2,47,1,12,15,1
1,3,21,8,1,38,5
1,14,1,9,1,5,38
43,36,43,25,9,1,15
21,3,69,3,33,4,2
5,0,20,0,8,27,0
2,2,8,0,2,9,17
10,29,103,15,2,3,35
36,20,15,22,10,1,5
9,3,32,2,30,11,1
1,0,40,0,5,19,1
2,21,61,2,2,12,21
43,16,11,30,0,1,33
22,5,11,7,10,1,5
4,2,4,2,25,15,1
2,1,41,0,1,31,1
2,49,54,3,2,4,42
36,12,133,19,2,1,21
31,0,18,23,29,10,1
3,0,43,1,17,77,1
0,7,33,1,2,27,14
19,61,7,17,1,3,37
33,6,2,15,8,0,4
7,2,13,7,33,2,1
1,0,9,0,11,19,1
0,30,75,2,2,3,21
42,6,22,32,0,2,31
36,4,7,32,17,3,3
3,13,21,2,23,2,0
2,1,173,0,4,24,3
6,3,6,1,1,17,35
31,33,5,28,0,3,19
50,11,69,14,12,4,2
4,4,67,2,25,31,2
1,1,35,0,2,11,13
27,55,14,9,3,1,38
60,17,26,49,6,2,6
5,1,96,6,30,9,1
1,2,59,1,10,43,0
1,28,13,1,1,15,25
34,29,11,19,1,2,26
37,3,4,28,13,1,2
5,1,70,3,21,36,1
3,2,38,1,4,38,1
2,40,41,1,2,6,39
14,46,21,12,2,1,21
31,10,56,22,26,2,1
3,0,59,3,24,35,1
1,2,4,2,3,20,20
15,33,41,1,0,2,41
47,26,33,58,10,0,4
10,2,27,8,35,1,0
2,8,1,2,6,23,2
4,60,8,2,3,14,23
50,30,105,5,0,3,34
10,3,35,39,16,5,5
1,0,7,13,22,0,2
1,2,80,1,3,18,1
10,8,22,0,1,5,41
24,33,70,6,1,0,25
10,17,28,37,26,3,2
0,1,17,10,18,95,1
12,23,42,0,2,27,13
46,45,33,2,1,2,38
22,8,3,29,8,1,5
1,2,40,13,35,0,0
1,1,104,2,10,21,2
53,36,27,1,1,4,28
20,35,54,4,1,1,29
5,3,6,26,13,1,3
0,1,80,18,28,17,2
13,2,21,1,4,52,2
39,34,102,2,2,13,37
17,53,62,2,2,1,22
1,10,103,43,25,0,2
2,1,11,7,21,15,2
32,24,3,1,3,12,5
21,39,87,1,1,1,45
6,17,20,8,5,4,13
2,1,23,37,36,1,3
7,17,4,24,10,1,1
47,39,2,1,2,36,22
53,13,21,1,1,21,32
4,2,26,8,15,1,2
0,3,6,45,31,1,0
10,57,28,11,4,24,0
63,65,4,0,0,9,34
9,5,107,15,1,2,20
2,1,22,19,30,14,2
0,30,3,11,21,4,0
18,43,32,1,1,9,17
44,3,108,2,0,1,31
4,1,63,19,5,0,4
0,2,18,26,32,3,0
3,20,56,2,17,19,2
34,21,35,1,2,38,18
20,2,4,0,2,3,28
2,0,1,31,19,0,4
3,9,32,15,24,2,0
0,40,6,0,3,15,4
54,22,5,1,0,81,30
25,2,4,0,0,10,18
3,0,1,28,28,1,1
0,64,4,11,21,8,1
31,33,26,2,3,36,7
27,3,73,24,1,11,34
6,1,6,6,5,4,8
0,0,5,17,38,1,2
0,9,66,8,12,2,2
42,45,21,2,3,16,10
29,11,28,0,0,30,33
2,2,3,22,14,4,6
0,2,50,20,24,2,3
10,30,23,2,4,21,1
49,29,4,1,1,17,19
5,3,5,8,0,2,28
1,1,1,33,33,0,3
0,13,46,8,21,3,3
24,54,3,1,1,49,2
47,15,17,1,2,13,29
5,8,12,2,2,0,21
1,8,27,33,33,1,3
3,21,13,9,13,17,1
37,15,26,0,1,17,9
22,1,45,2,0,1,35
2,1,8,10,13,2,10
3,2,36,33,31,0,1
9,41,20,12,5,45,0
42,58,11,0,1,20,17
18,4,14,3,2,1,32
3,1,109,28,14,0,6
1,4,10,29,21,1,1
28,60,8,2,1,55,1
27,28,2,1,1,35,30
5,1,16,1,6,5,18
0,0,44,24,27,1,2
2,33,21,11,14,15,0
10,15,27,7,1,6,7
33,7,74,2,0,6,35
4,1,65,2,10,1,13
2,38,22,33,34,0,0
9,67,2,6,7,9,1
69,18,83,1,1,32,25
18,4,96,0,1,9,26
2,6,11,9,20,1,3
3,64,25,36,19,10,1
25,9,68,7,3,12,0
23,2,9,3,1,4,30
6,0,73,1,10,9,23
1,22,7,26,37,13,2
4,151,5,19,5,5,2
17,8,20,2,2,48,12
23,2,7,1,2,15,42
1,1,9,2,2,2,6
2,20,6,15,34,0,2
9,127,0,25,8,9,0
47,11,30,1,2,41,18
21,3,75,1,0,12,31
1,4,34,14,6,1,3
1,57,3,27,34,4,1
17,47,0,10,9,42,1
54,5,22,0,1,14,24
10,1,28,7,1,2,21
1,33,4,22,15,2,2
10,7,0,18,25,9,0
37,1,44,3,3,9,6
22,1,5,1,1,2,36
2,25,41,6,3,1,11
1,75,10,43,31,0,0
36,16,23,11,39,9,1
49,2,95,0,2,29,20
8,0,6,0,2,11,29
1,1,10,19,5,3,4
12,0,8,23,32,1,0
42,22,38,3,16,16,2
15,5,6,1,3,45,34
1,1,7,2,1,4,22
0,65,2,34,5,1,2
33,83,3,36,33,2,2
48,23,47,4,21,6,7
5,4,41,0,2,39,35
1,0,16,1,0,8,12
2,5,2,39,8,1,1
56,32,21,11,40,3,1
36,7,50,2,28,16,18
4,2,116,0,1,9,30
2,1,55,18,1,8,3
19,2,30,12,14,3,3
42,27,41,3,21,9,1
4,15,8,2,3,30,27
1,0,16,0,1,22,23
2,30,8,69,7,2,3
38,192,43,13,31,1,1
55,9,45,21,9,9,8
4,4,2,1,2,26,33
0,88,13,18,0,22,10
23,28,48,32,10,1,2
44,51,45,45,36,1,0
5,5,50,4,4,0,16
1,0,3,171,1,35,31
1,69,10,18,1,21,5
24,82,61,6,36,1,1
41,9,5,38,17,1,1
14,315,1,4,2,13,26
2,41,45,44,0,39,28
14,143,51,4,1,3,2
50,14,3,26,31,1,0
9,154,3,22,16,2,3
1,51,2,11,1,1,35
1,9,24,22,2,43,11
9,1,70,2,12,44,1
41,383,27,2,47,2,0
25,77,33,1,4,8,18
2,23,4,57,0,19,27
2,63,107,24,1,4,4
42,9,4,1,30,1,2
13,166,3,1,41,1,1
2,102,11,120,4,33,26
0,53,23,86,1,33,26
1,25,18,61,1,6,1
37,39,6,3,24,2,1
22,216,16,155,11,0,1
3,6,1,98,1,1,34
2,77,47,19,1,10,14
29,83,62,2,5,16,3
17,5,17,29,31,7,1
4,2,4,253,7,2,11
2,253,62,22,1,14,32
6,101,54,36,3,39,5
30,25,18,39,8,4,2
23,0,1,271,37,1,1
3,314,10,15,5,24,24
2,112,45,104,2,14,25
3,195,2,51,0,9,1
46,10,14,13,11,2,1
36,228,67,171,27,1,4
3,32,17,11,5,1,30
2,14,24,105,2,33,16
13,31,2,33,0,12,2
52,208,16,1,20,2,1
16,1023,77,95,24,1,15
2,49,12,50,4,0,30
0,10,8,59,2,35,4
46,3,3,56,1,22,1
10,354,39,3,39,2,1
2,26,43,392,29,0,23
1,38,12,21,2,25,29
51,4,12,3,0,10,3
34,224,9,1,1,20,1
5,31,14,56,30,3,3
1,76,21,157,23,3,38
1,94,19,85,1,3,11
33,329,8,166,0,7,2
34,34,61,26,18,1,1
2,225,30,2,36,2,14
1,60,1,115,5,14,25
2,4,6,55,1,15,4
43,20,45,100,2,8,2
6,96,44,251,31,2,0
2,34,29,31,6,0,21
2,50,3,3,1,13,25
13,84,15,158,2,21,4
24,84,52,185,28,3,2
5,9,15,7,52,2,2
9,428,17,126,7,1,36
2,19,9,4,2,20,16
31,186,63,112,0,29,1
9,221,77,300,4,3,0
20,6,4,167,27,0,15
6,379,3,58,10,29,30
1,119,11,6,2,63,4
2,183,163,180,0,8,1
43,112,8,188,15,1,1
8,454,13,27,18,1,23
28,21,67,101,2,20,24
7,130,5,6,2,9,1
4,24,3,149,1,1,0
4,584,44,75,16,1,4
14,21,54,62,16,30,39
0,1,26,41,3,9,9
75,119,18,3,2,27,2
166,40,9,103,7,4,1
19,125,34,295,54,1,4
1,17,38,34,13,2,25
1,131,11,77,1,27,23
21,72,2,95,1,29,2
9,100,13,27,23,3,2
1,126,9,71,32,1,15
0,247,67,188,3,5,32
3,21,34,157,1,22,5
74,2,7,31,1,5,0
61,33,75,4,14,3,1
4,62,23,136,18,2,24
1,324,23,127,3,32,30
22,121,13,70,1,27,3
23,58,2,5,4,2,2
9,8,93,172,15,1,3
2,194,21,53,11,0,33
2,6,3,53,4,35,18
95,1,1,79,1,23,1
39,856,43,6,15,1,1
4,46,32,3,25,2,9
1,44,8,193,1,1,32
1,55,2,117,0,17,10
20,33,2,150,2,35,2
62,58,31,74,27,9,2
33,17,48,249,12,3,25
2,486,9,68,2,9,28
28,21,8,5,1,17,3
137,1,38,3,10,5,1
10,234,36,132,28,1,2
15,195,15,118,9,0,24
32,7,46,170,2,16,19
4,281,2,10,1,19,2
4,142,48,40,11,2,2
1,185,45,46,29,2,9
22,10,25,17,4,10,34
63,24,3,192,2,12,8
42,240,18,86,2,6,1
4,69,18,33,20,2,0
5,118,4,57,18,1,13
23,17,10,114,2,2,29
8,31,37,176,1,29,4
55,406,83,11,4,27,0
7,69,25,30,35,1,1
3,7,3,156,11,1,23
49,184,2,89,1,18,29
9,266,39,19,2,28,2
2,110,59,19,12,9,2
7,21,7,43,25,2,1
2,73,13,100,1,1,27
28,20,13,9,1,7,22
37,2,79,105,0,31,3
24,285,22,48,19,15,1
2,201,1,35,17,1,9
1,12,10,42,1,0,33
80,8,52,189,1,30,10
20,0,25,72,18,47,1
82,104,2,190,35,5,1
35,235,22,110,5,1,24
44,11,24,39,1,4,25
2,48,10,176,1,12,2
24,17,4,30,17,11,2
62,138,3,101,25,2,2
36,38,24,39,3,9,30
24,7,19,140,1,9,22
4,102,9,10,2,35,0
1,3,4,98,32,5,2
82,115,4,28,20,1,9
15,25,6,13,1,1,38
55,104,35,164,1,7,12
4,25,93,21,5,39,1
15,259,13,45,29,11,1
128,10,18,49,12,1,22
16,231,60,4,1,2,21
4,151,21,303,0,21,5
127,34,0,15,20,8,2
22,106,18,215,25,2,4
19,37,43,9,2,0,36
4,107,48,25,0,36,20
64,7,4,61,2,35,2
37,6,25,44,31,9,1
103,0,21,107,35,7,10
2,294,23,39,3,2,30
92,70,3,6,1,3,5
53,72,2,1,3,33,1
11,107,36,102,24,5,1
1,19,46,212,8,2,22
47,32,5,15,2,1,29
27,15,3,146,1,1,3
72,21,6,15,1,25,1
4,12,11,71,30,3,1
13,176,36,57,9,1,22
52,261,2,25,2,2,22
31,43,1,74,3,3,2
18,2,27,104,18,36,0
1,160,11,7,27,9,6
125,75,26,1,3,3,32
7,32,12,89,2,0,11
9,47,8,35,0,0,1
2,8,60,17,14,24,1
1,47,23,15,25,43,18
41,31,2,86,3,4,32
73,400,5,28,1,0,2
10,16,119,11,0,24,2
23,29,7,147,26,37,2
31,351,4,66,21,2,27
38,49,15,38,2,1,20
17,6,9,4,1,0,1
10,133,14,129,1,36,2
21,43,32,106,19,30,9
46,32,4,50,14,2,35
8,79,2,7,0,2,14
4,9,8,3,1,16,0
70,149,36,50,14,32,2
41,91,5,61,33,4,19
5,7,2,26,5,1,26
4,3,10,114,0,0,2
2,64,23,172,1,28,0
6,9,83,23,19,49,2
76,170,7,2,22,4,30
34,20,5,50,2,0,23
31,196,2,58,1,2,2
11,44,25,85,4,69,0
101,210,63,37,33,21,8
4,136,4,18,9,2,35
1,145,58,93,1,0,13
10,52,22,35,2,13,2
55,4,14,28,15,56,2
10,91,44,2,74,9,20
2,15,4,80,9,2,22
5,81,65,24,1,0,3
42,25,33,9,1,17,1
102,70,12,16,9,23,1
14,12,2,1,37,4,28
1,21,2,180,12,3,20
25,61,48,105,2,1,2
98,111,23,4,2,18,2
25,37,4,62,21,12,6
24,83,1,13,17,2,29
17,144,28,85,2,0,14
67,132,37,7,1,4,1
5,30,34,0,0,36,2
55,3,2,35,17,26,18
26,0,1,426,24,3,31
57,131,34,14,4,0,3
14,61,34,35,1,18,1
2,3,10,192,11,21,2
27,0,53,25,54,3,25
13,86,55,57,8,1,27
5,130,6,146,2,0,1
15,32,13,13,2,35,0
18,50,2,107,33,63,10
74,20,65,33,43,5,21
26,4,33,72,16,1,5
4,72,11,56,2,4,0
3,265,2,17,13,38,0
41,34,1,2,66,5,18
88,24,53,134,6,3,28
24,182,17,12,2,1,5
6,9,4,2,1,2,2
0,86,7,31,28,21,0
108,34,14,45,124,15,27
16,228,20,123,6,2,19
22,9,49,37,2,5,1
33,56,3,26,0,3,2
70,55,35,172,27,1,7
10,73,25,31,49,45,33
4,80,34,33,4,4,13
1,69,4,13,4,1,3
2,158,15,1,0,83,0
70,21,124,120,10,14,15
5,19,7,56,0,5,29
45,160,1,7,98,0,3
7,6,0,5,69,42,0
3,89,2,14,114,63,0
24,102,28,20,22,7,20
51,37,39,4,26,8,20
3,67,21,142,32,21,2
2,39,8,21,21,1,0
40,3,16,4,3,87,5
23,57,18,134,2,9,27
4,142,3,11,1,78,15
2,8,1,48,115,56,2
62,2,24,69,29,7,0
31,17,24,5,1,71,17
7,110,15,12,1,10,30
9,8,0,161,1,147,3
12,71,35,33,65,122,2
75,165,87,131,31,13,0
23,122,14,91,26,306,22
1,37,1,43,3,7,28
1,10,12,45,22,200,3
22,112,19,5,22,22,2
107,157,5,26,4,79,4
8,53,1,31,48,143,35
5,169,3,22,68,127,13
1,97,1,24,14,244,1
82,9,62,11,51,19,0
17,5,27,13,4,62,15
16,18,8,259,27,16,36
1,6,4,9,42,35,5
22,33,2,5,14,74,2
37,39,53,92,1,49,0
44,72,3,116,3,117,28
2,22,11,29,95,102,24
11,117,2,90,41,55,2
56,33,9,47,2,125,1
21,14,73,22,16,30,4
2,2,57,58,59,147,33
8,159,5,20,73,176,13
26,34,5,25,6,200,3
37,7,15,3,1,19,1
2,184,23,18,5,38,12
1,13,1,4,47,134,33
2,94,16,118,16,179,5
14,52,58,5,3,61,1
52,9,21,43,2,151,0
10,64,1,79,20,71,25
0,74,0,40,44,45,24
7,5,23,3,25,10,1
82,215,23,39,3,30,0
21,27,20,19,19,112,3
3,139,12,9,24,3,30
17,8,1,108,53,260,18
17,64,68,19,4,86,1
6,60,34,74,3,14,0
30,17,3,21,58,5,11
2,16,1,85,25,28,32
13,136,75,5,5,137,3
91,119,22,46,22,54,2
11,4,1,41,12,188,1
0,115,2,58,17,21,23
18,25,3,12,32,160,24
110,184,39,46,9,38,1
5,9,32,46,18,107,0
1,5,4,88,16,144,4
0,46,1,8,42,24,33
36,129,1,16,6,172,16
53,21,33,9,2,29,1
35,14,49,74,22,206,1
1,35,8,21,52,8,13
40,84,1,74,14,74,27
14,8,19,6,12,273,3
7,90,36,146,46,54,2
1,49,37,143,20,8,2
13,146,2,32,41,5,27
59,39,62,38,78,29,19
15,49,22,11,78,138,2
6,5,55,3,54,316,1
2,150,4,75,13,17,2
6,63,62,26,0,69,29
19,16,3,25,24,264,18
11,100,42,23,17,27,2
7,25,11,1,38,189,1
57,11,3,0,6,202,12
41,18,14,113,2,8,29
11,129,81,16,30,8,6
0,16,11,63,36,19,1
36,6,6,21,7,18,1
79,93,1,30,5,63,19
30,29,34,38,5,170,27
1,81,40,89,83,67,1
5,5,22,6,16,104,0
2,0,4,53,2,83,3
65,39,11,61,0,132,32
21,203,28,15,44,61,18
2,8,2,47,60,78,1
1,69,71,20,13,78,2
50,107,16,103,10,6,13
13,36,39,5,13,28,30
2,3,8,12,51,78,6
2,63,3,62,13,234,2
53,14,0,53,1,9,1
81,17,11,24,6,13,16
8,29,12,6,34,38,31
9,34,9,1,21,40,3
5,107,2,5,22,9,1
13,12,2,62,5,164,1
61,39,46,38,60,77,27
19,50,11,34,29,14,16
1,80,2,2,2,83,1
1,43,0,197,1,73,1
107,3,12,9,2,62,13
5,171,43,13,34,203,26
3,10,13,69,25,10,4
36,115,1,7,6,154,2
18,3,14,25,0,15,0
53,114,84,2,29,90,20
4,5,10,0,22,42,25
3,212,1,129,10,161,1
45,10,2,12,3,28,2
16,9,1,43,42,13,1
28,68,45,17,20,95,30
2,21,24,33,25,22,19
29,26,1,76,2,113,1
54,61,2,13,18,210,1
9,15,84,11,31,341,13
2,134,22,24,33,12,35
38,4,9,27,3,420,4
35,4,1,13,9,30,0
42,46,4,95,50,157,1
3,47,34,64,45,28,23
11,35,14,42,6,47,28
10,11,0,3,0,49,2
41,19,0,2,4,26,1
14,9,17,15,47,26,4
2,18,66,47,19,242,27
20,2,22,34,2,121,15
19,0,2,31,3,221,1
51,107,2,71,26,39,2
32,54,1,34,67,10,8
3,4,29,46,12,264,32
74,4,111,4,1,51,13
29,149,26,66,1,32,2
2,45,45,55,34,135,2
2,59,19,30,38,25,17
55,10,2,4,4,4,27
34,110,2,53,2,98,5
43,13,15,27,2,174,2
3,4,150,24,56,11,1
3,33,15,86,14,206,30
11,107,1,16,1,55,16
22,12,25,20,1,92,1
26,2,5,128,37,161,2
2,71,4,49,41,17,10
2,5,1,19,5,66,32
79,74,1,67,1,25,7
21,5,62,71,8,148,2
3,25,59,38,61,187,0
6,59,55,2,16,62,17
11,50,4,109,13,32,30
16,3,2,34,0,48,3
18,17,2,51,6,17,2
3,12,65,4,39,19,2
1,32,66,83,33,101,23
18,2,4,18,4,6,24
26,2,31,27,4,52,2
2,66,16,7,24,26,0
17,4,1,10,14,126,5
23,218,0,98,5,75,34
44,39,149,13,1,297,10
2,5,248,37,6,109,0
16,79,59,61,60,50,0
60,89,5,40,18,4,24
50,4,8,18,3,82,25
14,180,51,30,2,95,4
2,14,6,63,8,129,1
8,73,2,36,70,55,3
32,6,1,20,23,230,32
33,2,68,5,1,54,22
3,40,132,86,1,16,2
28,95,7,26,48,134,2
57,36,2,12,32,165,7
6,28,59,1,6,19,29
43,85,14,34,5,2,11
3,69,10,44,6,1,2
33,31,15,78,44,58,1
6,3,2,15,10,174,15
52,6,37,55,2,14,27
14,22,88,21,15,92,3
2,20,41,28,7,46,1
45,87,4,46,43,27,2
14,17,0,6,5,21,29
0,176,1,124,1,37,25
2,36,11,19,4,52,2
25,3,12,7,24,34,0
63,1,8,2,25,7,10
12,181,63,54,13,15,32
2,55,22,41,2,20,7
21,11,3,7,22,29,2
79,16,49,7,34,11,2
18,63,7,5,14,2,23
2,20,60,65,3,127,26
28,3,5,33,23,26,3
11,5,2,3,41,55,1
42,7,0,1,9,26,4
3,20,7,25,3,94,22
7,57,32,157,1,48,23
8,23,5,11,53,10,3
40,3,30,12,21,189,1
23,147,9,84,13,158,7
2,99,10,8,1,16,35
29,6,23,24,5,8,13
24,30,2,4,18,30,0
43,98,1,97,15,33,1
5,98,1,12,3,146,14
1,10,47,5,1,8,24
37,44,5,14,7,34,3
37,88,8,20,51,26,1
10,28,40,98,25,92,1
2,3,13,36,2,30,27
0,42,8,6,1,25,16
54,56,48,0,36,79,2
12,52,7,28,18,8,2
12,21,1,37,5,69,10
1,68,34,4,1,25,32
5,5,5,33,7,59,4
57,60,6,5,66,79,1
6,56,6,68,19,6,0
38,53,3,96,2,2,21
2,5,26,16,1,98,25
5,77,71,13,9,25,4
5,27,9,32,74,32,0
30,13,2,41,8,13,1
7,11,2,53,1,232,28
6,108,4,8,0,143,25
12,39,25,57,22,42,3
51,3,6,8,57,147,1
3,1,2,6,16,112,2
1,74,19,41,2,49,32
10,69,36,22,1,7,18
99,4,16,64,23,11,2
20,2,3,6,36,61,2
3,165,0,8,3,96,17
7,27,22,3,0,44,30
51,18,30,147,18,5,4
15,2,4,49,44,71,1
4,36,2,9,7,78,0
1,57,1,5,1,13,25
39,14,22,26,1,97,25
5,15,3,105,37,52,2
60,1,1,69,22,151,2
3,79,19,60,19,149,6
1,41,10,6,8,57,33
8,17,34,3,32,16,11
65,4,9,80,37,54,1
25,36,2,108,8,23,2
2,49,1,10,3,56,16
0,105,7,44,0,60,31
71,7,75,22,32,40,4
73,13,7,31,31,2,1
12,82,21,49,2,31,0
2,6,6,25,2,58,30
22,1,44,109,3,32,26
29,78,15,5,43,90,1
8,78,1,82,25,9,0
1,26,2,46,6,28,5
42,17,6,3,2,127,33
27,8,68,41,27,9,11
10,168,25,10,56,13,1
2,43,3,85,6,62,1
9,5,0,147,2,41,18
18,0,10,6,2,28,29
20,98,7,2,3,31,4
4,62,4,34,57,48,1
0,6,1,11,11,82,1
38,47,2,19,1,6,25
86,8,28,49,5,18,23
18,181,24,106,65,14,3
1,29,3,92,15,195,0
24,1,1,26,1,15,3
18,0,24,29,2,2,28
14,222,51,43,5,41,20
15,59,7,36,43,97,2
1,12,2,83,8,41,2
24,13,1,34,2,31,15
38,127,24,39,7,22,31
4,44,31,148,15,5,3
0,3,10,24,39,145,2
0,14,1,34,12,14,1
61,29,1,50,1,29,28
78,60,37,26,10,51,29
5,5,45,15,49,87,2
1,4,5,3,10,7,0
56,46,2,52,1,29,6
35,124,12,69,1,97,39
8,6,20,9,65,7,15
1,56,32,46,39,27,1
0,30,10,7,4,31,2
40,31,14,131,2,78,13
11,3,35,6,18,39,28
10,1,4,20,32,2,3
2,5,1,20,8,16,0
42,58,0,71,2,119,0
40,46,17,20,1,57,26
13,62,39,26,25,20,22
29,5,4,22,45,2,2
27,40,1,73,6,127,0
30,12,2,35,1,63,3
6,49,12,4,13,22,30
1,11,13,33,57,30,19
17,11,1,68,30,65,2
2,27,1,37,4,15,1
24,44,13,30,1,95,11
25,20,29,6,2,34,28
2,25,2,101,45,22,2
27,58,1,17,13,2,2
103,54,2,31,1,13,0
19,4,34,58,4,148,26
2,2,8,115,58,9,25
1,49,13,6,27,121,3
56,42,3,86,3,35,0
11,7,1,30,1,4,8
2,22,22,21,0,58,31
3,212,14,94,42,18,15
7,14,3,6,15,34,2
86,4,0,1,1,4,1
16,119,9,25,3,55,14
2,4,75,86,6,130,28
74,89,29,13,67,40,4
61,51,3,4,11,1,2
10,3,3,9,1,0,1
2,61,30,136,0,65,22
24,138,17,85,29,47,24
15,11,2,8,66,31,2
55,18,1,17,5,3,2
15,5,3,39,0,64,5
2,22,21,43,1,18,28
49,1,7,6,40,6,14
38,45,2,6,18,41,3
4,4,3,75,6,33,0
1,40,1,59,1,22,12
0,15,30,5,10,17,29
74,45,31,22,38,49,4
14,49,4,42,6,41,1
10,33,2,50,0,166,0
2,8,7,15,0,5,20
44,66,15,136,34,4,24
53,69,52,9,29,53,2
8,55,5,219,2,54,2
20,25,1,17,2,14,7
6,7,11,44,3,2,27
28,2,31,14,52,36,17
8,15,2,53,14,56,1
25,145,1,140,17,37,1
3,5,28,13,1,3,5
61,2,17,13,29,11,33
12,17,23,36,56,95,11
5,27,3,19,8,27,2
5,102,1,1,2,3,2
3,12,4,6,5,16,18
98,27,42,3,29,33,27
36,37,10,111,45,119,3
5,73,1,11,3,7,0
2,31,1,21,2,75,2
1,46,29,34,3,3,30
55,37,14,37,73,78,24
56,14,3,84,10,66,3
4,2,1,6,2,5,1
0,0,1,1,1,32,10
74,31,37,106,53,37,29
96,25,28,75,23,46,4
9,9,8,34,4,76,1
3,1,2,29,1,57,0
2,0,1,3,1,109,22
126,97,37,2,40,7,25
49,34,6,0,32,2,2
4,5,1,8,2,43,0
0,35,2,71,3,32,1
17,30,14,14,11,29,32
34,57,38,2,24,2,21
32,4,5,1,15,14,1
1,16,2,18,2,68,2
29,9,0,47,1,16,3
25,11,35,37,28,75,32
9,10,30,5,14,6,9
1,64,3,39,7,42,1
1,9,1,22,2,34,1
51,1,1,24,28,15,14
44,148,50,5,67,35,25
18,8,27,0,6,2,5
6,2,3,36,1,117,2
1,136,1,9,1,25,1
123,17,9,4,27,2,18
18,2,25,1,44,44,26
1,91,8,1,2,58,3
21,26,1,22,1,14,1
35,2,1,29,5,97,2
36,206,2,1,46,7,32
3,13,39,0,13,2,23
2,50,18,2,3,57,2
63,12,1,50,1,26,2
16,52,2,25,9,2,10
29,38,35,3,47,30,28
8,9,11,1,12,11,4
2,81,1,8,2,107,2
58,7,0,55,1,8,2
26,11,1,30,35,2,20
2,22,32,2,23,18,27
1,7,14,1,3,29,2
40,111,1,9,1,3,0
8,13,1,61,1,60,1
55,51,25,22,36,32,28
4,4,40,2,25,77,17
2,57,4,4,1,6,3
106,7,1,56,1,10,1
42,68,0,10,28,4,19
2,73,41,2,22,107,34
1,11,33,0,12,23,5
7,32,4,12,2,59,2
31,13,1,38,1,23,0
6,133,1,6,52,72,16
1,33,31,2,14,8,26
10,4,16,1,2,7,2
73,1,0,20,2,24,0
17,1,2,32,3,145,1
57,74,2,2,48,24,29
4,17,27,1,14,9,19
4,18,41,5,1,11,3
52,3,2,19,0,38,2
25,4,0,22,52,10,7
2,64,42,3,31,9,35
6,6,36,2,5,19,13
64,139,1,5,1,80,2
19,174,1,34,3,13,1
20,37,33,9,48,4,21
3,3,28,1,25,14,27
46,0,7,0,2,73,2
28,58,2,27,2,44,1
18,56,0,26,6,62,1
2,5,1,2,49,4,29
0,3,29,2,14,8,21
80,45,19,2,1,101,2
42,6,3,28,1,106,0
4,50,1,28,24,4,9
2,15,12,2,29,35,34
65,2,26,2,9,62,9
62,27,3,1,1,20,3
10,36,1,27,1,42,1
1,6,2,18,30,56,9
70,29,45,2,31,37,33
80,2,25,2,6,16,8
53,10,2,10,2,17,3
4,13,1,37,1,56,0
6,25,34,7,32,10,5
24,3,34,2,8,11,31
34,25,3,0,2,3,13
6,53,1,20,2,27,0
1,20,2,29,1,119,1
25,2,18,4,47,28,19
18,21,14,0,14,3,31
20,45,0,1,1,57,4
11,43,2,31,1,61,3
14,3,13,14,5,19,2
15,3,21,2,51,22,22
42,14,3,1,10,3,24
4,2,4,17,1,107,1
2,13,2,26,1,26,2
16,15,3,2,31,36,6
23,122,28,0,35,63,30
1,10,2,2,3,56,11
10,3,0,20,0,14,2
57,23,1,25,13,12,1
46,13,22,4,40,3,24
15,72,35,0,6,145,17
2,36,6,2,1,5,4
49,83,2,25,0,67,2
66,43,1,13,14,22,0
7,35,13,0,21,128,23
1,3,32,0,8,176,21
16,75,3,5,0,11,2
55,39,2,35,1,26,0
47,162,31,10,21,40,6
10,19,30,2,23,6,30
3,227,8,1,8,59,15
3,16,1,9,2,21,2
45,159,2,29,14,5,1
57,3,5,5,55,37,18
4,26,43,2,14,41,31
2,61,15,0,2,66,3
63,75,2,27,3,64,1
13,253,1,17,38,7,0
3,98,18,2,19,120,23
15,231,31,0,1,33,25
25,15,7,0,1,118,2
18,45,1,35,8,85,1
13,147,1,9,37,7,5
7,30,23,3,18,7,33
2,362,59,0,1,18,13
112,12,5,0,2,60,2
11,214,1,26,27,67,1
2,8,20,44,34,15,19
6,3,30,2,3,3,27
26,91,6,1,0,54,3
31,19,1,9,7,114,0
4,16,1,30,36,121,1
3,24,31,12,18,109,25
6,17,28,1,2,95,22
44,33,11,1,1,26,3
29,199,2,35,5,4,2
1,8,10,15,62,123,5
2,2,28,15,13,64,36
81,29,3,1,3,4,15
33,56,2,1,1,26,1
10,59,1,32,20,32,1
2,6,20,7,48,41,17
3,19,31,2,13,26,31
19,47,5,1,1,166,5
22,80,2,23,1,22,1
4,24,1,9,56,90,2
2,56,26,15,17,45,27
35,21,29,1,3,6,22
59,3,2,2,0,41,2
5,2,1,35,18,107,2
9,27,16,9,38,29,4
1,6,12,3,4,66,35
90,39,7,2,1,26,17
46,27,2,1,2,47,2
5,2,1,6,31,17,1
2,1,26,50,44,79,17
9,61,22,5,4,26,28
43,37,6,2,1,65,3
8,3,2,0,18,10,0
1,1,2,17,43,12,0
1,19,19,15,7,111,25
0,79,55,1,1,14,22
163,67,6,1,5,15,2
50,4,1,0,10,33,0
5,3,1,25,39,29,4
48,47,31,22,7,41,30
7,23,21,1,2,56,14
4,27,3,1,9,9,3
8,5,0,4,31,23,1
12,33,14,41,48,113,8
2,44,23,8,3,50,36
10,14,5,2,0,41,8
9,3,2,1,15,57,0
43,5,1,6,41,14,1
3,14,29,34,11,6,14
99,20,4,14,1,15,30
18,2,2,1,1,21,4
73,39,2,2,27,16,1
4,50,7,21,24,10,0
31,40,57,27,1,74,15
39,4,13,5,2,50,24
11,1,1,1,2,40,2
7,13,1,1,31,5,2
1,58,11,5,41,41,4
41,6,22,18,2,111,30
39,31,4,3,0,4,16
3,3,1,1,23,43,0
150,10,1,0,21,21,2
100,47,41,31,11,29,13
2,4,18,12,1,37,32
3,1,1,2,27,10,4
77,2,0,2,44,21,1
14,63,1,10,7,90,0
41,32,20,33,1,14,21
6,1,40,3,0,20,26
2,3,3,2,42,11,3
1,9,0,1,36,9,1
19,51,4,10,6,28,5
37,22,31,22,1,36,34
15,2,6,4,0,65,15
1,14,0,2,33,14,1
11,18,0,1,28,81,1
47,18,5,24,4,52,14
8,3,24,15,1,22,31
1,10,33,1,4,66,2
2,16,5,1,34,98,0
25,36,2,6,42,7,0
35,2,7,31,2,30,26
3,1,42,11,2,7,24
2,5,8,2,5,50,1
0,50,2,0,42,18,1
34,27,1,11,18,11,3
28,21,10,26,1,51,31
3,3,26,3,2,22,18
1,33,1,2,28,4,2
7,31,1,2,22,10,0
48,6,4,11,5,8,13
13,2,56,51,0,100,28
2,0,7,2,2,24,3
1,107,1,1,57,13,1
