HandOpen,HandClose,Wrist Flexion,Wrist Extension,Supination,Pronation,Rest
0,21,0,0,3,32,53
1,13,1,1,10,22,37
1,5,1,0,28,9,16
1,3,8,1,41,4,7
1,1,17,8,47,3,3
15,2,25,23,44,1,1
33,2,27,37,34,2,0
43,1,27,43,17,0,2
42,1,22,36,8,0,2
35,1,9,23,5,6,1
19,7,5,14,2,16,14
10,16,3,5,1,24,34
3,26,2,3,0,34,53
3,31,2,2,1,40,61
0,29,1,2,1,36,58
1,19,0,1,14,24,43
0,8,1,2,33,9,21
2,5,6,3,49,4,8
4,2,15,11,53,1,4
15,1,23,26,45,2,2
35,1,26,37,27,1,2
45,2,22,41,12,0,0
45,2,18,35,6,1,0
35,5,6,24,2,3,1
17,13,3,12,2,12,10
7,19,2,6,0,25,31
4,26,1,3,0,33,46
1,19,2,2,0,36,53
1,13,1,1,22,31,22
7,1,0,5,55,3,0
47,2,11,29,5,0,0
29,1,27,24,2,6,26
3,18,4,1,2,25,57
1,18,2,0,36,12,5
6,1,2,10,26,0,1
41,1,16,39,1,0,0
10,2,23,5,0,4,34
1,21,3,1,10,19,46
2,9,0,1,51,15,4
22,1,2,22,7,2,1
34,1,24,36,1,2,5
3,1,10,4,0,22,51
0,21,0,1,21,19,28
1,12,1,1,48,3,3
40,1,18,32,4,0,1
28,1,26,27,1,2,26
2,9,1,2,2,24,59
2,32,1,2,46,16,6
8,6,1,14,34,2,1
50,2,23,37,3,1,2
11,0,21,6,0,6,34
0,7,2,2,11,28,48
0,38,1,2,51,12,5
25,9,3,28,7,1,3
47,2,25,27,1,0,6
5,1,9,4,2,14,53
1,9,1,2,31,22,28
2,34,0,4,45,2,1
40,5,1,37,4,1,1
30,0,17,23,2,3,20
2,1,10,2,0,16,55
2,8,0,2,36,24,8
9,35,1,14,34,2,1
43,11,11,35,2,1,0
16,1,25,4,2,6,32
2,1,3,1,11,27,48
0,13,1,0,51,7,4
15,15,0,25,8,1,1
42,0,21,36,2,0,1
5,0,21,2,1,6,49
1,1,1,0,28,24,29
0,21,0,3,52,6,2
32,15,2,33,6,1,2
22,1,31,17,1,0,13
2,1,10,2,2,0,56
2,9,1,2,36,30,12
6,23,0,8,32,20,1
39,7,14,46,2,2,3
15,2,22,13,2,1,51
2,2,1,2,11,9,26
1,15,1,0,45,20,1
16,30,0,28,6,6,1
40,4,21,32,2,2,25
4,1,23,2,1,1,56
1,1,1,2,29,23,6
0,18,2,5,51,25,1
32,16,2,44,6,2,1
32,1,22,18,0,0,39
3,2,9,0,4,1,45
2,3,1,0,53,18,3
10,21,1,12,38,26,1
46,6,3,40,2,3,11
7,0,21,5,0,2,52
1,0,7,0,6,3,9
2,2,1,2,42,30,2
17,17,1,23,31,18,1
43,13,1,27,3,1,23
3,1,29,3,2,0,52
1,0,13,2,25,9,6
2,12,2,3,49,35,2
44,21,1,35,5,10,0
37,4,9,17,2,1,33
2,0,43,1,2,1,39
1,1,9,0,37,21,3
2,11,0,12,32,30,0
40,17,1,35,1,2,5
16,2,14,5,0,2,47
0,0,27,2,6,6,27
0,2,5,1,47,26,2
15,20,2,29,25,21,0
38,11,1,33,2,1,22
3,1,16,3,0,0,58
2,1,21,1,23,8,6
2,5,2,3,59,31,0
37,28,2,31,7,8,3
33,11,0,23,2,2,45
3,2,28,1,6,0,38
2,1,13,0,55,10,3
2,14,2,10,30,28,0
33,18,1,40,2,3,4
23,3,11,5,0,0,48
2,3,24,2,11,0,29
1,1,1,0,50,19,1
11,21,2,27,9,22,0
45,14,2,34,2,1,21
6,0,31,5,1,2,52
2,2,24,1,20,2,5
2,4,2,4,46,27,0
29,28,0,41,4,9,2
28,11,0,29,0,1,34
2,1,19,3,2,0,42
0,1,14,0,36,7,4
1,15,3,12,27,31,0
37,21,0,37,2,14,2
22,3,5,7,2,1,47
2,1,24,1,8,1,37
0,2,4,0,43,8,3
13,14,0,22,27,28,1
40,24,2,39,1,10,14
5,2,9,3,1,1,53
1,1,28,2,23,1,5
0,1,6,4,54,20,2
35,20,0,35,6,32,1
35,23,0,23,1,3,29
4,3,4,1,3,2,43
2,1,26,1,38,2,3
1,10,11,12,31,28,0
34,25,1,43,2,33,0
17,3,1,6,2,2,42
2,0,12,2,14,0,32
2,2,19,0,52,9,2
13,18,2,13,11,33,1
45,16,1,32,1,9,16
5,1,0,3,0,2,53
2,0,22,1,37,0,7
1,6,9,2,38,6,0
26,23,2,33,3,28,2
33,10,1,22,1,9,35
3,2,2,1,5,1,48
1,0,31,1,47,0,5
1,7,13,14,22,9,0
37,25,1,46,1,29,2
27,5,1,6,2,11,42
1,0,6,1,34,0,34
1,0,26,0,40,0,2
6,12,9,20,3,20,0
38,20,2,37,0,26,15
22,2,1,3,1,2,57
3,1,10,2,32,0,10
2,1,24,1,30,8,0
25,8,3,38,2,32,3
32,24,2,28,2,15,46
3,1,2,3,10,1,32
1,0,17,1,53,2,1
3,0,20,9,9,5,0
32,15,2,37,2,32,13
27,16,0,10,0,10,57
3,1,6,0,21,0,8
1,1,26,1,47,0,2
17,4,7,18,5,12,0
43,25,2,32,2,35,33
5,7,1,5,1,6,47
0,2,1,2,27,2,2
2,0,20,3,41,0,2
22,3,9,38,4,26,6
34,22,0,25,0,22,48
4,9,0,2,3,3,33
0,0,2,1,45,0,2
2,2,19,5,19,1,0
31,3,16,47,2,34,18
29,25,1,17,1,15,60
1,7,2,0,18,1,9
0,0,6,2,52,1,2
9,1,20,27,7,8,1
38,8,8,31,2,31,32
14,21,1,3,2,6,50
0,9,2,0,32,2,3
1,2,6,3,39,2,1
25,2,25,39,2,17,1
42,2,6,22,0,31,49
4,25,2,2,2,3,41
1,11,0,1,34,1,1
2,1,15,8,21,3,2
38,2,29,43,0,26,14
32,15,3,12,0,21,53
2,23,1,0,16,1,8
1,2,1,1,51,1,1
11,0,15,20,5,5,2
47,0,19,32,2,29,23
4,24,2,2,2,12,48
2,18,1,2,25,2,5
2,2,2,2,47,0,0
21,1,26,30,6,6,2
37,1,12,23,1,36,46
2,25,1,1,2,10,29
2,12,1,0,35,2,2
1,0,6,9,20,2,0
35,1,33,45,2,21,15
27,7,9,8,1,16,53
1,27,2,0,19,2,7
0,5,2,0,48,1,0
9,1,7,10,6,1,0
42,1,25,44,1,33,33
14,9,7,6,1,16,48
2,28,1,1,35,1,2
1,6,2,0,34,1,2
26,2,8,20,2,12,1
41,0,28,36,0,30,46
5,8,4,4,2,4,36
1,29,1,0,39,0,1
1,6,2,2,18,0,1
32,2,9,36,1,20,14
38,0,26,25,0,24,58
3,19,5,1,20,2,10
0,22,1,2,50,2,0
4,3,0,5,5,5,7
40,0,13,31,0,27,54
18,0,26,21,2,20,40
1,16,4,2,37,2,1
2,20,1,0,50,2,1
15,2,2,11,2,24,18
36,2,15,29,1,51,66
4,2,16,2,2,4,10
2,29,2,1,43,0,2
2,17,0,3,31,0,2
27,1,1,32,2,25,42
29,1,22,26,1,34,32
3,8,8,2,12,3,1
0,28,3,2,56,1,1
4,6,1,10,7,2,11
38,1,0,40,1,22,52
13,1,31,7,0,22,9
2,11,15,1,36,1,0
0,29,1,0,39,2,2
17,4,0,19,3,11,24
39,2,5,35,1,35,48
4,0,28,2,9,5,4
0,9,7,1,60,1,2
1,26,2,4,26,1,6
24,3,0,31,1,23,54
31,2,2,22,1,33,35
2,2,27,3,18,4,1
2,12,10,0,54,0,1
3,21,0,19,7,3,11
33,1,2,54,1,21,53
11,1,13,6,1,17,8
2,1,19,0,35,1,1
0,21,2,1,34,0,1
20,8,0,15,2,12,37
38,3,2,41,0,36,47
4,1,22,4,11,4,4
0,3,19,3,45,2,1
2,29,1,2,14,0,4
21,12,2,28,2,26,48
29,2,9,28,2,20,36
1,1,29,2,31,1,2
1,8,4,0,39,1,1
9,25,1,5,2,3,9
34,4,1,36,1,29,48
17,1,6,11,3,21,23
2,0,27,0,52,2,1
1,6,11,1,28,2,1
17,22,1,21,1,8,26
45,8,1,38,2,33,49
4,2,12,3,12,9,4
0,0,25,1,50,2,2
1,6,3,3,5,0,2
31,27,0,45,2,5,45
34,9,0,25,1,38,32
3,1,24,1,28,12,1
0,2,19,0,44,1,0
6,8,1,5,3,1,8
40,27,2,36,2,14,53
22,4,2,17,6,29,22
2,0,20,1,42,2,0
2,1,4,2,21,0,1
23,6,2,18,1,5,26
51,36,0,33,1,35,50
5,8,6,3,28,14,5
1,3,21,1,45,1,0
0,1,10,1,5,0,0
19,7,2,31,2,10,45
33,26,0,25,0,39,41
1,5,11,1,25,8,4
2,1,21,1,39,1,2
4,2,3,8,3,2,10
35,6,1,40,1,14,55
18,23,1,15,0,24,9
1,8,21,2,40,2,1
0,0,14,1,30,1,2
12,1,1,10,1,4,35
47,6,0,35,0,22,56
4,26,6,4,13,17,4
1,4,32,2,46,1,1
2,1,14,1,5,2,3
27,0,2,35,1,5,47
32,11,2,37,2,31,32
2,33,13,3,25,9,1
2,5,20,0,48,2,0
6,2,2,5,4,1,8
37,1,2,39,1,8,50
19,14,2,13,4,35,20
1,22,22,0,44,12,1
0,2,10,0,30,2,0
14,0,3,20,1,2,17
47,0,1,33,0,13,58
5,28,5,2,11,32,9
1,24,25,0,48,3,1
0,1,8,1,8,1,2
22,1,2,31,2,7,37
32,6,1,27,1,26,30
1,26,10,2,27,23,2
0,5,28,2,47,1,0
3,1,5,6,4,0,10
34,0,0,37,2,13,52
25,7,0,12,2,30,10
2,25,12,0,38,9,0
2,9,30,2,31,3,2
13,2,5,14,3,0,39
50,0,1,34,2,13,41
7,5,0,4,16,41,3
1,26,21,1,46,5,0
0,8,17,2,5,2,6
23,2,2,29,1,1,46
36,0,0,25,0,18,23
3,8,8,1,22,29,1
0,31,21,2,35,3,2
1,9,10,9,1,1,30
28,2,2,42,0,2,51
33,1,1,17,5,33,4
3,5,12,1,37,14,1
0,32,24,0,26,2,1
6,13,4,18,3,1,37
43,0,2,42,1,24,38
15,1,2,5,17,30,3
1,18,16,2,53,2,1
2,38,12,2,7,0,4
19,4,1,32,2,1,49
28,1,2,31,1,27,25
1,1,3,3,23,27,1
1,19,22,1,36,2,0
4,14,7,5,3,0,19
29,1,1,40,2,6,46
26,1,2,16,4,36,5
2,8,2,1,39,21,2
0,26,26,0,31,2,4
6,9,8,15,3,0,41
40,2,0,46,2,10,28
10,0,0,4,10,34,1
1,5,7,1,50,5,1
0,29,28,1,6,2,7
28,7,5,33,1,0,58
32,2,2,30,0,23,24
1,0,2,3,19,28,1
0,3,4,2,44,3,1
6,25,28,2,3,0,20
49,9,13,33,0,0,46
31,1,1,18,16,37,4
2,1,0,2,50,25,2
0,6,16,1,11,2,2
6,29,42,13,1,1,37
33,5,5,35,1,9,35
14,0,0,3,19,31,1
1,0,1,0,42,10,1
1,9,15,1,3,0,5
18,27,18,30,1,1,44
36,6,2,25,6,22,22
3,1,2,3,52,26,1
1,2,2,0,30,1,0
0,8,26,4,2,0,18
33,39,9,35,0,4,47
26,9,2,12,7,31,5
3,2,0,1,45,18,2
2,1,4,2,17,2,3
9,6,25,15,2,0,41
48,29,7,36,0,8,42
17,9,1,5,23,29,2
2,2,1,2,39,20,1
1,1,1,0,4,2,16
16,7,17,27,2,1,56
38,31,19,29,6,24,12
3,9,1,1,47,33,1
1,2,2,0,24,2,0
0,1,10,8,1,1,35
30,6,24,42,0,2,41
30,29,3,13,13,37,3
1,16,0,1,47,22,0
0,2,1,1,7,1,6
5,0,15,21,0,0,50
36,10,22,36,1,12,24
18,26,3,2,17,37,2
3,1,0,1,42,5,0
1,0,1,1,5,3,27
12,0,23,33,0,1,50
33,28,11,20,6,16,4
6,13,0,3,52,30,0
1,1,1,1,32,4,2
1,1,11,5,3,0,34
19,3,21,36,1,2,47
48,31,1,16,7,28,3
5,7,1,1,44,29,1
1,2,1,1,12,2,6
2,1,11,16,0,2,46
37,3,16,29,2,6,22
17,18,1,3,16,36,2
1,8,0,2,45,13,0
2,1,2,2,5,1,27
17,1,20,24,2,1,50
45,3,9,28,4,16,5
6,25,1,2,41,32,0
1,19,0,0,26,4,1
1,1,2,3,1,0,31
25,2,26,33,2,1,38
34,9,10,16,12,22,2
2,25,1,1,48,26,2
0,6,0,2,6,1,1
2,1,11,17,1,2,46
33,0,25,40,1,2,24
20,7,3,4,19,37,2
2,22,0,1,36,16,0
2,5,2,1,3,1,20
10,2,15,32,0,0,53
37,2,19,34,3,13,6
3,11,1,3,35,31,2
0,26,2,1,31,4,2
3,2,2,3,2,1,35
34,1,19,39,0,0,40
30,1,9,20,13,26,3
1,17,1,1,42,25,1
2,19,1,1,4,1,13
6,2,5,18,2,1,57
37,2,26,45,0,3,12
24,3,11,4,23,37,0
1,29,1,1,39,15,1
0,15,1,1,3,0,36
9,2,8,33,2,0,45
46,0,23,35,1,18,4
10,23,6,3,36,49,0
2,42,1,2,29,6,8
2,4,1,5,3,1,52
34,1,7,30,0,0,26
32,1,27,13,9,15,3
2,16,8,0,44,28,0
1,21,2,0,17,2,19
10,0,1,15,2,2,54
33,2,9,38,2,10,8
5,4,28,5,18,38,1
0,28,5,2,48,6,0
0,12,2,1,6,1,34
4,1,1,36,1,1,50
38,0,6,32,3,19,4
16,7,39,2,43,38,0
0,27,8,1,36,4,3
0,4,2,8,2,1,55
22,2,2,39,2,2,36
29,0,8,20,2,26,2
3,16,26,2,42,33,2
1,26,5,0,19,3,15
2,2,1,15,3,0,44
26,0,2,38,1,4,10
22,1,7,4,28,38,2
1,23,31,2,39,17,5
1,20,6,1,4,0,40
10,1,2,34,1,0,28
37,0,1,29,3,7,1
5,3,5,1,45,36,1
2,36,27,2,28,12,17
1,12,11,12,1,1,49
21,2,1,41,0,0,5
40,0,1,10,3,37,1
4,10,14,0,35,27,1
1,34,15,1,17,3,32
6,3,1,31,2,0,44
45,2,0,31,1,2,4
18,0,0,3,29,30,2
1,17,23,1,46,13,5
0,23,14,5,5,3,42
6,3,1,50,1,1,29
36,1,0,22,2,17,2
14,1,10,2,35,32,0
1,25,29,1,33,3,8
1,13,4,18,2,0,49
17,1,1,40,0,0,25
36,0,0,4,5,27,2
3,10,17,1,46,24,1
1,25,16,1,17,1,31
0,2,2,29,1,0,41
29,1,0,30,1,5,3
12,0,2,2,18,35,1
1,21,20,1,43,13,6
0,21,13,3,5,2,51
12,1,0,40,0,1,33
32,2,0,22,2,19,2
3,8,8,1,43,25,2
1,25,26,2,31,4,13
0,7,5,9,2,0,48
18,1,2,38,1,1,6
33,1,0,15,10,25,2
2,9,5,1,50,28,0
1,24,27,2,8,3,30
2,7,6,27,3,1,44
25,2,3,39,1,2,3
21,0,1,3,19,26,1
0,0,15,2,47,12,9
2,22,25,1,4,2,42
8,12,2,36,1,0,25
32,2,1,26,1,13,2
7,1,0,2,43,37,2
2,8,13,0,37,5,16
0,23,19,14,1,1,51
8,5,2,35,0,2,6
38,1,0,4,4,33,2
9,0,0,1,41,27,0
1,12,14,0,21,3,34
0,24,15,31,2,0,45
6,4,2,35,1,4,3
33,0,0,2,15,30,1
14,0,7,2,42,16,1
0,14,20,4,4,2,42
1,22,6,39,1,1,32
14,2,2,18,1,13,2
39,0,2,1,36,36,2
3,2,10,1,42,6,18
1,23,15,12,2,0,51
2,17,1,39,0,2,6
32,2,2,6,2,20,0
30,1,0,1,41,29,2
2,9,14,2,20,3,33
1,29,20,30,2,1,43
5,7,2,32,1,0,3
39,2,0,4,15,31,1
14,0,1,2,48,34,1
1,11,20,8,7,3,43
0,33,14,39,0,1,38
15,3,0,23,2,7,2
21,0,0,1,32,28,0
2,1,8,0,42,11,13
0,10,27,14,3,2,51
2,19,8,41,2,2,7
27,3,2,6,3,14,1
26,0,0,2,53,32,1
2,2,6,1,36,3,28
1,24,22,31,2,1,46
2,12,4,36,1,3,4
40,1,2,2,13,34,1
20,2,1,1,49,22,2
1,8,19,9,7,1,41
1,29,21,32,0,0,33
16,6,3,14,2,10,1
38,2,2,2,30,41,0
3,0,0,0,46,6,20
1,7,8,13,3,1,58
0,23,22,49,2,1,6
23,6,3,7,2,24,1
22,0,2,1,40,34,1
2,2,2,1,32,4,19
2,7,14,28,1,2,49
7,30,22,31,0,1,4
30,7,1,3,22,30,1
16,0,0,2,46,21,2
2,2,1,5,8,2,39
0,7,26,38,1,1,31
11,27,22,21,0,14,1
38,5,1,1,29,44,1
3,1,0,0,43,6,13
1,0,5,15,3,1,51
1,7,25,38,2,1,6
25,35,9,4,1,16,2
33,6,1,2,39,35,1
2,1,1,0,38,3,34
1,2,12,26,1,0,44
7,0,34,45,0,0,3
38,5,4,4,9,24,0
15,10,1,2,50,29,1
0,14,0,3,24,1,42
0,1,12,40,2,0,34
12,10,21,21,1,7,3
39,24,2,3,29,43,1
7,1,1,2,42,19,9
1,1,1,11,2,1,49
1,1,20,40,1,2,21
18,19,17,4,2,12,2
26,16,1,1,51,36,0
4,2,1,0,36,4,26
0,0,6,32,2,1,50
0,7,30,35,1,6,3
32,28,6,3,11,26,0
18,4,1,2,49,25,9
3,1,1,6,6,1,47
2,1,4,37,2,2,36
9,1,24,22,2,1,2
38,10,9,3,27,39,0
9,23,2,0,30,29,7
2,4,0,17,3,1,39
0,2,7,41,0,1,18
10,54,19,5,1,13,1
35,93,7,1,40,25,1
5,4,3,2,22,3,17
0,1,1,22,2,1,50
2,1,5,32,0,3,4
18,27,27,1,19,21,0
29,128,9,2,43,37,1
2,23,2,1,6,4,41
1,1,1,37,1,1,36
4,36,5,24,0,2,1
31,104,25,1,25,32,2
15,4,8,0,41,21,10
1,1,2,14,3,1,52
0,2,1,38,0,1,7
5,1,11,6,6,20,1
38,0,30,0,44,32,0
9,28,4,1,26,4,23
0,17,2,27,1,0,49
0,2,1,34,2,2,4
11,0,13,1,15,24,0
38,1,26,1,57,26,3
6,30,3,3,8,2,54
1,12,2,40,1,1,44
2,1,0,25,2,1,1
21,0,34,1,20,33,1
32,0,19,0,59,12,8
3,109,2,15,9,1,51
2,646,0,36,2,0,21
11,125,3,4,2,16,2
35,4,25,2,43,30,1
9,1,7,2,30,4,25
1,1,1,35,2,0,54
2,0,2,35,1,1,4
6,0,4,3,9,25,1
33,137,25,0,47,30,0
15,394,13,0,18,2,41
1,35,1,29,2,0,39
0,0,0,33,2,2,3
23,0,12,1,25,28,0
38,331,18,1,41,24,7
2,604,1,31,3,2,46
1,118,1,63,0,0,17
0,5,0,6,0,11,0
30,2,20,1,40,29,1
23,8,17,1,30,4,15
3,0,2,2,3,1,41
2,0,0,2,1,0,4
5,203,4,1,9,18,1
33,78,21,35,53,33,1
7,188,9,19,16,2,33
1,76,1,37,2,1,34
1,1,1,15,0,2,2
10,2,2,1,34,35,1
33,807,35,1,42,19,8
5,278,21,2,3,1,51
1,59,1,81,1,1,20
1,4,1,142,0,8,2
19,2,14,5,42,37,0
35,3,16,1,27,9,20
5,38,2,0,3,2,56
2,46,0,0,1,2,7
0,13,1,0,10,10,1
25,134,2,166,50,36,2
30,213,10,62,8,5,38
2,58,3,61,3,2,39
0,133,2,35,2,0,3
5,9,2,1,25,27,1
40,530,14,0,36,32,5
14,21,13,50,3,3,49
2,7,1,284,0,1,22
0,0,1,20,7,5,1
22,0,19,2,35,31,1
34,102,28,0,23,22,14
3,308,6,3,1,2,51
1,9,1,137,0,2,8
2,1,0,181,14,9,2
1,1,2,5,44,43,2
0,281,35,0,3,13,36
0,54,9,0,1,1,43
1,20,0,269,0,1,4
213,0,1,222,25,20,2
32,45,9,6,54,29,10
8,374,31,1023,6,3,52
1,21,4,119,1,2,11
0,38,2,2,2,3,1
2,2,2,0,2,33,1
32,0,3,0,16,21,40
12,0,18,469,5,1,38
0,1023,15,275,21,0,2
1,45,1,13,9,5,1
1,4,0,9,38,28,6
124,5,20,155,5,19,47
17,0,30,3,0,2,23
2,0,2,700,0,2,1
0,599,1,140,43,17,1
1,300,0,2,61,39,20
7,9,26,1,7,4,49
51,4,38,234,2,0,4
2,25,2,444,0,2,2
1,7,0,203,0,32,1
17,62,0,5,31,25,31
366,6,1,435,2,2,43
71,1,0,77,0,1,5
2,13,1,6,1,3,0
2,3,22,225,63,38,1
0,17,9,354,96,17,39
451,597,27,11,7,0,31
199,150,30,748,2,0,3
102,4,5,145,0,12,0
2,1,0,252,30,28,20
0,1,2,96,7,3,48
0,600,0,6,0,0,5
12,96,1,0,1,1,0
78,5,1,1023,58,19,0
159,73,4,92,227,19,36
4,248,59,6,12,0,37
1,8,37,105,0,0,3
1023,60,3,190,1,38,0
40,2,14,164,16,14,7
0,2,8,215,63,7,45
0,57,36,21,79,1,24
166,78,2,6,4,2,3
220,5,19,57,10,13,1
10,6,28,162,9,44,19
28,0,36,397,1,4,54
50,17,164,14,0,3,6
3,64,37,9,3,4,2
0,166,0,529,18,19,1
369,73,24,74,23,16,38
96,6,157,1,1,2,40
5,0,18,1009,2,0,2
14,309,111,308,12,11,1
173,79,105,8,13,26,5
150,5,71,59,62,4,55
4,9,5,21,44,2,22
0,3,9,0,40,2,2
185,29,62,289,5,19,0
32,5,179,142,0,35,19
48,12,155,23,0,3,50
48,12,433,231,116,1,8
194,36,42,113,363,2,0
5,2,49,4,25,27,0
0,3,558,343,2,18,28
72,1,94,166,0,1,42
4,23,4,2,1,1,3
178,128,67,332,21,3,0
42,35,24,103,2,24,5
9,3,183,6,1,22,42
0,1,291,9,91,1,21
1,57,282,6,52,2,0
69,34,42,3,4,41,2
28,103,27,0,0,34,20
202,10,14,0,1,4,50
6,6,94,624,0,2,6
2,0,129,15,4,5,1
742,239,77,465,167,36,1
29,35,17,77,8,23,29
1,2,53,7,0,0,52
2,1,125,9,341,1,7
0,25,101,78,54,0,2
276,65,413,2,4,26,2
100,35,12,340,1,23,44
4,3,58,157,1,2,23
11,3,110,5,10,2,2
2,96,10,1,57,13,0
11,6,60,263,7,31,18
17,0,13,43,2,4,51
126,77,5,134,0,0,6
13,117,116,48,35,2,2
64,17,126,42,24,22,1
67,6,93,2,1,19,32
3,79,5,296,0,3,41
76,61,224,201,49,1,2
4,3,79,94,166,6,0
2,0,121,14,46,48,8
1,420,66,1,77,20,53
36,23,98,1,5,1,30
91,10,19,7,2,1,2
88,11,44,299,0,13,0
37,0,7,21,0,32,20
2,6,225,591,62,4,61
132,157,23,17,128,2,9
11,10,235,123,13,1,3
53,7,146,21,1,37,0
16,4,124,3,1,37,31
2,5,112,145,1,2,42
68,61,18,26,2,2,4
15,7,0,18,0,6,2
46,1,140,0,0,27,4
39,2,92,247,76,25,44
3,0,82,137,13,2,28
129,15,51,2,142,0,1
4,428,113,23,73,10,1
158,11,33,225,6,24,23
35,1,205,90,3,2,56
90,17,70,17,73,0,6
18,89,226,6,17,7,1
21,5,161,17,1,42,0
2,59,102,109,36,24,32
230,5,60,6,42,2,40
49,106,46,64,64,0,3
4,13,25,4,4,0,1
0,3,50,161,0,9,1
32,32,110,15,0,0,39
135,10,18,424,0,1,30
8,1,104,16,176,1,2
2,20,50,0,58,69,2
7,1,8,293,23,93,15
3,46,82,33,3,20,52
33,21,140,116,123,1,8
2,2,173,4,10,2,1
31,2,4,4,2,30,1
234,8,3,35,50,26,31
39,10,105,40,4,1,48
3,0,70,28,2,0,4
0,190,82,140,0,6,1
131,47,62,34,169,163,2
76,4,200,112,71,59,43
5,1,8,5,19,4,30
1,2,17,200,4,0,2
2,4,83,525,1,1,0
194,240,43,30,8,26,16
20,13,7,3,92,96,52
1,2,102,2,86,6,7
2,0,7,2,5,0,1
1,6,18,84,39,18,1
76,193,189,4,38,194,27
25,18,12,165,24,84,43
27,1,7,10,2,4,2
8,23,245,357,56,5,1
3,3,10,110,47,2,6
2,1,42,15,23,26,44
1,1,140,1,42,5,31
169,5,37,198,6,2,2
16,13,10,271,58,7,0
1,1,10,148,10,1,15
37,80,6,22,3,0,51
178,97,75,107,123,59,7
11,4,34,387,42,267,1
3,1,29,21,3,7,2
48,275,14,75,120,5,31
4,45,139,4,8,62,46
0,4,8,202,14,3,2
1,5,236,197,7,1,0
20,1,64,45,137,35,3
79,25,4,6,12,89,44
5,5,36,97,54,124,32
11,1,222,4,34,14,2
38,0,136,242,1,1,1
1,13,6,10,14,0,7
126,31,11,183,10,0,56
8,0,36,35,110,130,16
45,0,44,2,10,403,1
28,227,135,378,1,16,0
1,47,37,8,293,2,30
3,4,6,96,180,124,53
6,2,11,10,7,16,8
7,26,128,230,32,0,2
28,5,53,6,36,26,0
3,36,150,58,18,51,40
0,5,32,80,14,40,35
0,11,116,71,4,13,2
178,44,64,58,44,24,0
16,20,4,5,41,81,13
6,1,15,565,31,2,54
1,23,23,37,10,49,9
77,54,133,30,1,338,1
27,15,79,8,76,12,2
117,1,98,45,10,1,27
4,18,31,3,0,42,44
136,66,9,34,39,48,4
20,2,53,380,123,218,0
1,34,52,76,100,46,6
11,88,9,18,8,76,51
72,4,37,0,13,3,35
14,13,96,177,49,1,1
2,86,3,18,29,22,2
1,4,157,222,2,33,7
24,54,84,6,1,144,52
31,135,41,16,37,7,27
3,42,6,297,92,3,1
0,3,85,32,10,22,1
0,0,69,3,0,4,27
166,43,12,2,46,90,41
33,48,4,5,110,21,3
3,12,83,2,4,237,0
1,1,28,165,0,8,6
2,84,113,20,2,34,48
68,35,172,3,90,296,34
11,1,9,16,21,21,2
10,91,158,24,3,56,2
29,9,13,192,8,157,11
5,89,112,8,46,65,52
9,15,7,179,3,26,9
12,49,195,15,79,51,2
0,12,42,50,58,18,0
35,2,47,47,3,42,26
125,0,72,120,31,139,47
9,9,46,63,328,64,5
9,390,45,3,13,160,1
2,26,12,77,1,15,2
2,2,185,329,38,82,41
33,2,11,20,24,152,32
37,0,74,1,2,6,2
2,1,51,105,1,34,0
1,11,171,289,50,110,16
52,20,9,144,64,14,60
153,27,17,21,15,5,10
5,9,1,16,1,209,1
1,2,268,92,0,29,3
91,88,45,49,144,28,41
22,14,3,10,8,4,36
13,1,0,0,81,23,2
11,137,5,438,5,88,0
3,23,100,18,5,26,10
6,138,112,2,13,12,54
32,33,4,345,28,92,8
10,14,86,45,2,18,1
38,1,292,3,1,1,0
38,0,12,37,22,230,27
25,78,12,12,47,24,55
4,41,84,50,88,18,5
4,30,180,65,6,22,2
33,64,11,5,0,37,4
8,4,1,2,143,103,40
24,5,160,146,120,22,40
15,1,27,172,3,5,3
0,1,28,6,49,105,0
23,2,60,173,80,3,10
80,7,19,65,4,65,49
31,64,9,91,3,74,7
4,9,36,121,4,10,1
1,10,40,696,46,62,0
4,0,56,32,17,41,23
13,49,52,3,30,8,48
23,138,281,0,2,1,4
17,5,31,66,51,68,2
46,9,1,107,55,28,0
6,46,53,183,4,5,40
1,7,165,88,0,157,38
0,1,26,256,4,10,1
41,1,78,101,44,22,1
79,93,70,3,88,18,9
25,113,41,300,4,73,48
2,5,8,24,2,3,21
9,1,27,4,221,21,1
23,86,127,1,14,27,0
21,12,55,2,148,3,20
2,8,2,303,9,0,52
1,3,7,10,5,33,5
141,16,313,81,12,135,0
34,102,166,5,8,4,6
3,2,11,336,2,31,41
2,16,19,34,2,41,36
51,5,64,6,9,25,2
19,0,277,26,57,52,0
3,45,54,269,20,3,10
32,31,84,64,38,19,63
6,4,174,339,1,65,10
1,0,20,34,20,3,1
62,143,16,33,56,23,1
27,105,21,1,8,52,43
1,6,8,26,1,14,37
3,2,50,71,50,8,2
5,2,42,7,27,19,0
1,1,48,32,15,3,13
29,1,280,12,5,75,62
11,0,13,0,2,79,12
1,9,29,340,3,23,1
105,285,95,34,36,2,0
13,15,113,3,49,3,42
2,1,26,82,8,10,42
96,0,3,6,52,13,3
75,47,27,374,105,12,0
9,84,106,14,3,34,11
0,6,31,0,3,76,55
1,2,81,112,19,6,10
29,1,15,24,50,2,1
9,14,124,22,19,15,3
14,2,5,6,1,29,42
8,24,54,1,0,54,39
4,51,95,87,25,24,2
1,36,55,77,63,7,1
97,1,3,62,4,117,6
22,106,31,19,2,14,47
2,45,223,12,6,9,23
21,3,40,8,17,3,2
1,4,144,0,35,0,2
4,2,10,313,30,7,20
12,1,58,62,2,44,52
5,41,155,73,4,56,5
1,37,7,3,11,8,2
59,10,16,29,12,1,2
24,1,12,155,28,95,39
10,1,69,130,13,22,26
6,10,23,26,42,4,1
2,174,29,1,3,3,1
50,4,44,165,1,1,9
8,93,186,44,1,54,43
1,11,4,7,35,34,21
53,45,88,2,67,31,1
122,4,119,2,4,3,1
4,2,10,105,0,18,25
1,2,3,9,2,3,50
4,20,25,19,31,15,5
100,87,28,202,74,13,1
8,7,79,23,4,8,1
22,2,89,156,1,57,42
2,0,26,17,48,6,37
49,11,44,100,58,2,2
63,187,26,9,4,53,0
3,10,81,0,1,20,11
18,57,12,278,2,22,52
12,63,54,33,8,21,8
29,4,147,36,111,1,1
8,1,14,2,12,18,1
1,0,49,77,2,98,27
1,72,30,127,4,7,47
22,42,68,25,17,5,4
38,2,111,5,4,1,1
38,2,117,263,0,13,4
2,3,15,133,108,15,42
1,3,2,1,58,1,38
152,59,2,298,18,2,3
12,5,122,15,1,19,1
81,2,100,93,3,39,4
21,161,3,5,17,11,49
3,30,17,56,18,20,23
36,7,87,11,14,8,2
5,1,4,137,0,10,0
96,94,27,18,1,28,21
6,55,40,16,62,29,54
1,10,34,9,25,3,5
8,15,39,4,1,14,0
140,2,54,30,1,78,1
4,40,3,28,3,5,43
61,76,33,29,42,6,43
6,5,53,50,72,11,3
3,28,106,7,18,33,0
0,3,31,1,2,18,9
1,30,167,265,31,32,55
53,18,36,174,39,2,26
76,6,30,83,29,65,2
6,1,44,6,4,23,0
6,1,2,2,11,33,17
13,60,4,126,66,6,48
53,89,46,70,14,32,5
10,6,59,5,0,43,3
37,0,130,25,19,67,1
15,2,29,65,36,11,38
23,223,23,51,21,41,37
11,38,10,7,1,25,1
2,2,78,6,0,8,0
1,0,29,16,37,19,6
9,88,13,201,27,42,48
43,87,122,5,1,13,30
7,4,25,260,0,1,3
54,0,2,19,5,44,0
5,5,31,70,71,26,23
82,85,70,129,24,6,57
9,45,12,4,2,13,6
3,3,62,21,0,17,2
1,4,45,150,46,7,1
1,1,80,10,136,27,33
1,11,4,7,8,16,50
87,5,124,7,8,23,4
27,1,16,9,11,11,2
2,21,111,239,40,38,1
27,117,48,7,6,12,47
35,8,6,0,0,14,27
35,0,12,16,80,5,1
30,111,38,19,15,38,0
1,50,145,123,15,100,33
23,23,32,5,6,14,59
18,7,98,148,2,36,7
31,10,129,22,20,33,2
2,9,31,106,10,11,0
37,1,14,30,15,35,33
4,1,260,5,2,12,38
1,2,14,0,12,6,3
0,34,120,118,42,79,1
78,6,11,16,24,47,10
10,68,62,81,1,3,61
86,8,57,20,1,33,12
5,2,44,83,14,12,2
2,22,6,67,125,55,0
130,2,40,61,14,36,32
41,6,13,115,1,13,46
25,1,54,53,6,55,4
2,21,13,47,52,8,2
2,45,38,3,11,1,3
27,97,28,10,0,1,45
3,6,75,241,2,162,25
30,10,163,7,40,70,2
2,0,38,60,22,5,0
117,17,79,10,14,1,24
27,141,24,29,2,50,57
5,4,48,104,4,127,7
11,0,5,201,100,7,1
20,72,58,714,4,2,0
20,70,205,18,0,1,38
3,4,8,0,4,69,47
23,0,2,1023,21,4,5
80,13,24,46,78,69,0
15,10,116,83,4,4,2
1,1,46,57,1,2,46
1,1,42,492,7,19,34
2,31,105,14,9,68,0
90,13,197,3,8,14,1
45,135,6,30,4,1,14
4,4,40,28,18,67,53
1,13,19,3,40,84,9
1,12,86,1,47,77,1
97,14,30,14,9,3,1
78,54,39,12,1,92,27
5,16,21,3,1,109,51
2,14,21,43,18,4,4
1,20,2,28,38,9,2
72,1,10,21,4,3,2
29,0,213,157,1,87,43
2,33,38,109,17,29,27
1,127,52,282,19,3,1
0,4,9,17,10,27,1
31,33,206,29,5,99,18
31,8,22,2,6,9,59
17,37,6,8,8,3,8
18,27,13,11,24,1,1
9,21,128,10,24,0,0
28,2,39,65,1,3,31
2,8,35,108,1,95,42
0,107,1,15,10,57,3
55,2,3,28,49,13,2
22,0,107,3,2,1,1
40,4,27,17,2,62,44
2,60,2,32,8,13,31
40,34,26,14,53,9,2
123,17,64,382,18,9,0
9,2,30,410,1,114,16
2,112,1,41,2,46,53
29,44,70,4,54,3,5
28,8,71,1,20,1,1
25,2,66,4,1,10,1
4,38,26,21,0,38,32
0,74,205,5,11,42,53
2,5,22,0,53,17,5
93,13,1,69,4,7,1
5,20,57,12,4,21,1
100,37,31,13,5,18,43
4,2,9,36,10,7,29
63,2,7,2,2,2,2
9,0,203,36,42,33,0
2,0,6,17,64,12,12
8,161,82,28,4,17,57
51,7,42,13,55,57,10
16,1,59,2,3,8,2
144,1,69,182,67,2,4
6,18,21,33,3,36,45
1,98,1,1,6,52,32
66,14,59,99,42,3,2
37,7,10,25,16,2,1
7,1,45,7,0,54,15
1,1,118,2,2,20,51
0,6,11,1,16,21,8
1,227,23,6,93,27,0
0,19,110,41,7,14,1
102,48,107,14,2,48,31
2,8,20,2,5,15,51
37,14,207,1,31,11,4
78,6,10,21,46,23,1
34,1,14,41,50,13,2
2,47,87,3,2,5,42
4,18,39,2,19,23,35
166,1,40,4,92,60,2
6,2,7,42,6,47,0
57,0,31,25,0,9,14
11,31,108,1,7,7,55
9,92,116,1,109,1,9
240,5,8,6,16,0,2
28,23,30,42,1,226,0
85,49,49,20,0,8,31
58,10,42,1,6,7,38
59,29,67,1,36,44,1
2,3,68,25,4,8,0
1,26,9,41,1,6,2
9,26,5,5,1,1,37
20,1,133,1,27,17,33
9,157,33,0,55,37,2
22,40,5,32,5,25,0
47,6,0,31,2,3,9
12,74,214,4,1,0,58
1,6,48,0,19,36,22
0,94,3,5,96,37,2
18,56,33,43,13,2,0
78,4,113,21,13,1,25
16,1,74,1,37,21,45
53,0,14,0,9,20,3
4,28,40,15,1,7,0
0,116,100,40,1,4,3
0,5,220,3,1,13,44
7,2,24,2,24,11,34
135,3,17,2,71,15,2
5,2,27,35,20,14,0
1,7,121,31,4,28,11
79,79,157,2,13,42,60
142,5,50,2,30,6,10
42,18,2,11,2,13,1
4,177,1,51,3,2,3
10,12,99,7,0,23,45
2,1,99,2,6,5,29
50,6,51,0,13,97,2
12,55,17,9,17,10,0
23,15,68,48,2,9,22
3,2,18,17,2,24,58
0,14,3,2,29,43,9
1,1,4,1,26,24,0
87,2,84,35,1,3,0
114,104,101,31,3,21,25
4,9,68,1,22,11,41
1,26,25,2,50,40,3
1,50,60,4,5,20,1
3,6,108,38,2,13,4
121,0,127,22,1,25,40
43,0,118,1,41,4,26
3,230,3,1,43,19,0
1,22,25,17,15,12,1
0,2,37,35,2,25,13
16,1,121,4,39,21,44
114,7,63,0,51,4,6
19,22,108,2,3,1,2
57,7,6,31,1,2,0
20,4,7,26,0,145,28
2,27,5,1,34,24,46
2,7,44,1,71,2,4
21,6,47,5,6,32,1
27,4,84,40,2,25,1
2,14,10,14,1,7,40
1,3,10,1,31,3,28
7,1,63,0,44,39,3
61,17,27,21,5,67,2
9,22,2,42,1,10,7
0,26,140,5,34,19,44
0,25,90,1,48,7,17
16,87,8,3,6,16,0
8,21,36,37,2,24,0
2,1,150,31,1,1,33
0,39,120,1,106,0,47
172,87,3,2,11,107,5
157,7,1,7,2,52,2
9,1,86,38,0,9,0
2,1,40,15,12,1,41
0,2,38,0,93,1,40
57,82,38,1,18,54,1
45,16,4,18,1,7,1
4,2,2,40,1,2,7
0,86,67,4,31,21,45
1,7,5,2,19,72,24
26,5,293,0,9,27,2
35,15,29,28,2,5,0
2,1,24,32,33,8,30
1,28,59,2,36,19,47
1,36,278,0,8,10,4
37,0,119,1,0,21,2
18,178,78,35,6,18,0
2,21,84,16,41,12,40
0,2,18,1,9,80,41
10,3,16,0,9,27,2
31,2,80,18,3,1,1
7,2,21,45,0,10,17
0,2,3,6,49,1,60
0,31,92,0,58,40,6
28,9,61,2,13,12,1
38,1,107,31,0,4,2
4,71,17,32,17,1,28
1,6,32,2,104,15,49
0,1,4,2,6,18,4
28,12,76,6,2,4,0
24,0,8,39,14,1,1
3,1,148,15,71,18,38
2,268,6,1,14,85,45
7,27,15,0,2,33,3
21,2,63,14,2,1,0
10,3,50,32,55,51,8
1,128,101,2,49,20,50
1,19,27,1,4,12,22
20,20,77,1,1,7,1
34,15,233,27,1,31,0
3,2,9,30,38,55,23
2,62,22,3,51,42,53
1,21,77,0,2,12,5
33,6,181,4,1,2,0
22,1,8,36,3,2,2
1,18,4,16,20,52,46
0,71,137,1,21,76,41
10,6,7,0,2,61,2
39,1,40,14,0,5,0
4,1,70,39,10,24,7
1,240,87,6,70,1,59
0,12,11,2,6,2,23
27,1,22,2,0,106,1
39,1,273,30,2,26,1
3,126,87,30,41,4,16
1,113,49,2,3,6,49
0,4,3,0,21,0,5
61,0,29,9,3,2,1
46,0,68,57,9,3,2
4,31,39,13,63,146,38
2,183,89,0,9,34,43
14,11,35,2,2,2,2
52,2,3,20,1,1,0
5,26,47,32,26,30,7
2,52,25,3,55,1,51
1,3,218,0,4,10,24
19,89,25,2,1,32,1
35,69,17,35,9,1,0
7,34,2,29,15,0,20
0,3,7,2,14,35,54
7,1,46,1,9,65,5
46,12,74,4,1,12,2
34,48,35,36,5,108,3
2,29,30,18,49,4,44
1,2,2,1,72,1,39
9,7,103,1,22,10,4
38,160,113,19,2,27,1
11,20,187,38,48,7,2
2,26,5,4,37,2,45
2,6,20,1,36,119,29
19,1,36,1,3,35,1
32,15,45,32,37,88,0
2,15,45,28,41,6,18
0,0,7,2,3,28,56
0,2,68,2,1,3,7
25,1,38,7,8,49,0
26,1,44,35,29,68,3
2,98,8,13,72,7,40
1,12,22,1,7,43,42
13,10,121,0,0,62,3
29,40,19,24,0,4,1
1,5,4,45,33,2,4
1,2,1,4,23,1,50
2,86,1,0,2,75,25
25,115,169,2,0,58,3
24,8,40,25,15,20,1
5,3,4,26,30,128,26
1,2,58,1,78,26,54
3,0,25,0,8,9,4
25,0,10,7,1,2,0
29,105,4,38,81,2,1
2,58,12,14,24,1,34
0,72,2,2,3,30,44
5,3,0,0,2,27,4
33,0,360,13,1,2,0
9,1,187,37,48,9,7
1,1,8,4,18,49,47
2,17,9,2,3,46,21
18,16,33,1,0,6,2
45,8,69,29,7,3,1
5,2,25,34,38,1,17
0,12,1,2,17,1,51
0,41,22,2,2,70,5
26,5,56,3,4,87,0
28,13,34,37,37,9,1
2,5,25,23,20,2,39
1,10,32,1,17,5,44
2,31,37,1,1,23,3
33,3,48,15,25,3,0
31,0,46,41,32,2,9
2,1,10,4,18,13,56
0,5,0,1,2,78,25
10,27,36,1,4,11,1
36,18,10,32,57,82,0
4,2,72,28,5,4,26
1,2,15,3,1,15,57
0,296,48,1,7,12,4
21,44,8,5,4,3,1
35,3,4,34,41,1,2
3,0,12,12,12,2,33
1,190,60,0,2,15,43
8,15,9,0,2,9,3
34,2,8,17,5,3,1
35,35,40,39,70,0,5
3,20,36,4,8,0,54
1,17,6,0,3,14,22
3,2,2,0,18,28,2
28,2,1,26,33,16,1
22,0,0,34,19,1,26
2,15,112,2,4,3,63
0,25,23,2,1,6,7
9,2,2,3,18,1,2
25,2,0,28,53,1,1
10,2,19,24,8,11,34
1,3,25,2,1,91,42
0,2,3,1,0,20,2
26,0,2,15,25,0,0
21,5,32,41,55,1,5
2,3,25,4,8,44,47
1,38,4,0,2,180,34
3,44,0,0,9,16,3
45,3,1,24,61,0,1
14,1,13,26,13,15,16
1,0,38,3,14,239,54
2,7,3,2,3,9,6
9,4,1,4,24,1,1
33,50,0,37,41,1,0
9,20,13,15,4,18,34
1,14,20,1,0,159,45
1,30,2,1,4,6,4
14,22,1,13,54,1,2
27,2,4,43,36,0,6
2,0,26,4,6,28,50
0,16,9,0,5,355,33
1,129,2,1,6,21,2
25,11,1,30,38,2,1
15,5,7,28,12,2,10
1,81,24,2,28,1,64
1,199,13,1,10,10,13
1,55,1,1,54,7,1
20,20,2,32,4,17,2
15,32,2,15,5,30,47
0,4,1,1,1,6,43
0,1,23,0,4,2,1
11,2,6,29,41,1,0
29,96,0,45,29,2,14
5,14,0,5,2,1,57
2,5,0,1,2,1,8
1,2,9,2,79,15,0
24,1,54,32,57,5,1
16,21,245,31,5,5,36
3,26,36,3,0,51,54
1,1,3,1,0,7,6
1,1,0,1,54,0,1
32,7,1,38,39,1,1
26,27,2,18,21,3,46
2,53,0,2,48,14,34
0,64,2,1,79,1,3
8,3,3,19,20,2,1
35,20,78,43,2,0,14
7,20,8,5,38,4,60
1,2,10,2,47,43,8
1,36,1,2,18,29,0
14,26,0,23,23,36,1
25,28,3,24,9,91,28
1,4,9,1,26,33,51
0,2,20,0,19,2,4
1,0,11,1,4,2,2
26,10,1,36,2,1,3
29,17,0,20,1,3,48
2,9,7,0,11,22,34
0,8,18,0,43,5,2
12,1,1,16,6,1,0
41,11,0,42,1,1,13
5,8,2,4,4,5,56
1,1,26,2,25,27,6
1,2,57,2,13,14,2
10,0,21,32,2,2,0
32,8,3,30,0,2,31
5,49,2,2,10,4,50
1,13,15,0,35,27,3
0,1,14,10,4,4,1
18,8,2,44,2,1,1
22,27,1,8,1,1,49
2,6,4,2,24,19,37
1,1,19,1,39,29,2
3,1,7,11,3,3,1
25,47,2,37,1,1,10
13,18,0,8,4,1,57
2,2,8,1,36,16,10
0,0,27,1,19,22,3
4,1,6,27,1,2,2
39,21,1,40,0,1,47
16,25,1,2,9,7,41
2,1,4,1,33,7,2
0,2,31,4,13,6,2
20,4,6,34,2,2,11
45,25,1,18,1,0,56
4,14,0,1,16,1,8
1,1,7,1,25,21,2
1,1,28,13,8,31,1
28,11,9,43,1,3,29
17,29,1,4,0,2,47
2,4,0,1,27,1,5
0,2,14,2,30,31,2
6,0,43,25,1,3,1
49,16,5,48,1,2,46
14,19,2,5,5,1,32
0,2,1,2,32,14,2
1,1,13,1,13,26,0
16,2,30,31,1,3,10
29,21,1,33,0,2,50
3,12,0,1,13,14,10
1,2,2,2,35,27,2
3,1,30,15,2,3,1
29,13,11,35,1,7,47
27,43,2,5,1,2,35
2,3,0,2,30,45,2
0,0,8,0,28,30,2
9,0,26,28,3,7,15
36,16,7,33,2,3,55
10,23,2,2,17,2,8
1,1,0,1,42,6,1
0,0,10,4,7,28,0
14,2,31,38,1,7,32
35,20,4,21,1,2,50
3,13,0,2,17,0,4
1,1,1,1,37,10,0
13,1,19,11,2,27,4
42,9,21,39,0,3,52
7,28,1,4,2,2,36
0,5,0,0,32,0,3
0,1,2,1,33,14,0
4,0,20,25,2,32,9
32,11,11,34,1,3,54
9,32,2,3,7,0,19
1,5,1,0,40,1,0
0,0,18,3,16,24,1
7,1,23,53,2,16,29
34,16,3,19,1,3,54
9,19,1,2,17,1,4
2,1,0,1,36,6,2
0,0,15,26,2,28,1
4,0,26,42,1,8,45
30,12,2,5,2,2,45
15,26,1,1,31,1,2
1,2,0,0,31,7,1
2,1,14,22,1,27,8
14,10,9,32,1,9,55
27,26,2,3,6,1,23
3,3,1,0,29,0,1
2,1,3,2,16,2,2
2,2,24,36,0,26,28
25,21,8,21,1,19,52
32,18,2,2,8,2,5
2,2,0,0,35,0,0
1,2,2,12,19,28,0
4,2,33,35,2,29,37
28,21,16,4,0,1,39
5,7,1,0,23,1,3
2,2,2,1,24,2,0
0,1,6,27,2,11,9
7,2,24,37,2,17,53
32,22,3,2,11,3,17
12,9,1,2,39,1,3
2,1,0,3,5,5,1
2,2,7,35,3,29,25
14,1,21,15,0,10,51
27,21,6,2,21,0,4
3,9,2,2,45,0,2
0,1,1,13,6,12,1
0,1,14,40,1,31,49
23,7,27,6,1,4,40
21,22,1,2,32,1,3
1,5,0,1,35,1,0
2,2,0,29,3,19,10
1,0,12,31,1,9,53
35,2,17,1,1,24,14
24,24,1,0,36,2,2
1,15,1,2,23,3,1
1,1,6,34,2,18,38
7,0,22,20,0,3,37
34,6,12,2,21,1,3
11,22,3,0,42,1,1
1,10,1,18,4,5,16
0,0,12,56,0,43,56
15,2,30,6,1,9,11
27,22,4,2,30,1,0
6,22,1,1,46,1,1
0,2,0,25,3,5,45
0,0,13,33,2,19,40
29,0,28,3,2,10,3
12,21,2,2,35,1,1
1,10,2,3,15,2,11
0,1,1,37,2,3,55
9,0,19,21,1,24,11
38,23,20,1,18,8,1
9,23,2,0,42,1,0
2,3,1,12,4,0,38
0,1,5,38,1,2,56
10,1,23,4,0,30,4
38,15,9,2,24,6,0
4,21,2,0,25,2,6
1,3,0,19,1,0,50
1,0,13,42,1,9,18
21,0,40,4,1,15,1
30,21,4,0,39,14,1
3,19,1,5,23,0,26
0,2,1,36,3,1,51
5,0,14,12,1,15,5
28,6,22,0,20,27,1
15,33,2,2,38,2,2
1,11,1,14,3,0,43
1,0,0,38,0,1,37
7,1,23,4,1,31,3
33,13,17,1,31,18,0
16,24,1,1,38,3,9
1,2,0,40,4,0,52
0,0,7,35,0,8,24
19,2,27,3,4,26,2
28,23,8,1,29,5,0
3,21,1,4,32,2,22
2,1,1,36,2,1,54
4,0,5,27,1,11,6
34,8,23,3,10,29,1
12,28,3,1,38,4,0
2,9,1,12,5,1,42
2,1,0,32,1,2,55
9,1,4,4,1,24,4
41,5,26,0,27,20,0
11,29,7,1,32,1,5
0,9,1,19,3,0,50
0,2,0,38,0,4,21
14,2,5,3,2,23,1
25,4,25,0,43,12,1
6,26,10,3,21,2,24
2,9,1,35,1,0,54
1,1,0,24,0,4,6
28,1,18,2,10,28,1
20,10,27,0,38,5,3
1,33,2,12,5,1,40
0,6,1,33,2,2,41
9,2,0,4,0,0,3
35,1,18,1,24,18,1
9,5,18,0,29,13,5
0,30,2,27,3,1,56
0,12,1,33,1,2,27
3,2,7,5,11,17,2
38,0,25,1,51,23,0
11,18,7,2,10,1,21
1,17,1,35,2,0,50
0,1,1,20,1,13,4
20,1,5,1,22,36,2
35,7,25,0,35,6,0
3,37,5,10,4,1,41
1,9,1,45,1,2,48
1,1,1,5,4,5,5
35,0,1,0,36,27,1
28,5,20,0,21,9,2
2,31,13,24,0,1,45
1,10,2,35,1,1,23
5,0,0,3,11,5,0
33,0,16,1,41,29,1
10,11,25,3,8,5,25
0,24,2,46,2,1,54
0,2,2,30,0,2,6
10,2,0,2,19,16,0
29,0,21,2,38,27,1
4,19,21,10,3,2,41
2,22,3,36,0,0,43
1,4,0,5,7,0,3
23,0,2,0,38,12,1
23,4,23,0,19,22,7
2,28,8,23,3,2,50
0,10,1,34,1,2,27
3,1,1,3,7,4,1
32,0,4,0,32,21,1
8,8,37,2,26,16,21
1,28,12,39,2,3,57
0,4,1,22,0,1,5
10,2,2,2,19,7,0
35,0,13,1,33,25,1
5,18,23,13,2,7,33
0,28,2,42,0,2,40
2,2,0,6,3,0,3
16,1,1,1,34,4,1
29,1,18,0,21,25,14
2,22,15,19,1,8,56
1,25,0,28,0,2,12
1,1,1,3,13,0,1
29,0,4,1,40,3,2
25,3,27,3,5,30,36
2,29,7,35,0,13,45
1,6,2,21,0,1,2
2,1,2,0,21,0,1
31,0,2,1,31,11,3
20,3,23,15,3,25,51
1,25,18,50,0,2,33
1,13,1,5,9,2,0
16,1,1,1,57,1,1
29,1,10,1,27,24,18
2,9,23,25,2,16,53
0,28,2,36,0,2,8
6,6,2,3,11,2,1
35,1,1,1,37,7,1
21,0,21,4,7,24,46
2,12,17,40,2,8,49
1,28,0,20,0,1,3
7,3,0,1,20,0,0
38,1,4,1,33,14,3
11,0,25,8,2,20,44
1,22,11,38,1,10,29
1,20,1,16,5,0,0
12,2,1,2,35,1,2
35,1,11,0,26,15,18
3,5,26,20,1,28,55
1,34,3,33,2,5,7
3,6,0,1,14,1,1
31,0,1,1,40,2,0
19,0,18,8,4,26,32
1,5,16,41,1,13,56
0,36,2,22,0,2,4
4,8,1,1,22,0,0
30,2,2,1,41,10,3
12,1,25,10,5,26,49
0,1,10,42,2,1,32
2,25,2,7,4,0,3
10,13,1,2,34,2,1
28,2,25,1,21,19,28
2,1,23,19,2,26,60
0,12,1,36,1,1,6
1,31,1,2,14,0,2
31,2,2,0,39,1,1
29,1,19,4,5,22,35
3,1,18,35,1,9,52
1,15,0,26,0,1,4
3,18,0,1,47,0,1
23,2,2,1,40,7,2
15,2,23,7,3,24,46
1,0,10,43,1,16,31
0,29,0,14,2,1,2
7,25,1,2,31,1,1
31,2,19,2,20,11,9
8,1,25,18,1,31,62
3,7,1,34,0,1,22
0,22,2,1,11,1,2
8,5,1,2,30,1,0
31,2,16,2,9,25,31
9,1,18,40,1,23,49
0,12,1,27,2,1,4
0,26,1,1,22,1,1
3,2,3,1,33,2,7
28,1,33,8,3,16,49
20,0,12,38,0,16,26
2,22,2,13,3,2,1
0,21,2,1,32,0,1
15,2,6,1,12,12,20
24,1,26,30,2,26,55
2,0,10,42,1,4,11
1,21,0,1,13,2,1
2,12,0,2,34,0,0
30,2,19,2,6,13,41
20,2,11,33,2,22,30
2,3,1,28,1,2,3
2,26,1,3,11,2,1
6,4,3,0,28,2,15
34,2,25,5,1,25,47
8,2,9,44,1,10,6
2,8,1,14,5,2,1
1,26,1,1,31,1,0
6,7,2,2,23,5,35
43,2,24,26,1,31,47
15,1,9,41,0,9,5
1,8,2,5,8,2,0
0,25,2,0,41,0,0
17,4,3,1,14,5,45
27,1,19,34,1,29,44
2,0,10,24,1,8,4
0,11,0,2,17,0,1
12,25,1,2,33,1,13
34,5,8,8,1,2,52
4,2,28,46,2,30,6
1,1,8,13,2,11,2
3,15,1,1,31,3,1
10,21,1,0,28,2,32
33,3,12,17,2,7,50
6,1,28,31,1,27,4
1,1,2,2,10,6,0
2,22,1,0,34,1,3
18,25,3,4,4,0,49
27,1,18,35,2,10,32
1,1,12,21,1,12,0
1,11,2,2,32,7,1
0,28,0,0,30,0,12
30,3,2,20,2,3,54
22,1,20,48,1,20,7
2,2,10,5,3,16,1
2,19,1,0,29,0,1
7,27,2,0,23,2,30
25,2,8,22,2,9,47
6,1,27,36,0,33,4
1,2,8,3,8,9,1
0,23,1,0,37,2,5
8,12,0,3,14,1,47
40,0,8,29,1,5,38
11,2,28,23,0,25,3
1,8,9,2,21,6,2
1,30,1,1,33,1,10
23,7,0,9,3,1,66
32,2,10,41,2,10,10
2,0,30,12,10,36,0
1,3,4,0,44,5,2
7,29,0,2,10,1,51
40,23,1,19,2,2,35
21,2,16,30,0,8,3
3,0,18,2,12,19,0
0,9,1,1,39,5,18
6,25,1,1,6,1,56
34,3,1,29,2,0,7
10,2,27,26,1,15,1
1,0,12,1,28,26,0
0,18,2,0,19,1,29
7,19,0,13,2,0,55
35,2,7,37,1,3,3
8,0,31,5,8,16,0
1,2,8,0,37,12,2
2,19,2,0,14,1,44
13,15,1,22,2,0,34
32,2,11,34,0,5,3
3,0,22,2,14,25,0
2,7,4,0,38,5,19
3,27,0,5,5,1,57
27,7,0,33,0,1,5
23,3,18,18,2,7,0
3,1,27,1,24,23,1
1,5,2,0,21,8,26
2,23,1,21,1,2,45
28,4,0,41,0,2,4
13,1,29,6,6,9,3
0,0,15,0,31,26,0
0,9,1,2,17,8,45
10,18,0,27,0,2,36
28,2,10,37,1,0,1
5,2,31,3,25,3,1
1,1,3,2,37,26,13
4,9,2,3,4,11,56
21,28,1,34,1,0,8
25,4,14,13,5,1,0
3,1,21,2,37,11,0
2,2,3,2,36,14,29
4,7,1,14,1,0,50
30,27,0,35,1,0,5
15,7,29,4,8,1,0
2,1,25,2,59,15,2
2,0,2,1,28,16,44
12,8,1,17,3,0,34
37,29,6,31,1,0,2
4,6,21,3,14,7,0
2,1,5,1,42,28,24
1,1,2,19,3,9,59
26,6,1,89,0,2,9
36,34,5,10,2,1,1
3,9,33,1,28,6,1
2,2,7,0,26,29,26
2,1,0,10,3,10,49
29,1,1,35,1,0,4
19,27,11,8,3,0,0
1,7,26,1,36,20,5
2,1,4,1,18,27,48
10,1,1,34,2,3,42
33,8,0,36,0,2,3
6,28,19,1,26,1,1
1,6,25,1,41,31,8
2,1,2,71,3,7,48
29,1,0,151,1,1,21
25,5,1,4,0,0,2
1,23,24,1,25,1,0
1,4,16,2,35,18,26
1,2,2,1,3,19,47
31,0,0,20,1,0,5
15,7,6,24,5,0,2
0,39,29,12,34,3,0
0,12,6,0,16,27,42
9,1,1,59,1,10,48
34,1,1,50,0,0,4
14,13,12,2,13,0,1
1,17,26,1,35,11,7
0,2,5,0,4,25,46
13,2,0,6,1,5,27
43,1,1,193,3,1,2
5,20,13,139,25,0,1
1,15,11,5,28,21,24
2,2,4,3,4,19,50
26,0,1,0,1,1,4
14,8,0,0,3,2,0
1,26,21,193,38,4,2
2,8,15,107,19,22,42
11,1,0,17,2,9,37
36,0,0,15,0,1,2
4,6,9,0,26,1,0
2,25,28,0,35,1,8
0,5,8,0,3,39,54
18,2,1,108,0,9,26
20,3,0,191,2,2,2
2,5,6,51,25,0,1
1,27,27,5,27,5,22
4,7,11,0,1,29,47
33,2,0,0,1,10,5
8,2,0,352,5,1,0
3,11,9,754,36,1,1
0,21,24,23,17,8,42
1,4,4,10,0,31,36
15,2,1,24,1,9,3
32,0,1,33,14,3,1
1,11,2,1,41,0,6
0,10,29,407,6,9,48
4,5,8,408,1,28,21
32,2,1,10,0,11,1
9,1,0,3,21,0,0
2,20,12,3,32,1,20
1,14,23,195,3,24,44
7,2,3,121,1,19,4
32,0,0,14,4,1,0
7,7,0,0,30,1,3
1,25,31,93,16,4,39
2,10,25,374,0,18,37
7,2,1,40,1,14,1
32,0,0,1,19,2,2
11,15,4,315,26,1,13
2,19,23,348,3,10,64
0,1,11,8,0,28,13
17,0,1,0,2,4,1
43,1,2,7,14,1,1
5,13,13,809,60,0,38
0,19,23,172,9,14,38
2,2,2,2,1,23,1
30,2,0,110,2,1,0
23,5,0,467,23,1,12
3,20,19,17,17,2,57
2,3,17,125,2,23,9
11,1,3,244,0,11,1
27,1,0,7,19,2,0
6,5,13,1,40,0,23
2,31,30,433,4,20,55
0,8,5,20,2,22,4
16,2,3,522,0,5,1
25,1,0,17,26,0,4
3,5,12,111,29,0,46
2,25,21,167,2,13,43
2,16,1,226,1,28,2
26,0,1,435,8,4,1
21,1,2,81,37,2,7
2,11,19,4,24,1,50
1,24,12,2,2,23,21
12,2,1,105,0,32,2
44,1,1,1,17,4,1
5,1,6,625,34,2,32
1,18,21,125,4,0,51
0,18,8,307,0,38,4
28,1,2,8,1,20,2
29,0,2,0,21,2,2
3,3,3,1002,54,1,38
1,28,19,50,8,17,42
2,20,9,4,2,27,2
29,0,1,64,2,5,1
20,1,1,48,36,1,6
1,6,8,755,18,2,50
2,27,27,19,1,32,25
3,6,6,0,0,23,0
36,1,2,541,13,1,2
13,1,1,47,44,1,19
0,15,5,280,5,4,44
1,23,24,6,1,27,5
17,1,10,401,1,9,2
25,1,0,9,24,1,2
4,1,0,926,29,1,39
0,20,12,36,3,4,41
3,13,22,38,1,24,2
27,1,3,21,3,13,1
22,1,0,129,33,3,6
1,0,2,277,25,1,55
0,4,41,8,2,6,23
0,16,14,195,1,30,2
39,8,3,191,6,9,2
20,9,2,14,57,1,22
1,3,5,1,24,1,51
2,16,29,320,2,19,7
14,5,8,33,2,19,2
30,2,0,1,23,2,1
1,0,2,89,33,0,35
0,1,3,446,2,9,37
4,26,29,25,2,30,3
38,16,13,93,3,19,0
18,1,2,17,43,2,8
1,1,1,341,21,1,47
0,9,12,394,2,5,25
3,22,24,40,0,28,1
35,3,3,38,14,5,1
5,0,1,7,32,2,18
0,0,1,462,3,1,50
2,5,16,13,1,4,6
7,25,11,0,1,25,2
37,4,2,184,33,7,1
11,2,2,51,23,2,43
0,1,3,3,1,1,51
0,12,52,207,0,11,3
2,27,5,30,5,37,0
25,2,14,3,36,4,0
33,1,1,13,25,2,42
4,1,8,57,2,0,28
0,23,15,46,0,13,1
26,18,88,609,1,26,1
12,2,6,70,35,2,17
2,0,1,46,17,0,51
2,2,14,35,0,2,6
4,30,17,46,1,21,1
30,8,1,7,39,16,1
17,1,1,510,63,1,36
0,0,3,33,5,2,40
0,2,19,113,2,8,3
13,22,9,352,15,28,0
29,8,2,15,51,12,3
3,2,1,291,13,2,43
0,1,2,46,1,0,28
3,6,38,45,0,14,2
25,31,19,6,1,35,1
19,7,0,18,1,4,16
1,1,0,60,1,1,53
0,2,13,0,40,1,6
5,3,34,602,175,23,2
29,22,4,12,38,20,0
14,14,0,197,5,0,35
0,2,17,101,1,0,49
0,1,24,5,1,2,4
12,5,16,47,4,28,0
24,21,0,3,23,8,5
2,12,8,0,15,2,38
0,1,12,39,1,2,21
0,0,14,192,0,12,0
10,16,3,39,18,29,0
32,17,1,2,26,2,18
3,2,1,3,2,1,48
0,0,3,229,0,0,5
4,2,36,46,4,9,1
36,21,4,28,56,26,0
15,14,2,81,67,5,30
0,3,2,2,5,1,37
0,1,27,243,1,1,3
3,10,23,123,5,10,1
22,27,3,193,78,30,5
15,2,2,24,31,3,42
2,1,3,5,1,1,23
0,0,26,147,0,0,2
37,20,14,8,2,20,0
134,20,1,225,0,31,13
11,1,0,28,1,7,48
1,2,27,215,0,2,6
2,1,21,459,32,2,0
1,23,2,9,106,23,0
1,18,0,2,28,12,44
31,1,0,227,1,0,42
7,1,17,7,1,1,2
31,12,20,1,36,16,0
18,26,2,4,42,26,3
2,3,0,23,2,2,42
1,0,0,19,46,1,25
4,2,26,327,8,1,2
29,41,12,8,77,23,1
10,26,0,149,34,25,14
2,4,0,147,2,4,48
1,1,9,65,2,0,6
19,0,21,7,0,6,1
14,23,5,16,0,35,2
2,9,0,25,2,10,32
0,2,1,59,17,1,43
1,0,14,129,9,1,3
12,1,25,121,2,9,1
113,27,2,3,19,35,6
15,5,0,244,3,10,44
2,1,1,21,1,1,27
0,1,18,97,25,1,1
30,3,17,164,9,17,0
223,25,2,26,5,26,17
21,11,0,0,64,2,52
1,0,2,419,56,1,8
0,0,27,28,102,4,2
6,3,14,38,2,25,0
98,97,2,52,24,18,32
33,67,1,7,4,1,45
14,4,11,83,2,0,4
2,2,23,63,0,3,1
0,19,2,5,0,21,1
50,72,1,116,89,12,42
227,6,1,5,41,2,26
27,2,18,110,3,0,2
3,0,29,512,91,17,0
0,0,2,33,93,19,23
0,2,2,131,3,3,50
54,408,2,2,19,1,8
122,37,24,174,246,5,2
40,3,10,58,7,27,1
2,8,2,33,2,13,28
49,1,2,3,2,0,47
37,1,13,3,53,2,4
1,1,25,59,3,9,0
0,40,3,25,2,22,1
1,10,2,1,2,12,42
26,7,3,166,0,0,35
65,2,21,188,2,0,1
82,1,23,12,20,23,2
7,5,1,103,108,13,11
40,27,1,43,17,2,58
4,58,4,13,2,0,9
0,6,30,121,16,3,0
2,2,9,4,133,22,1
186,4,2,100,4,17,28
18,17,1,3,1,1,44
5,3,4,15,0,1,4
220,10,24,14,92,9,1
42,59,6,3,64,24,3
13,24,2,133,3,5,47
1,1,2,41,10,0,29
44,0,6,27,39,0,1
48,0,31,9,5,7,1
8,1,8,64,25,27,11
30,55,2,5,5,7,51
29,41,1,162,5,1,9
1,82,2,15,11,0,1
1,5,26,26,16,17,0
140,2,13,37,0,30,25
61,63,1,2,10,3,49
15,154,0,19,75,2,5
3,55,4,240,33,1,1
3,48,28,6,3,12,3
59,8,8,91,9,24,48
3,1,0,13,267,1,35
0,0,1,49,15,1,1
19,0,8,28,2,5,0
70,1,24,6,14,30,9
6,588,5,1,131,20,48
29,213,2,217,37,2,20
69,6,2,51,24,2,3
27,3,19,9,3,8,0
3,1,27,7,39,30,26
26,0,3,70,34,16,42
85,0,0,215,2,2,4
11,473,0,16,0,0,0
39,332,23,4,22,11,0
3,11,22,0,11,25,37
0,0,2,252,137,3,47
1,0,1,90,6,1,3
5,84,1,5,2,3,0
4,403,17,19,1,27,11
182,11,6,65,9,22,50
97,64,3,159,103,2,9
5,23,0,17,4,1,0
1,220,2,5,0,5,1
182,25,24,35,55,14,31
117,174,12,95,52,5,51
16,28,1,9,7,3,5
20,58,2,87,2,0,0
14,570,4,74,2,6,0
3,41,23,13,41,38,35
35,9,13,38,43,8,35
38,2,1,14,5,0,2
5,1,0,88,9,1,2
4,84,20,123,9,13,14
14,39,10,50,30,62,51
1,5,0,15,2,11,6
217,7,0,1,0,0,0
18,0,2,385,16,1,0
9,454,32,25,103,19,17
2,178,12,25,23,12,51
1,34,0,24,3,1,5
2,4,0,6,7,0,1
6,317,19,59,123,3,2
2,8,23,29,27,34,38
45,8,2,46,9,8,34
56,21,2,11,3,3,2
19,2,0,16,80,0,1
2,9,15,44,18,0,7
83,53,28,10,6,47,46
147,140,3,64,2,22,24
4,32,1,33,0,13,3
69,1,2,63,108,1,0
10,1,23,5,21,9,29
25,0,14,66,0,25,64
6,0,1,6,7,3,7
4,4,0,284,18,3,1
2,105,1,30,47,4,2
18,212,34,2,13,24,38
11,33,28,159,0,7,33
0,33,4,10,8,2,2
35,9,1,78,79,5,0
41,1,12,16,26,15,9
49,1,17,159,2,72,50
10,384,2,47,0,15,18
92,70,0,17,75,2,2
5,87,0,8,142,4,0
27,11,28,1,49,16,21
22,1,56,84,2,11,47
1,2,4,26,3,2,5
1,58,8,14,25,6,1
1,3,1,245,4,99,0
106,0,4,27,4,30,43
3,3,12,39,6,35,42
162,77,3,49,4,5,3
30,36,0,34,18,14,1
5,30,18,31,22,36,2
11,3,47,17,2,73,46
1,24,21,144,11,114,29
2,2,0,14,33,75,2
55,96,8,187,3,78,1
53,288,1,13,2,38,23
4,64,2,155,1,2,48
2,204,32,71,57,50,4
34,4,44,25,53,51,1
9,1,90,46,8,11,1
2,36,75,3,1,36,40
272,93,6,20,1,19,33
22,15,0,54,0,30,3
3,38,1,67,15,46,1
2,9,10,118,27,101,11
1,6,169,3,34,29,59
8,50,24,360,1,59,10
1,31,156,127,9,69,1
49,2,11,8,10,13,2
34,47,1,1,103,2,44
33,171,1,101,4,28,34
1,94,0,25,8,89,2
110,5,73,291,53,62,0
49,1,145,25,14,7,12
9,111,17,2,1,25,57
2,43,31,330,2,102,11
12,6,59,26,2,21,1
6,12,2,1,33,30,0
21,58,185,124,4,101,38
1,15,207,14,0,89,41
0,21,26,5,7,10,1
75,1,30,41,41,38,0
73,104,3,24,14,31,7
4,62,56,54,1,61,50
27,51,226,45,1,31,26
12,5,49,38,35,101,1
1,14,92,341,100,32,1
2,70,59,161,4,36,19
136,44,410,80,46,35,54
7,71,294,41,15,144,6
3,30,40,3,59,31,1
32,125,8,112,6,31,1
18,9,137,28,2,44,36
3,3,228,1,1,5,41
24,1,10,11,34,81,3
14,30,132,79,50,75,1
20,49,318,4,5,69,5
5,26,46,9,0,146,42
32,5,2,69,42,267,26
30,14,63,100,65,84,2
42,71,146,8,5,73,1
5,4,38,1,0,28,15
2,0,299,23,0,72,50
53,1,452,36,11,22,7
14,199,87,15,17,34,0
1,19,163,135,9,271,0
1,36,146,4,4,50,37
46,174,3,21,12,85,39
40,3,164,9,5,15,1
47,34,198,38,2,151,1
92,54,370,53,2,17,6
5,22,17,7,0,4,48
103,2,24,218,41,11,24
29,9,165,6,120,39,2
21,3,243,38,43,33,0
1,93,48,101,2,33,18
144,31,113,23,1,118,51
13,59,133,50,26,166,7
2,4,79,43,40,80,0
16,0,50,47,3,66,0
1,69,108,104,1,68,36
84,213,389,3,7,279,41
37,6,7,73,65,156,3
5,2,3,154,14,5,0
4,12,96,7,1,20,2
40,68,277,163,9,153,51
3,80,16,5,18,13,31
51,17,110,102,41,208,2
9,13,161,13,10,121,1
22,36,38,3,2,13,25
70,89,54,2,0,40,52
11,5,114,110,77,46,8
0,24,26,33,58,107,2
9,26,36,226,5,38,2
187,96,87,78,2,68,33
41,4,484,52,0,26,41
6,17,18,3,22,32,4
1,32,14,156,73,5,1
0,47,70,47,4,52,5
55,2,135,422,29,6,45
29,1,14,37,37,108,25
3,199,10,25,4,93,2
1,46,60,2,1,28,1
51,3,137,118,1,59,15
19,30,64,17,0,75,55
1,31,18,10,33,26,6
6,4,95,57,20,8,1
60,256,79,45,3,2,1
19,27,115,47,0,200,40
16,31,260,3,24,9,46
3,110,5,1,36,72,3
5,4,94,359,13,4,0
0,1,192,26,1,138,1
117,2,130,5,8,88,50
35,178,62,1,24,100,33
4,17,13,49,61,19,2
4,42,0,54,5,26,0
1,5,312,7,1,8,19
1,1,178,59,3,5,71
215,0,44,100,12,133,9
14,28,65,159,16,39,0
2,141,72,18,2,34,0
0,6,30,8,12,2,36
64,182,32,2,35,5,53
103,69,55,45,58,27,5
12,4,147,38,9,61,0
6,12,81,472,2,34,0
1,30,15,128,1,14,53
0,6,30,96,30,93,33
8,2,2,4,13,104,3
12,19,73,1,1,21,0
3,26,192,273,1,9,14
4,35,197,87,15,74,60
0,24,8,10,22,12,7
4,1,82,44,3,6,1
48,17,82,128,0,132,0
8,97,8,64,13,52,39
1,26,70,4,18,33,52
2,3,144,2,7,2,3
13,107,37,42,0,20,0
66,11,39,110,0,24,2
29,50,57,21,49,69,49
2,4,29,130,24,5,39
14,2,277,30,6,1,2
83,20,12,93,0,0,0
6,22,59,10,0,37,13
1,5,16,19,1,77,66
19,51,26,5,42,15,11
124,76,79,1,33,13,0
11,21,11,263,3,21,1
1,11,13,46,2,30,48
0,0,71,163,7,10,36
0,5,14,129,63,52,2
1,37,66,29,12,21,0
35,84,6,1,9,96,19
41,4,4,188,5,15,63
2,15,52,100,33,10,10
3,93,65,8,4,4,0
18,10,21,25,1,41,2
2,30,42,5,2,36,50
33,3,52,87,11,37,43
2,15,64,8,42,9,3
46,43,32,0,5,37,1
20,16,12,656,1,115,13
2,1,9,47,2,10,68
0,39,50,4,80,1,10
36,2,23,0,37,82,1
91,19,194,41,2,91,3
52,8,5,81,0,26,48
3,10,39,3,2,3,45
9,100,81,175,33,14,1
75,7,57,93,25,49,0
30,74,81,3,8,13,13
6,6,20,380,1,14,70
11,26,13,180,1,138,12
46,28,29,19,55,7,1
47,2,46,21,9,48,1
3,0,3,20,1,4,47
1,81,122,69,7,10,38
1,36,27,19,3,42,2
69,33,237,56,20,39,0
68,9,15,29,20,77,12
56,3,5,21,2,8,67
3,57,4,19,1,19,10
0,61,147,10,15,109,2
60,3,13,139,45,9,1
4,1,105,12,5,19,47
38,1,22,35,1,81,46
3,2,26,60,21,19,3
29,122,1,38,41,6,0
45,47,15,3,5,26,10
4,3,103,8,0,5,71
2,46,57,104,1,72,13
32,57,10,5,0,37,1
1,18,83,18,46,10,0
66,1,48,7,22,38,48
70,13,15,81,2,65,52
3,182,1,171,0,54,4
4,41,228,6,18,23,0
31,4,12,1,28,37,14
2,2,29,35,2,37,65
2,3,23,5,2,16,10
6,15,38,30,1,5,0
96,2,213,3,35,1,0
61,33,6,9,29,67,49
5,45,131,8,2,15,48
1,11,13,15,34,36,2
0,25,39,34,3,3,0
13,1,5,4,20,29,15
120,59,72,131,43,29,69
4,5,10,178,3,74,11
3,1,43,9,1,29,0
3,111,43,11,33,19,0
38,29,61,19,20,8,46
11,138,28,23,0,43,48
1,48,7,2,2,6,3
0,8,2,0,18,78,0
99,2,40,5,31,49,14
80,33,43,29,5,137,71
14,6,146,13,0,11,11
1,1,25,3,1,94,1
1,1,64,2,32,14,0
8,151,217,22,28,8,43
43,188,14,36,21,24,45
22,9,15,4,3,12,2
4,1,2,2,6,33,1
22,31,78,0,44,33,11
53,9,192,18,5,41,69
5,1,78,31,0,56,13
0,48,12,2,1,45,0
8,24,12,1,16,51,0
75,39,192,3,19,52,45
33,50,10,36,5,41,50
3,4,1,29,0,90,2
1,0,114,3,1,29,0
14,79,169,1,15,10,9
120,9,157,9,25,0,61
6,125,34,27,17,58,30
2,181,30,25,2,57,2
45,6,25,3,24,18,0
17,27,17,0,50,11,22
9,5,49,18,4,35,66
0,0,162,59,2,6,10
95,197,16,7,0,1,0
74,68,1,1,23,59,8
35,5,172,5,35,39,64
1,2,64,51,3,151,28
1,1,20,12,1,6,1
106,47,38,2,0,47,0
65,5,3,1,25,14,28
16,1,7,18,125,7,64
2,10,13,63,5,24,5
19,1,39,7,0,10,1
21,33,316,0,44,103,1
2,32,94,0,55,66,48
0,10,38,37,3,4,51
4,7,2,18,1,2,3
10,2,93,1,22,2,1
20,15,79,0,56,23,9
18,6,182,4,22,13,67
2,0,117,15,2,150,28
35,30,26,5,0,7,2
10,71,19,3,22,13,2
50,18,23,1,46,3,24
1,54,52,6,3,95,69
1,23,18,34,1,7,8
18,1,150,22,1,59,0
117,25,6,2,54,44,2
5,23,28,1,39,7,48
10,1,152,5,3,1,47
1,1,27,48,2,43,2
0,23,34,24,22,22,1
9,11,16,2,51,59,7
39,15,24,1,22,17,65
73,2,31,17,0,10,34
52,46,68,41,0,100,2
17,52,80,4,53,71,0
2,8,103,0,10,7,22
1,0,19,3,6,41,64
0,9,21,38,2,5,7
1,225,28,27,1,9,1
28,21,56,3,13,27,0
21,40,28,1,38,95,41
7,2,39,5,2,15,52
9,115,23,39,1,23,3
15,66,25,11,4,4,1
19,74,2,1,43,22,13
1,4,38,0,24,1,67
21,91,6,20,1,66,14
8,62,24,45,3,28,1
0,21,31,4,49,25,0
65,2,111,1,22,56,42
11,1,72,3,1,40,52
9,10,13,28,1,33,3
49,90,7,15,7,49,0
22,13,4,3,38,8,8
2,0,25,1,9,5,61
1,35,11,14,2,41,31
38,13,141,38,0,39,1
86,10,18,6,14,10,0
46,0,8,2,68,2,19
4,0,29,1,21,30,58
3,113,57,25,2,98,7
15,296,42,38,0,6,1
20,11,91,5,45,1,1
1,1,5,1,23,41,51
1,120,35,2,0,13,59
65,82,26,28,1,5,3
61,5,140,21,13,2,2
1,2,3,2,36,33,6
1,1,23,3,6,80,63
54,7,15,4,4,7,34
42,1,46,31,1,3,2
2,0,4,18,1,41,1
2,6,29,1,27,12,24
81,5,29,1,5,123,62
9,48,71,18,2,13,7
104,22,33,41,1,37,1
6,1,17,6,17,10,2
0,0,34,0,52,4,51
4,152,2,3,9,18,51
113,7,15,30,1,2,2
4,150,21,28,0,2,1
24,53,75,4,65,68,7
2,7,68,1,26,20,64
83,7,13,7,2,18,29
31,156,26,34,1,8,1
1,4,48,13,1,95,0
0,129,108,0,25,6,14
0,17,23,0,47,30,61
16,1,14,15,3,6,7
41,2,34,36,1,68,1
2,5,8,3,8,4,0
0,16,8,2,31,114,45
57,40,105,3,16,4,51
16,4,195,37,3,2,4
52,0,67,39,1,44,3
4,27,42,2,32,50,3
1,5,3,1,28,6,54
1,1,49,4,2,1,37
28,0,53,33,1,41,2
4,5,14,13,9,154,0
0,0,39,1,18,13,15
9,34,3,1,15,25,62
5,104,1,17,2,1,8
15,4,60,33,0,54,0
19,120,239,4,1,43,0
0,10,40,1,29,6,40
10,2,26,0,9,62,51
86,14,10,25,6,82,4
14,37,15,23,1,20,0
2,15,87,2,12,44,3
7,0,43,1,65,7,51
5,26,2,13,13,3,35
90,13,57,41,1,54,3
15,83,41,5,2,4,0
3,11,1,1,22,49,17
1,0,49,2,37,14,65
21,7,121,28,10,64,8
1,20,25,30,1,12,2
48,14,26,2,25,1,2
45,1,14,2,36,9,39
25,0,131,2,3,57,56
3,0,17,34,1,55,4
0,45,3,18,9,59,1
39,17,3,1,39,3,1
5,11,0,0,9,34,55
15,43,54,5,1,8,38
47,5,87,33,1,56,2
5,32,102,12,17,23,1
6,178,2,0,83,21,21
16,15,42,1,15,48,62
46,1,97,19,2,29,7
4,3,43,31,2,27,0
0,1,5,2,49,6,3
14,0,5,1,17,9,52
48,30,51,3,7,9,45
3,2,71,40,1,2,3
29,0,57,28,2,21,0
1,30,12,3,34,10,1
13,46,44,3,27,39,53
41,1,58,6,3,26,39
4,56,31,38,1,8,1
28,15,6,13,45,16,1
25,0,7,1,51,15,17
12,0,4,0,6,10,68
2,1,16,14,1,17,11
48,1,339,31,0,44,1
138,127,58,3,13,2,3
15,46,78,2,61,49,52
0,13,28,2,5,26,37
27,3,56,37,0,2,4
3,1,65,28,0,123,1
38,1,10,2,34,13,19
6,47,101,0,80,14,66
0,35,8,7,7,36,9
1,3,77,34,3,103,2
61,0,18,18,9,51,1
44,98,8,1,50,3,35
42,17,115,1,13,23,59
2,42,39,29,1,9,7
2,1,90,42,0,74,0
0,0,28,2,18,22,3
13,1,2,0,24,3,56
32,1,7,0,3,1,36
3,67,74,29,0,3,2
0,5,21,24,12,6,0
68,1,66,0,57,82,15
7,1,76,1,7,8,67
33,33,84,9,0,7,9
3,50,15,35,0,2,3
9,1,47,15,1,67,0
35,109,123,2,52,16,35
1,113,61,1,41,3,58
25,7,5,16,2,2,4
55,1,23,30,1,65,1
28,1,69,3,21,34,3
11,33,29,1,45,2,52
1,110,22,3,5,0,36
2,12,3,26,0,17,1
66,2,1,38,14,50,1
95,2,46,3,34,8,14
16,13,19,1,13,1,65
1,9,20,5,1,10,10
1,0,63,30,1,8,1
0,0,9,12,17,8,0
55,140,18,2,43,102,50
17,20,9,1,3,5,43
2,3,59,29,1,15,1
15,2,7,42,10,5,1
6,1,6,4,40,102,20
1,1,119,2,4,5,65
10,77,10,0,1,10,9
100,16,5,27,3,64,2
60,2,143,29,44,45,1
12,109,58,3,35,16,31
1,30,4,0,4,2,53
1,40,10,5,0,20,4
0,38,60,38,3,39,0
92,7,39,18,22,11,0
29,45,63,0,29,8,46
1,9,51,0,6,4,45
0,2,7,14,1,30,2
57,1,39,34,1,3,1
43,3,22,5,41,2,13
3,54,58,1,26,27,66
1,13,6,0,3,25,12
103,12,33,23,0,12,2
51,21,67,25,5,46,1
4,5,70,2,43,69,51
9,1,41,1,13,89,46
2,0,82,11,1,10,3
23,126,4,41,3,11,1
52,34,60,5,29,5,16
5,21,16,2,31,23,78
0,2,52,1,2,51,10
7,45,3,17,1,6,0
52,65,48,24,17,3,0
4,6,28,3,87,3,55
44,1,28,2,9,45,48
2,0,9,0,0,52,1
63,12,7,25,1,11,1
34,57,42,28,20,1,14
3,15,37,2,22,49,63
1,1,8,1,4,111,9
4,0,12,2,1,54,2
2,2,2,34,1,2,1
5,72,86,21,31,3,30
24,15,9,2,33,185,55
54,2,16,1,3,13,6
18,1,40,15,1,0,1
11,1,15,37,17,30,1
2,2,113,3,33,60,44
0,20,37,2,9,19,51
19,135,109,0,2,47,4
115,9,6,27,1,16,1
24,2,79,26,18,26,11
3,7,39,3,31,67,62
1,4,17,1,9,4,9
9,0,27,5,2,24,1
14,128,53,39,9,12,1
1,58,38,18,15,5,33
21,5,103,1,20,80,57
7,2,21,1,3,7,5
38,9,26,15,1,19,1
48,2,77,34,25,160,0
2,10,95,3,62,39,51
1,50,4,1,9,42,46
2,4,40,0,2,57,3
12,0,37,24,3,31,1
24,1,17,28,6,6,10
14,103,19,2,5,47,67
7,26,4,0,19,52,10
25,2,70,3,2,52,1
4,0,5,38,0,152,0
1,26,13,22,12,33,51
2,104,24,2,49,8,45
42,4,25,1,9,121,2
77,1,23,10,0,5,0
10,0,216,40,1,84,12
1,10,37,5,33,44,53
1,96,23,1,28,3,11
10,10,13,0,4,82,1
13,63,69,30,21,63,0
1,10,16,25,26,10,42
6,2,29,3,37,6,43
48,8,7,0,11,2,2
34,18,3,6,0,114,0
7,2,52,37,10,5,15
2,5,89,14,45,20,63
1,290,4,0,5,75,11
10,22,10,0,9,21,0
12,1,5,20,1,1,1
57,2,24,42,3,36,50
3,1,35,4,55,70,49
0,18,33,2,13,13,3
37,15,127,0,1,17,1
67,116,32,27,0,44,10
5,4,110,34,29,23,68
1,5,2,3,39,2,13
7,2,27,1,2,2,0
17,1,94,8,1,58,0
9,173,26,34,0,16,47
0,14,1,13,23,11,50
1,5,0,1,32,1,4
3,1,92,1,2,0,1
34,12,36,13,1,8,11
6,6,11,39,16,25,73
0,0,49,6,43,13,12
1,19,18,0,5,1,1
0,28,20,2,2,1,1
22,63,34,19,1,12,37
14,5,47,28,27,17,64
3,0,88,1,41,1,5
0,189,32,0,1,1,1
3,17,85,3,1,4,6
23,1,10,35,1,15,57
20,0,0,20,38,10,24
2,1,99,3,24,1,1
2,8,22,0,3,3,1
13,16,97,7,2,5,27
18,2,8,33,11,23,63
2,243,9,12,41,4,8
0,5,4,0,6,2,1
2,18,30,0,1,1,2
18,25,5,18,1,8,49
4,2,0,29,22,21,48
10,1,147,2,33,10,3
40,20,50,1,2,1,2
17,7,12,2,1,1,6
13,8,2,36,2,16,58
1,4,23,25,37,21,31
1,1,31,1,30,1,2
0,6,86,1,3,1,0
31,17,27,15,0,1,26
29,4,24,33,12,38,61
2,2,20,4,35,33,7
1,3,6,2,7,4,1
17,14,9,1,0,5,0
25,4,2,21,2,2,46
6,1,112,31,20,0,46
2,1,40,1,49,70,2
1,0,81,1,4,11,1
22,7,51,0,0,1,15
26,48,1,26,4,256,74
2,15,142,25,37,26,17
0,3,6,1,30,2,1
2,1,17,1,2,1,0
31,33,33,10,2,1,45
22,12,5,39,15,0,53
1,0,1,4,45,14,4
2,1,25,1,6,10,1
10,4,12,1,0,1,8
37,26,29,25,0,9,55
4,6,49,30,16,21,27
2,1,2,3,40,3,1
0,2,33,1,4,2,1
26,1,85,3,0,2,24
38,20,6,34,2,11,59
2,6,12,18,33,3,6
2,1,30,1,25,12,0
1,0,111,2,2,2,0
28,1,14,11,1,0,41
21,33,1,39,12,12,49
2,14,116,3,42,10,3
1,0,26,1,7,0,2
10,0,8,0,0,1,8
36,11,1,19,1,1,57
4,22,25,29,19,29,25
0,2,13,3,40,19,2
0,1,60,0,3,1,0
26,2,26,11,2,1,16
28,12,6,45,2,18,59
3,16,13,7,38,13,7
0,1,59,1,30,1,0
7,1,20,0,1,0,0
24,0,57,12,1,0,44
21,18,3,38,14,13,48
1,11,45,4,44,13,2
1,1,22,0,7,2,0
4,1,2,2,0,1,5
37,9,62,24,0,1,59
11,27,86,33,15,21,38
2,6,17,2,39,6,4
2,1,44,0,5,1,0
18,0,13,3,0,1,18
30,12,79,37,1,0,54
3,20,47,22,25,34,8
1,1,3,1,32,11,1
1,0,72,0,2,2,0
22,1,62,12,0,1,45
25,36,3,39,10,6,49
3,18,0,4,40,18,2
2,1,7,1,6,3,1
8,1,9,1,0,1,5
30,11,202,25,1,1,55
7,39,16,30,19,13,35
1,5,32,4,40,21,2
2,1,4,0,3,1,1
3,4,51,2,1,1,23
32,23,19,30,1,1,61
9,12,48,21,40,14,7
2,1,49,2,30,11,0
0,0,4,0,3,2,1
6,4,10,9,0,1,43
33,53,22,35,9,5,50
15,17,25,10,42,25,3
1,1,31,1,17,5,0
1,6,107,0,2,1,5
12,2,46,20,1,1,55
35,3,3,25,17,6,30
5,14,28,2,41,19,1
0,2,70,0,5,6,0
1,0,44,8,2,2,19
24,11,6,34,1,0,62
28,4,3,19,37,5,10
2,5,33,1,43,27,1
1,1,22,0,3,10,5
4,1,39,9,2,2,61
34,7,25,36,7,2,32
11,21,9,12,38,8,0
1,13,43,1,15,8,0
1,2,10,0,2,32,20
16,1,84,19,1,5,57
26,21,25,30,22,2,8
1,16,76,3,41,5,1
1,2,25,1,3,20,0
1,1,35,4,2,5,40
26,1,10,42,2,1,51
31,17,94,30,35,0,3
2,17,15,2,25,13,0
0,2,1,2,3,20,3
6,0,21,5,1,4,52
39,1,124,33,1,1,34
14,62,22,13,32,2,2
2,10,37,0,34,10,1
1,2,30,2,3,28,17
11,1,60,14,0,2,64
29,8,112,28,16,0,9
4,23,37,2,38,2,3
1,6,14,0,2,25,1
1,0,5,2,2,14,34
23,2,14,31,2,1,50
22,17,75,23,27,1,5
3,20,92,2,29,6,0
1,3,7,1,4,44,3
6,0,0,9,1,8,53
34,1,6,44,8,0,34
13,13,71,15,36,0,2
2,21,13,1,14,6,0
0,1,51,1,2,25,17
12,1,13,18,1,5,60
35,1,5,33,21,0,8
4,21,37,2,36,1,0
1,8,62,2,4,10,1
0,2,81,1,0,28,44
22,1,4,46,5,5,52
21,0,0,22,41,1,5
2,22,37,2,18,1,1
1,11,72,0,1,19,1
6,1,38,7,1,21,49
32,0,8,41,19,1,39
13,11,248,9,41,0,2
2,53,5,0,8,1,0
1,7,6,1,0,27,14
10,3,19,7,1,9,63
26,1,108,37,16,1,7
4,4,14,13,41,1,1
2,19,3,0,5,5,2
1,5,15,0,1,25,41
22,1,45,22,0,15,54
22,1,136,36,21,2,5
2,9,4,3,32,2,0
0,19,156,1,3,11,1
2,5,5,1,2,25,50
26,2,17,28,3,3,35
12,0,11,30,38,2,2
1,11,1,2,19,0,2
2,22,29,0,2,15,15
15,2,13,10,0,12,53
34,2,23,32,16,3,5
4,1,2,6,39,1,0
0,22,58,0,3,1,0
2,14,88,1,1,29,31
22,1,25,15,2,13,49
32,1,2,44,29,1,3
1,10,1,4,31,0,1
1,29,19,1,2,5,2
3,5,25,3,2,25,52
31,1,5,32,3,8,36
21,0,54,26,35,1,2
1,17,9,1,21,0,1
0,21,14,0,2,5,15
14,1,13,6,0,38,59
30,1,2,39,15,9,8
4,0,0,15,45,2,2
1,22,23,1,6,1,0
1,17,37,0,2,7,36
17,2,3,21,1,25,49
27,1,0,39,29,4,3
2,5,5,5,35,2,0
2,20,31,0,4,0,2
4,6,16,2,1,2,47
29,2,1,32,5,37,31
14,0,0,30,43,6,2
1,11,12,2,16,1,1
1,22,37,1,2,1,9
11,3,6,8,1,5,55
20,1,2,38,18,21,22
5,1,1,13,44,10,1
0,15,17,0,5,1,0
1,23,22,0,2,0,34
18,3,3,22,2,10,53
17,1,0,34,26,32,3
1,0,3,3,30,3,1
0,18,29,1,2,2,1
11,11,11,4,0,1,48
33,1,2,24,1,15,43
6,1,0,23,41,14,2
2,10,10,3,23,1,1
0,37,21,0,3,1,12
9,4,1,3,1,4,62
31,0,1,24,17,18,9
8,1,0,15,53,13,0
1,16,12,1,6,0,0
0,24,18,0,1,0,30
7,3,20,22,2,21,57
30,0,1,35,41,29,5
9,0,9,3,28,4,1
2,23,25,0,2,1,1
1,13,6,2,0,0,49
9,2,1,27,7,20,45
39,0,2,28,36,18,2
10,4,8,3,17,1,1
2,27,27,1,2,0,18
0,8,2,4,1,2,61
8,2,1,36,18,29,10
23,1,1,15,38,13,0
8,4,26,2,7,1,0
2,26,81,0,1,0,50
1,14,9,12,0,4,46
16,1,1,52,31,36,4
23,1,0,5,32,11,1
3,11,57,2,2,1,13
0,19,73,1,1,2,66
1,2,5,33,9,15,12
22,1,1,35,34,25,0
21,0,0,3,18,1,1
1,20,18,1,0,1,50
1,14,13,10,1,1,49
12,0,2,45,11,31,2
34,2,1,9,38,19,0
6,9,7,2,5,1,13
1,24,31,1,1,0,69
1,9,11,19,1,12,14
13,1,1,37,26,24,1
30,2,0,3,27,2,1
4,7,21,1,1,1,52
1,29,29,2,0,0,50
4,9,3,33,4,17,3
29,2,1,30,38,22,0
20,0,1,1,25,1,10
2,4,26,0,2,1,68
1,29,25,7,0,2,13
5,7,2,37,12,22,0
32,3,1,13,40,32,0
16,0,11,1,5,3,46
0,4,36,1,2,2,49
0,24,5,17,0,8,4
20,7,0,34,30,25,0
32,1,1,5,30,5,11
4,1,14,0,1,1,76
1,4,69,0,2,0,16
0,25,23,38,5,4,1
22,10,2,35,39,28,0
19,1,5,2,22,10,55
1,1,25,0,1,1,57
0,8,8,6,1,1,3
6,21,2,38,11,25,1
25,2,1,19,43,16,8
10,1,6,0,5,2,67
1,1,27,2,0,1,31
1,6,6,16,0,2,2
20,16,1,37,34,20,1
26,3,0,5,27,20,28
3,2,7,0,2,1,68
0,1,30,1,2,0,9
3,11,8,29,2,7,1
34,26,2,23,36,32,1
23,2,0,3,14,12,54
0,1,8,0,1,2,58
0,0,31,9,2,2,3
12,19,8,31,18,9,1
43,17,1,14,38,28,9
8,2,2,2,5,2,65
0,1,15,1,0,1,24
1,2,32,28,1,0,2
13,24,3,36,27,12,0
29,7,1,3,34,34,25
3,1,0,1,2,4,67
1,0,19,1,0,1,6
1,1,30,29,3,1,1
25,23,5,26,33,22,1
24,8,1,2,20,10,48
3,2,0,2,1,0,47
2,1,24,8,1,1,3
4,0,24,39,11,30,1
32,31,1,15,46,30,10
13,29,0,2,6,3,67
1,3,10,0,1,1,13
0,2,31,27,0,1,2
25,7,4,40,25,15,1
32,20,1,4,34,18,47
3,3,0,0,4,1,50
0,2,18,1,0,1,3
2,1,27,22,6,3,1
21,6,3,32,42,22,8
22,21,0,4,17,13,59
3,5,5,2,2,2,38
1,2,32,4,1,0,2
6,1,18,38,13,2,1
25,7,1,23,39,21,26
19,23,0,0,7,5,74
0,4,5,1,2,1,9
1,0,44,19,1,0,1
11,1,14,43,19,7,1
34,10,2,4,38,25,51
5,29,1,1,5,20,68
0,4,12,1,1,2,3
0,1,21,30,5,1,0
22,0,2,27,36,17,8
24,20,0,3,23,23,71
3,12,2,1,2,3,34
0,2,26,7,0,1,1
10,1,12,42,10,0,0
36,5,2,15,35,15,26
4,24,1,3,5,18,71
1,11,6,0,1,2,9
1,0,36,20,1,1,2
11,0,17,30,22,9,0
34,6,0,5,35,14,41
4,23,1,1,4,15,51
0,4,13,0,1,2,4
1,2,24,33,3,1,0
17,0,3,29,28,12,6
24,5,0,2,25,20,49
3,16,0,0,3,3,27
1,5,22,2,0,2,2
3,3,19,50,14,1,3
36,1,0,25,37,18,20
16,8,1,2,6,18,70
2,26,15,1,0,2,7
1,9,22,14,1,1,0
8,2,3,38,29,8,2
29,0,1,4,38,39,46
6,9,0,2,3,9,59
1,27,14,1,2,1,5
1,5,21,34,3,1,0
1,0,2,28,27,9,6
28,1,1,1,15,23,68
9,15,1,1,1,14,38
2,22,29,8,0,2,3
2,1,18,41,13,1,1
6,2,3,21,34,10,21
27,1,1,2,4,27,65
9,14,5,0,1,2,7
1,16,28,14,0,2,2
1,1,8,36,18,4,1
11,0,2,5,35,22,44
28,1,1,1,4,8,53
3,19,6,0,0,2,3
1,10,22,25,5,0,1
1,2,5,30,43,2,5
19,0,1,1,26,15,62
21,6,2,0,2,15,36
2,24,3,5,1,1,2
1,4,18,31,5,1,0
2,0,7,20,32,7,27
24,1,2,1,11,26,63
22,5,1,1,2,12,7
3,19,6,12,1,1,2
1,7,26,32,25,0,0
5,1,6,3,28,10,45
29,1,2,1,2,21,52
8,8,1,0,0,2,2
2,20,10,24,8,2,1
0,4,30,30,50,2,8
8,0,5,3,25,22,56
30,0,2,0,1,11,35
6,8,2,1,0,1,2
2,27,13,34,9,0,0
0,8,21,18,48,10,19
9,1,4,0,15,34,66
26,1,1,1,2,7,9
11,12,0,11,1,2,0
0,22,25,32,23,0,1
0,2,23,2,38,9,48
11,0,2,1,4,32,56
36,1,0,1,0,7,3
4,18,5,33,0,1,1
1,19,25,31,31,5,4
0,2,7,3,25,14,59
29,1,2,1,1,21,44
30,2,0,4,0,3,1
2,25,1,41,6,1,1
0,16,22,23,40,2,23
7,2,11,1,12,24,72
32,0,0,0,1,19,6
9,6,0,19,2,2,0
2,19,21,44,18,1,1
1,5,45,5,32,4,39
7,0,4,1,4,23,58
32,1,0,1,1,8,5
8,9,1,20,5,1,1
2,20,25,32,31,0,5
0,2,25,1,30,9,53
13,0,2,0,1,19,29
31,1,1,6,0,11,1
7,9,6,33,11,1,0
1,25,29,12,42,1,20
1,6,8,2,9,8,58
13,1,3,0,1,9,7
27,1,2,29,0,9,2
3,12,5,81,20,3,3
1,31,29,6,38,2,41
2,3,13,2,3,0,42
26,3,1,0,2,18,2
32,0,0,23,7,10,1
3,10,11,29,33,1,3
1,25,28,2,28,1,52
4,0,3,1,1,2,31
27,0,0,4,1,19,2
11,1,0,28,2,9,1
1,25,13,20,44,3,19
0,13,26,1,26,0,60
12,1,4,1,2,4,7
31,0,1,13,1,22,2
7,6,2,34,19,9,0
0,23,24,2,43,2,36
0,4,12,0,8,1,52
25,1,0,4,1,3,4
16,1,1,105,0,30,1
2,7,13,14,30,5,1
1,24,33,1,34,1,48
4,7,5,1,3,1,35
33,2,1,5,2,4,1
12,0,0,31,4,38,0
1,5,18,5,37,11,17
1,25,21,0,20,0,53
14,8,2,1,1,1,7
33,2,0,3,2,8,0
3,0,5,38,18,18,1
0,7,28,22,41,5,34
0,38,10,3,5,1,54
24,9,1,1,1,0,3
20,2,1,20,2,11,1
2,1,8,30,41,37,3
1,3,24,1,31,4,49
9,23,9,1,2,2,32
26,18,2,0,0,3,1
18,2,1,28,8,15,1
2,0,9,36,41,12,12
1,12,27,3,18,2,55
15,20,4,4,1,0,10
33,3,1,8,1,10,1
4,0,1,31,25,24,1
1,1,9,5,43,4,44
0,23,29,1,5,1,37
24,20,12,1,0,0,2
31,3,2,75,2,15,0
3,1,1,43,30,16,17
1,6,19,4,27,2,67
1,24,21,1,1,1,9
28,9,3,1,0,2,3
20,3,1,9,4,27,0
1,2,4,90,32,13,34
0,7,31,58,28,2,55
14,20,16,3,3,0,5
32,6,1,2,1,14,0
3,2,1,20,15,30,1
1,0,15,21,39,3,49
0,4,28,2,5,1,48
23,23,4,0,0,0,2
25,8,1,6,1,10,0
2,2,0,37,22,18,16
1,1,18,9,35,3,58
1,2,21,2,3,0,7
29,24,2,0,1,3,1
13,12,0,11,4,35,1
1,1,3,43,39,18,32
2,0,28,5,20,0,52
13,27,20,1,2,1,6
33,21,2,1,1,1,1
5,3,1,1,12,35,1
1,1,6,10,48,14,44
0,0,26,141,6,1,36
12,17,4,42,2,1,1
34,18,2,3,0,14,0
5,1,0,2,29,36,17
1,1,7,36,35,2,59
0,7,20,155,2,2,7
26,25,5,4,0,2,2
18,8,1,1,4,29,0
1,1,0,0,57,13,35
1,1,8,0,25,2,57
4,3,26,0,1,2,5
35,20,6,605,0,5,1
12,10,0,50,16,10,1
0,1,2,3,41,10,46
1,1,5,2,4,1,38
17,13,34,2,0,1,2
20,28,11,26,1,17,0
2,3,0,29,27,21,13
0,0,1,3,28,1,61
1,0,23,0,3,1,9
30,18,22,1,0,3,0
21,18,2,1,4,32,1
2,1,1,1,36,8,34
1,0,3,1,32,1,48
8,3,22,4,2,1,3
32,19,14,142,0,2,0
10,12,1,4,12,26,1
1,2,1,2,36,15,46
0,1,8,219,4,1,33
30,15,28,9,0,1,1
28,33,8,28,0,10,0
3,2,1,116,30,26,17
0,1,1,73,34,4,61
0,0,6,3,3,0,11
23,18,31,1,0,1,1
29,17,11,0,3,9,1
3,1,2,160,41,22,43
1,1,1,88,30,8,38
17,4,13,14,3,0,2
31,25,23,70,1,1,0
3,8,2,3,28,15,12
1,2,0,1,48,31,59
0,2,0,89,4,3,8
67,3,24,132,0,2,0
37,29,13,3,2,1,1
3,14,1,166,27,10,34
2,0,0,96,35,21,53
1,0,9,57,2,1,3
36,8,27,13,1,0,1
20,23,5,1,3,5,2
2,4,1,14,39,27,46
0,1,1,0,32,15,39
9,0,9,312,4,1,2
43,8,30,44,1,0,1
14,26,9,123,11,9,11
1,5,1,121,40,26,59
1,1,0,2,7,10,9
25,0,4,559,1,0,0
28,8,24,32,1,1,1
2,21,13,342,30,21,26
1,4,2,85,41,18,49
5,0,0,22,3,2,6
23,3,14,1,0,0,0
46,9,27,54,5,4,0
4,25,3,0,39,16,43
1,3,0,720,23,15,41
6,1,1,429,1,2,3
27,0,19,11,1,2,1
27,10,12,230,15,28,10
0,25,1,73,41,25,59
1,4,1,309,4,4,11
19,0,8,345,1,0,1
24,2,26,139,1,1,1
4,15,8,2,20,19,49
2,19,2,52,41,15,52
0,2,1,1023,5,1,3
28,2,6,32,1,2,0
25,4,25,3,3,15,6
2,30,10,74,37,20,60
0,13,1,272,26,4,34
2,1,0,69,1,1,3
19,1,16,0,1,0,0
18,14,24,577,18,1,25
1,25,1,349,42,33,60
0,2,2,7,5,11,6
10,1,1,16,2,0,0
31,1,24,293,2,1,1
4,18,18,110,32,17,50
0,16,2,818,43,15,46
1,2,1,176,4,2,1
29,0,8,7,0,0,1
24,2,26,2,3,14,8
2,18,7,0,43,31,63
0,15,0,491,21,4,30
4,1,0,61,2,2,1
33,0,4,15,0,1,0
16,8,25,2,11,9,23
2,24,7,160,45,30,64
1,7,2,90,6,7,6
18,1,0,12,1,2,0
29,1,6,208,1,1,1
3,12,23,288,27,5,47
1,25,3,152,47,34,53
1,2,0,4,4,13,3
22,1,1,0,1,2,2
29,1,13,472,3,1,9
2,16,24,107,37,13,62
1,18,4,9,27,21,27
3,2,1,0,0,1,1
29,1,1,855,1,1,1
14,2,11,292,29,0,38
1,30,26,53,50,21,66
0,16,1,251,6,17,4
9,2,1,255,2,2,2
34,1,1,8,0,0,0
9,7,12,290,26,8,46
3,25,12,32,42,27,49
1,6,2,304,2,9,4
11,0,1,298,0,2,1
37,1,6,101,5,1,7
2,6,25,11,34,6,63
1,25,5,278,22,22,28
0,5,1,43,2,4,1
24,1,0,8,0,0,1
30,1,7,318,9,0,24
3,7,23,81,50,1,61
1,25,7,99,13,25,6
1,5,0,6,2,5,1
21,0,0,5,0,0,1
15,1,9,8,39,0,47
2,8,28,0,40,9,53
0,21,6,1023,4,23,5
9,5,0,101,0,7,1
33,0,1,10,1,1,6
8,1,8,120,5,0,56
0,7,24,16,25,1,30
0,22,10,0,136,31,2
19,5,1,746,5,7,0
29,0,1,31,5,1,20
3,1,10,2,6,1,60
1,8,21,2,4,6,7
0,19,1,11,0,20,1
19,7,1,1,0,10,0
25,1,2,471,136,1,42
1,1,24,52,43,2,50
0,8,18,5,9,22,3
1,23,2,297,15,22,1
34,6,0,59,8,2,6
16,1,4,115,1,1,57
1,1,26,104,30,13,26
0,9,10,5,1,31,3
14,26,2,43,0,9,1
33,4,1,62,43,1,26
5,1,15,5,161,2,61
1,1,33,0,12,1,6
0,9,4,0,0,32,0
23,26,0,333,17,10,0
21,6,0,15,135,2,41
2,2,16,196,39,1,48
1,0,22,6,1,10,3
6,12,1,15,0,29,1
29,19,0,180,0,4,6
14,2,6,18,338,1,57
1,1,33,77,166,5,33
1,1,9,12,28,27,2
11,16,1,46,2,10,1
27,20,0,327,1,1,23
4,2,6,376,1,1,64
1,1,30,10,3,2,7
0,1,11,2,141,26,2
16,19,1,0,24,10,1
19,9,0,468,19,2,44
1,2,13,103,1,2,53
0,0,29,52,0,11,4
1,0,3,7,1,21,1
29,24,2,75,0,2,6
21,9,0,87,0,0,58
2,1,22,67,55,5,29
1,0,15,57,65,18,3
9,2,1,6,62,13,0
36,23,1,48,5,1,19
14,12,8,160,1,1,64
0,1,25,25,0,4,6
0,0,9,11,0,27,1
19,12,0,49,12,9,1
21,31,1,212,73,1,44
3,3,7,13,5,0,56
0,1,29,212,1,10,4
1,0,11,35,29,25,1
27,18,0,321,98,4,5
22,23,0,25,7,1,55
3,3,16,82,2,1,29
0,0,29,36,18,9,2
6,0,4,56,2,29,1
34,24,1,66,1,4,17
8,17,1,42,14,0,65
1,1,17,4,38,1,10
1,1,29,9,69,11,0
7,5,2,37,26,35,5
37,23,2,9,1,3,58
13,14,4,49,0,1,39
2,2,24,5,1,2,1
2,0,10,154,23,25,1
10,10,1,7,116,14,19
43,19,1,206,22,3,66
4,2,7,54,69,1,7
1,2,31,4,65,3,1
0,0,9,303,5,21,0
27,24,1,7,1,12,38
16,17,0,273,0,1,51
1,1,7,117,30,0,5
0,0,24,23,54,12,1
14,11,6,6,142,29,3
39,25,2,1,13,2,55
5,3,0,1,7,1,34
2,1,8,7,34,1,3
0,1,25,21,5,19,1
18,13,4,8,1,29,19
25,21,0,33,1,5,65
3,3,1,2,107,1,9
1,1,12,256,84,5,0
7,0,27,270,6,28,1
30,22,4,5,1,13,40
17,16,0,0,27,2,56
0,2,1,477,84,1,3
0,0,16,224,3,13,1
5,4,22,8,42,24,2
135,23,3,1,247,2,54
205,10,1,14,23,1,36
8,2,4,62,1,0,2
3,1,26,10,1,21,1
18,9,10,28,59,20,15
3,25,3,76,2,1,65
1,4,0,19,347,1,9
0,1,16,63,22,6,0
40,0,26,43,5,29,0
93,15,3,23,341,12,39
26,22,0,137,46,1,56
1,2,1,12,2,1,4
1,1,14,88,1,5,2
3,1,21,6,49,29,1
20,17,3,26,21,6,52
15,14,1,57,24,2,37
2,0,3,100,2,0,3
86,1,30,35,224,9,1
100,5,11,10,52,25,21
4,27,1,1,2,4,67
1,6,1,93,35,0,8
0,2,9,43,137,10,2
0,1,30,93,4,20,0
11,6,5,21,113,19,35
37,27,0,45,6,3,60
3,9,0,3,2,0,4
1,2,12,82,16,4,1
126,1,31,120,17,28,3
305,5,3,16,0,13,57
13,34,0,187,68,0,46
1,8,1,59,99,2,3
1,2,18,2,14,10,1
0,1,17,376,2,26,17
9,6,1,75,1,4,63
410,28,0,72,5,2,10
64,7,5,5,79,1,1
5,1,33,23,9,18,2
1,1,13,65,1,25,54
1,6,1,24,10,3,37
9,24,1,0,12,1,2
286,7,10,29,47,4,1
56,1,30,60,35,24,15
6,1,7,188,4,25,69
2,5,0,13,1,2,8
1,29,0,1,101,0,0
111,8,14,116,143,6,1
48,2,18,110,6,19,37
2,1,1,3,3,16,54
66,5,0,55,43,2,5
169,22,1,37,6,1,1
36,13,25,95,15,7,3
1,1,13,37,2,26,56
162,2,1,107,1,7,41
162,8,0,47,82,0,2
4,22,7,4,8,0,0
3,2,30,217,13,24,14
1,1,8,9,8,12,64
2,1,1,140,1,0,12
59,31,0,28,56,1,0
4,41,9,37,30,7,2
0,4,38,8,1,24,50
214,1,9,1,1,12,37
258,1,2,345,86,0,3
12,15,0,38,60,1,0
10,21,11,1,4,22,17
11,2,32,594,2,37,63
53,0,3,25,2,6,8
4,8,0,3,14,2,0
107,20,0,7,38,0,1
10,3,16,0,8,13,39
156,1,17,538,21,26,52
74,1,2,59,13,7,4
4,32,1,5,1,1,0
1,26,4,0,1,2,1
117,4,38,51,60,25,51
201,2,15,102,28,17,49
6,1,1,27,50,2,3
11,15,0,2,3,1,0
43,17,1,115,2,6,12
63,1,24,75,12,26,66
2,1,13,104,51,44,15
1,0,1,3,4,4,0
5,13,0,92,7,2,1
39,18,20,166,3,12,60
112,3,19,14,2,31,38
4,0,2,3,191,3,2
10,1,1,22,14,0,1
104,14,1,1,2,1,19
31,131,24,63,3,28,64
5,8,17,52,2,22,9
129,1,2,263,1,1,1
380,10,0,12,102,1,1
12,22,8,1,35,2,33
2,1,23,24,2,26,56
105,1,5,3,31,9,5
9,0,3,18,25,1,0
1,14,1,10,1,1,3
125,7,6,0,26,1,49
23,2,29,8,29,22,42
2,0,9,277,59,19,3
80,11,1,14,3,1,1
33,34,1,246,7,0,13
32,3,11,21,1,22,60
15,0,24,19,78,21,7
13,1,3,1,47,1,1
45,20,1,8,2,0,1
3,20,0,365,3,4,33
0,22,26,12,46,25,59
287,1,23,59,22,15,4
23,1,3,2,2,2,2
108,1,0,0,1,1,1
117,17,0,276,1,2,46
23,37,22,122,0,33,44
75,85,7,36,97,33,4
52,7,1,12,103,3,0
4,1,1,294,3,2,15
24,0,3,14,15,5,65
12,1,20,3,47,22,10
67,0,19,1,2,24,2
4,45,2,8,1,2,2
13,335,0,10,51,1,50
13,41,9,16,52,23,49
30,3,22,40,5,24,4
1,2,9,327,1,2,0
6,9,2,22,5,1,8
57,1,1,40,44,11,65
4,0,7,2,18,45,31
110,0,25,216,9,6,2
8,34,4,27,1,2,1
170,61,2,231,0,1,29
12,8,1,78,102,11,72
92,1,9,29,11,10,6
178,0,31,14,0,14,1
48,183,7,22,45,1,2
38,110,1,1,50,2,46
30,3,1,226,11,23,41
4,31,5,6,1,5,3
88,87,28,148,1,19,1
16,134,12,98,16,2,16
6,3,0,15,130,8,69
54,0,1,43,14,20,9
9,45,23,2,1,4,2
1,3,32,4,19,1,1
30,13,2,1,87,2,23
53,784,0,110,7,10,60
4,83,0,4,1,32,5
1,5,23,1,1,5,0
2,29,36,5,22,1,0
28,381,3,189,33,1,46
64,21,0,109,9,26,41
4,18,5,116,2,11,3
0,27,24,3,0,10,2
119,1,10,21,9,0,10
144,0,1,0,34,16,59
4,119,1,180,10,8,10
0,41,14,9,0,6,0
51,111,20,41,11,8,0
150,95,2,17,68,1,51
21,7,0,154,15,2,48
1,117,1,70,0,17,3
2,138,23,11,1,9,0
38,51,17,2,14,1,9
5,3,2,146,70,4,60
21,2,1,13,7,14,24
43,188,5,5,2,10,2
50,29,24,46,26,1,1
4,1,17,49,100,1,29
1,2,1,5,5,19,59
50,71,1,49,1,30,6
6,125,14,6,4,71,1
94,127,23,2,39,4,2
32,5,3,97,6,1,53
3,168,2,35,33,2,41
15,70,0,86,1,17,2
0,5,30,21,22,19,0
5,0,13,1,85,20,8
74,0,1,22,21,5,52
5,92,1,11,2,18,23
3,148,4,131,0,19,2
43,22,26,16,45,6,0
21,0,9,97,20,1,27
81,127,3,199,2,13,57
4,251,1,5,22,64,5
2,29,7,0,4,14,1
4,0,27,52,23,2,0
0,64,9,25,15,9,44
46,34,2,2,0,29,43
10,70,0,77,22,17,3
43,5,8,5,75,0,0
13,80,21,1,11,1,12
2,316,8,109,10,24,56
1,17,2,6,2,21,9
0,4,0,7,16,3,1
154,0,6,306,88,8,1
27,1,31,13,8,88,26
0,146,9,45,1,168,60
37,77,2,21,2,6,7
1,6,0,347,44,2,2
44,111,9,29,27,1,0
91,4,31,2,3,17,44
7,1,9,92,0,186,39
1,22,2,5,11,12,2
0,1,0,44,42,20,0
35,0,5,52,16,25,11
122,316,27,4,2,9,64
9,76,14,0,7,0,14
67,3,2,0,65,6,2
111,8,1,151,35,54,2
4,563,9,16,2,6,46
3,169,29,2,0,53,43
7,5,6,0,25,15,3
61,6,1,95,56,1,1
2,57,1,74,7,40,7
3,9,13,172,1,31,54
70,2,23,25,9,2,25
25,64,2,13,19,23,1
108,57,1,53,64,39,1
7,32,1,4,6,90,21
33,1,26,2,0,31,54
16,2,30,15,12,8,8
2,119,1,4,75,15,0
17,4,1,42,8,92,3
0,0,3,6,2,108,44
170,396,28,92,0,12,44
86,37,10,21,1,60,3
7,39,1,33,42,57,0
0,111,0,2,24,181,7
6,5,6,0,1,7,55
12,191,30,82,1,160,27
83,81,4,21,27,49,2
12,12,1,16,31,4,0
1,3,0,132,8,26,29
96,23,12,30,2,73,57
12,91,29,13,30,326,6
24,34,3,56,58,144,2
27,4,0,15,3,34,0
116,1,1,210,41,53,43
41,157,19,8,3,74,43
12,18,16,2,30,28,3
1,20,2,0,20,5,1
2,2,1,4,3,135,7
1,0,4,192,1,145,59
4,0,21,17,4,12,24
36,483,15,1,20,25,2
2,18,2,153,50,11,0
195,74,0,25,5,20,17
52,5,7,1,1,103,56
4,1,25,1,3,7,9
1,172,5,0,51,12,1
172,5,0,125,20,7,1
72,2,0,10,2,22,43
8,165,10,0,1,25,46
0,34,23,355,23,47,3
1,3,3,67,26,22,0
56,5,4,4,3,43,9
79,41,1,99,0,6,57
7,32,11,4,31,43,25
1,5,20,185,76,13,1
43,5,2,44,10,0,1
11,8,1,2,1,8,24
23,4,0,129,0,66,59
2,7,22,86,47,28,6
0,2,15,9,23,58,0
4,35,2,2,2,94,0
67,52,0,155,2,46,49
21,5,8,48,0,60,50
34,1,6,3,15,9,3
1,150,26,47,62,46,0
109,12,3,5,6,10,5
3,184,0,3,15,182,54
46,17,7,60,9,33,26
88,4,24,109,25,13,2
20,58,4,8,14,81,0
29,47,2,0,0,92,27
62,8,0,78,2,34,64
3,1,10,93,57,104,7
54,19,26,68,23,5,1
4,12,4,9,3,5,0
1,32,0,2,1,32,43
1,2,0,40,20,38,54
0,1,20,144,42,11,4
85,13,29,6,9,105,2
14,36,3,115,2,6,4
5,1,1,38,26,135,45
2,76,2,84,51,12,25
23,21,18,5,3,16,1
94,101,13,1,26,63,1
5,25,0,6,1,5,25
5,2,0,145,20,2,56
1,12,9,113,41,59,4
109,49,30,56,7,40,1
8,10,6,105,1,8,2
1,5,0,26,0,3,38
28,36,1,2,57,89,42
146,24,10,56,39,24,3
193,0,28,183,3,23,2
22,3,3,58,0,64,5
3,0,0,3,2,13,51
0,1,2,1,37,90,23
164,31,17,0,30,10,2
22,177,11,284,3,2,1
9,4,1,90,1,36,33
1,14,0,11,19,59,61
8,92,2,10,98,4,6
4,7,20,4,14,7,1
41,2,11,73,0,23,0
6,97,1,346,2,73,37
2,39,0,8,152,39,44
5,13,14,401,19,121,5
122,3,28,313,1,7,1
5,0,3,195,1,30,6
15,10,1,12,42,7,51
119,4,0,56,22,58,24
7,220,15,71,2,7,1
124,36,27,206,0,122,0
10,5,4,154,7,48,19
2,22,1,22,62,10,54
3,7,2,13,15,2,6
52,7,21,2,3,5,1
3,10,12,107,2,15,0
1,7,1,3,3,21,40
18,39,1,580,66,11,41
179,14,27,15,21,4,3
8,3,51,116,2,41,0
2,1,13,1,0,2,4
1,73,0,818,23,41,55
44,73,1,81,33,115,27
11,4,1,36,2,10,1
7,2,32,3,1,69,1
4,0,82,260,3,10,18
3,156,19,1023,37,41,58
0,63,1,30,15,4,7
42,3,16,2,5,45,1
89,17,5,162,4,8,0
4,23,0,95,2,1,40
1,4,55,49,41,1,48
1,9,54,2,40,88,3
129,47,120,39,4,149,0
11,5,38,59,0,15,4
76,7,3,17,27,1,52
11,8,80,26,23,17,31
2,55,111,53,1,35,2
1,2,27,143,1,14,1
80,2,25,66,7,1,19
76,1,40,5,62,3,61
12,161,21,93,31,30,9
6,4,60,38,3,21,1
2,104,110,2,2,33,0
104,7,172,166,1,10,37
13,5,150,181,40,12,53
1,16,23,125,33,8,4
1,0,40,8,9,41,1
20,25,186,2,2,5,4
10,238,315,16,6,2,57
89,27,6,5,39,5,37
7,2,136,52,11,17,4
213,5,175,1,0,20,0
10,2,78,113,0,8,17
2,1,13,40,16,9,60
88,5,169,38,34,33,10
16,27,85,10,3,36,1
36,140,18,0,0,3,3
9,4,244,64,1,6,56
38,0,7,32,74,5,34
2,1,122,131,15,14,2
133,16,193,5,0,19,0
23,29,53,28,1,28,18
8,4,97,12,32,20,63
2,31,4,3,4,10,6
38,15,291,15,18,26,0
71,18,30,13,13,2,0
5,189,119,82,3,3,46
1,4,60,4,28,53,54
0,33,219,199,9,77,4
1,97,70,9,1,18,0
233,4,3,56,2,1,7
32,23,0,22,0,72,54
4,4,166,1,31,34,33
1,0,287,3,7,4,3
1,46,23,6,1,68,0
8,18,283,28,0,23,17
28,33,30,5,13,7,58
72,3,18,52,36,3,6
12,1,31,67,5,0,1
29,22,14,27,1,33,0
6,9,120,4,1,199,40
3,3,215,0,20,6,47
4,0,13,0,38,4,3
11,79,11,23,3,38,1
86,56,69,6,2,4,1
19,3,119,1,40,70,57
1,166,111,121,21,5,40
13,23,54,51,10,1,1
61,30,54,39,2,16,1
13,18,34,4,0,122,15
6,1,112,1,12,5,58
2,53,16,15,54,10,7
41,26,176,58,5,0,0
7,2,41,6,0,1,0
1,36,3,9,1,30,44
0,6,43,1,4,22,53
135,6,120,134,51,24,2
22,3,38,92,35,34,1
7,7,4,13,2,16,2
2,20,89,0,1,72,49
52,1,124,2,32,6,37
32,68,84,27,17,1,2
2,81,133,49,1,0,1
2,4,105,3,0,25,14
1,0,26,1,21,42,64
92,69,9,12,52,6,8
12,4,317,43,6,5,2
7,32,19,8,3,43,1
0,226,4,1,1,53,37
1,6,18,1,25,11,48
17,1,184,30,6,1,3
16,7,27,25,11,0,1
4,2,114,5,1,15,0
1,1,73,1,50,41,51
83,0,75,0,46,2,37
58,55,11,27,8,1,3
2,10,591,3,0,0,1
1,10,60,38,3,38,13
0,11,16,4,28,21,58
7,3,6,38,7,21,7
32,1,50,56,7,44,1
15,8,6,29,6,45,2
4,48,39,3,1,5,30
23,117,77,0,6,16,57
24,24,37,47,21,3,6
9,2,0,24,23,47,0
3,0,109,3,2,32,3
0,1,39,1,1,3,53
7,13,17,10,28,1,37
142,2,15,49,31,15,3
74,98,129,6,10,22,1
5,6,11,1,0,7,21
1,70,65,2,0,1,65
0,4,3,20,27,0,7
71,75,341,37,16,28,1
17,18,65,2,1,24,0
2,0,69,1,2,9,35
19,1,6,3,32,17,47
15,26,160,29,63,8,3
6,3,37,17,4,28,1
1,2,9,2,0,3,4
0,0,101,0,1,5,51
128,2,19,10,93,36,38
41,104,70,40,31,12,3
2,13,26,6,1,5,1
0,2,17,1,2,29,14
0,59,59,0,18,2,61
41,72,145,18,22,9,9
85,6,9,43,5,115,1
8,88,24,5,2,26,1
1,6,38,1,3,1,30
12,5,114,3,28,11,50
88,38,47,40,31,30,6
113,72,5,34,3,50,1
4,3,39,1,1,4,2
2,81,41,1,7,3,49
43,56,51,6,40,5,42
86,5,48,47,4,25,2
5,0,111,15,10,9,0
8,0,66,1,2,5,11
1,11,60,1,35,5,64
62,71,45,11,3,14,9
20,12,128,38,4,33,1
2,1,53,6,11,12,0
1,46,53,1,1,1,29
76,26,135,3,32,1,54
16,3,6,36,92,24,4
25,2,1,23,7,142,1
2,4,224,1,2,40,1
0,95,25,1,2,2,50
6,31,24,6,24,3,48
40,2,30,41,26,20,3
2,13,1,14,3,10,0
2,10,243,2,0,5,14
43,63,104,1,26,11,62
50,8,6,18,43,78,9
4,2,1,36,6,41,2
0,2,111,3,1,6,1
10,0,7,0,19,11,33
51,22,29,2,51,34,56
22,69,45,34,6,14,5
3,44,16,33,1,72,1
38,3,15,3,2,4,1
99,43,29,0,13,32,47
10,25,26,4,41,9,45
1,0,68,36,30,2,2
7,0,44,21,1,0,1
117,15,118,2,0,21,15
48,43,7,1,19,30,68
3,3,5,28,57,25,10
1,6,133,39,32,2,1
1,1,16,3,2,0,0
31,5,2,1,17,31,50
20,32,81,2,31,28,41
9,31,254,37,2,9,3
2,18,7,31,5,2,1
1,35,2,3,1,12,10
34,43,37,1,4,8,62
121,27,35,9,99,63,10
4,2,75,44,9,12,1
1,3,32,20,2,19,0
13,29,24,1,13,22,45
3,6,62,0,65,42,41
14,2,28,15,30,4,2
5,0,21,30,5,7,1
65,39,29,3,0,28,9
9,30,27,1,8,22,59
19,3,34,3,43,9,24
2,2,20,27,30,4,2
3,1,144,32,2,2,1
12,1,32,1,0,49,29
24,6,37,0,30,7,52
16,73,69,8,42,7,5
8,136,12,43,5,4,1
44,23,121,17,1,1,1
63,25,12,2,1,25,45
5,2,6,1,18,2,48
1,0,7,25,92,28,3
14,0,135,47,17,15,1
16,17,23,4,1,17,11
1,70,8,2,28,22,61
32,6,40,2,31,2,9
29,1,13,34,2,54,2
2,0,100,29,1,8,2
37,3,4,1,0,21,30
6,29,8,1,28,16,56
0,4,30,2,30,11,5
25,1,193,41,5,15,2
47,19,5,24,1,24,0
7,8,3,2,0,44,50
2,78,35,0,39,6,42
102,68,65,15,14,7,1
18,4,36,45,2,6,1
12,1,97,6,1,2,15
93,70,23,1,22,52,57
4,39,13,1,40,10,9
2,2,9,29,11,3,0
0,0,1,25,2,70,1
67,2,1,1,1,54,23
63,4,26,2,34,8,55
4,99,39,16,20,2,6
2,18,6,51,1,20,1
2,2,67,8,4,89,0
46,1,2,1,57,12,44
6,27,18,0,81,20,45
1,16,33,20,16,1,2
116,1,2,41,0,5,0
43,11,41,5,8,62,5
1,34,9,2,44,12,52
12,14,64,1,13,8,28
45,1,97,31,1,2,2
34,1,10,26,1,20,1
2,44,10,1,15,19,25
0,41,19,1,50,4,58
0,4,72,5,6,0,6
38,111,4,36,2,13,1
100,7,19,19,6,52,0
4,46,107,0,36,11,45
120,6,9,1,40,3,42
15,1,1,7,2,37,2
37,201,21,47,0,25,0
3,16,59,16,17,2,15
1,1,31,2,43,41,49
1,3,11,0,18,4,8
87,0,4,26,2,23,0
21,6,2,25,22,22,0
3,16,19,3,66,9,25
0,11,7,1,5,4,58
45,4,0,3,0,4,6
43,2,37,34,1,11,2
2,15,163,15,27,32,0
1,4,27,2,38,5,44
35,1,1,0,102,1,42
25,41,45,16,5,15,3
38,23,91,37,11,58,1
4,18,39,3,3,6,10
3,62,4,2,36,1,65
26,64,2,1,7,23,11
24,2,165,30,1,18,0
6,1,11,26,14,5,1
1,171,1,1,36,0,42
21,37,9,2,7,37,52
32,17,65,8,2,27,3
18,11,61,32,1,6,1
1,35,10,13,52,69,10
16,6,3,1,38,12,58
32,1,1,0,2,1,11
30,4,98,19,3,31,1
3,38,41,35,33,51,0
0,5,4,4,51,6,51
38,5,36,0,8,1,39
7,0,83,2,1,5,1
31,41,32,26,2,22,0
2,26,10,32,26,17,10
29,1,22,3,17,3,62
3,4,94,0,20,36,11
49,0,20,4,2,29,2
9,1,25,43,0,3,1
2,263,35,18,2,48,43
2,30,48,1,14,23,48
2,194,22,1,1,1,3
0,47,49,17,0,17,0
87,3,52,34,12,18,6
87,0,60,3,34,3,60
18,55,27,0,16,18,29
13,20,75,1,1,15,2
1,3,62,25,5,32,1
1,0,56,42,41,2,18
33,2,16,3,42,2,57
59,50,63,0,2,14,7
4,22,113,2,1,17,0
47,8,37,36,4,13,2
35,21,1,22,70,2,41
3,2,159,0,27,42,43
44,0,5,0,1,17,3
4,1,106,14,0,8,1
0,54,24,38,18,2,6
1,129,126,5,33,1,56
7,4,94,1,5,50,30
66,24,20,0,0,28,2
5,127,16,27,5,3,1
1,5,3,31,40,0,21
37,1,10,2,27,8,54
31,5,150,1,2,10,6
4,1,31,6,1,49,0
0,4,9,39,13,2,0
2,2,59,29,49,2,43
16,24,13,2,9,7,39
28,74,70,1,0,1,2
43,6,27,13,1,147,0
7,3,160,40,26,7,11
1,0,10,5,31,13,59
24,1,10,1,2,4,10
17,35,80,1,1,20,1
1,94,72,29,7,18,1
0,14,23,29,35,2,41
39,13,42,2,30,2,44
143,1,12,1,2,0,3
9,0,33,7,1,11,1
1,4,72,44,9,40,6
0,41,26,22,30,10,54
8,27,29,1,7,14,27
36,97,37,1,1,5,2
3,30,10,11,1,4,1
44,1,97,47,10,20,26
7,2,42,6,38,6,63
6,60,53,1,6,8,6
1,53,155,0,1,69,0
7,5,70,30,0,9,0
3,44,3,32,32,4,43
89,2,2,3,37,16,48
57,12,111,1,4,33,4
8,36,30,5,0,3,1
2,3,4,38,2,0,10
1,69,14,15,26,75,65
4,64,73,2,21,7,14
18,3,13,1,3,6,1
22,81,33,17,0,22,2
1,12,21,40,7,26,37
2,6,73,3,31,2,54
42,97,23,1,14,10,4
98,12,63,1,2,23,0
5,2,8,23,2,1,3
0,77,15,29,15,1,50
1,35,8,2,38,17,26
3,6,48,1,5,8,2
36,2,41,2,1,3,0
3,2,42,41,1,45,19
0,6,73,29,28,8,61
12,2,32,2,21,8,6
34,1,6,2,2,38,1
56,0,9,14,1,9,0
3,41,223,50,11,14,42
1,219,10,5,43,30,53
7,15,59,1,10,14,4
36,1,24,1,1,16,1
8,1,55,24,0,3,4
0,1,5,33,34,6,54
5,54,51,3,33,11,33
50,15,18,2,2,65,3
52,116,88,1,0,15,0
7,9,49,35,8,3,20
1,105,3,26,38,1,67
1,8,8,1,15,38,9
15,32,56,1,1,22,0
15,1,12,11,1,12,0
15,5,6,46,13,2,33
1,24,23,5,38,1,51
21,3,23,1,4,77,3
16,1,76,1,1,14,1
3,1,93,26,2,2,2
2,17,6,29,33,1,59
1,13,112,3,28,0,31
20,40,14,1,4,40,2
35,14,10,2,1,12,1
3,1,11,33,10,11,17
1,25,24,25,41,30,60
2,107,24,2,7,5,10
35,6,7,0,1,8,1
27,3,0,12,1,4,2
2,19,9,42,15,2,56
0,20,33,6,36,45,37
9,2,43,1,4,47,2
37,6,3,0,1,50,2
7,2,3,23,5,6,15
1,55,56,38,40,52,65
2,25,38,2,26,12,9
4,2,118,0,1,1,2
36,3,5,0,1,5,0
9,21,1,40,4,29,39
1,28,4,29,38,71,52
1,1,35,2,21,15,4
13,39,119,1,2,3,0
34,30,34,17,2,7,2
5,38,3,48,9,16,51
0,5,16,6,36,10,35
0,0,3,2,8,0,1
12,1,17,1,2,0,0
28,2,1,19,0,14,24
3,1,23,49,18,86,58
0,39,29,6,44,8,5
7,46,46,1,5,3,1
31,1,4,2,1,1,1
17,57,0,33,2,10,46
2,5,12,27,19,84,52
0,2,29,2,34,20,3
7,2,21,1,4,2,1
33,1,17,8,1,4,7
4,319,83,42,3,82,55
1,27,7,15,29,38,31
0,3,1,1,17,7,1
12,7,9,2,2,1,1
29,10,30,22,1,0,16
3,2,30,29,12,27,59
0,0,43,4,33,16,6
1,5,7,0,2,1,1
16,43,3,7,1,20,0
37,4,45,38,2,44,32
5,1,5,29,26,42,54
1,113,13,2,27,12,5
2,6,0,0,2,1,1
27,34,2,5,0,26,3
27,15,18,35,3,85,54
3,6,99,13,31,9,34
1,1,26,1,22,3,1
5,263,16,1,2,2,0
37,30,138,20,1,29,17
14,3,21,35,14,41,57
1,2,15,3,37,4,6
0,1,2,1,3,1,1
21,6,121,2,2,6,1
47,73,6,33,1,2,37
4,56,1,25,25,44,48
1,2,1,1,31,9,3
0,47,72,0,3,3,1
35,38,22,8,0,45,0
25,11,65,47,5,10,50
0,0,22,17,32,3,30
1,2,41,1,13,3,1
4,34,58,1,1,2,1
31,13,5,18,1,32,22
14,22,3,34,33,10,57
2,0,53,4,45,56,6
0,1,13,0,5,4,0
10,86,77,5,2,0,0
33,26,53,36,0,31,30
3,2,6,30,27,12,53
1,2,222,2,30,1,4
3,0,17,1,3,1,1
28,207,0,6,2,26,1
20,20,0,41,6,19,44
2,175,68,11,30,4,33
1,13,67,0,13,1,3
2,1,4,1,1,14,0
36,0,63,22,1,40,14
21,1,59,42,16,4,56
2,2,128,3,36,1,6
1,18,6,2,3,0,2
10,60,22,1,0,5,2
32,31,48,31,1,31,35
6,1,21,25,22,4,42
1,17,115,3,28,7,2
1,44,4,0,2,2,0
24,6,6,6,1,14,1
25,4,106,38,10,20,44
2,1,13,15,43,2,27
1,7,0,2,10,1,2
1,52,13,0,1,1,1
36,63,38,16,0,49,14
16,30,12,36,36,47,54
3,1,47,2,32,4,6
0,0,86,2,3,1,2
10,55,57,4,0,0,1
41,16,14,39,4,14,37
6,135,177,26,31,12,45
2,5,84,2,17,1,4
0,10,118,0,0,0,0
23,1,5,9,0,25,4
28,1,1,54,12,32,48
2,8,58,20,30,7,31
0,13,106,1,5,1,1
0,10,16,1,2,0,0
27,1,3,17,1,4,16
18,1,48,35,18,9,50
3,18,70,5,27,30,8
0,52,11,0,1,3,2
13,3,25,4,1,0,0
37,0,137,30,3,17,31
5,60,107,31,35,21,41
1,126,7,2,19,2,3
1,240,2,1,2,1,1
23,8,59,8,1,1,5
29,2,23,38,11,10,47
1,88,46,14,57,22,27
2,16,70,2,7,6,2
6,108,18,0,2,1,1
38,2,3,17,1,4,16
16,9,16,43,20,25,54
1,231,31,4,31,9,6
0,22,92,1,2,2,2
9,19,7,2,0,1,0
41,73,38,30,6,1,29
11,21,12,21,47,19,44
0,1,115,1,28,10,2
0,0,78,0,1,2,0
19,43,78,12,1,1,9
32,101,14,37,9,9,50
2,4,165,7,40,29,28
1,40,30,1,13,5,1
1,2,3,1,0,0,1
32,57,65,17,0,0,15
21,13,60,41,22,6,55
1,8,25,4,33,25,7
1,2,3,0,4,5,1
12,2,44,0,1,2,0
37,65,58,38,10,0,30
5,8,6,47,48,6,47
2,0,53,2,10,24,4
1,104,13,0,1,5,0
21,112,131,9,1,2,4
32,4,24,40,25,1,46
2,2,77,16,35,6,32
1,1,35,0,2,26,2
2,13,2,0,1,7,0
27,143,4,10,8,1,17
21,23,74,36,35,1,56
1,1,82,5,25,4,9
1,2,12,1,2,25,1
8,35,19,1,0,6,1
41,7,66,39,12,2,29
14,1,9,29,38,1,47
0,2,50,2,7,7,2
0,0,120,1,1,34,0
16,49,11,6,1,6,2
28,16,43,41,21,1,46
3,1,2,13,33,1,37
0,3,15,1,4,6,2
3,24,75,0,1,21,0
33,26,62,13,4,6,12
20,2,11,36,32,3,60
2,2,16,5,29,2,8
0,0,9,2,4,9,2
10,25,30,0,0,37,0
36,50,14,30,7,3,42
4,6,44,34,41,15,45
1,0,25,3,14,2,2
1,14,60,2,2,16,0
21,9,7,3,0,12,1
25,1,9,40,19,1,42
4,1,44,20,50,0,39
0,0,35,1,4,1,2
0,13,104,0,2,1,0
22,38,10,22,3,79,12
24,16,12,46,34,16,53
2,1,22,5,26,2,7
0,1,19,1,1,3,0
9,86,4,0,1,26,1
36,73,47,24,9,10,29
10,5,108,34,39,1,49
1,11,11,2,12,2,4
0,1,23,0,1,19,1
13,43,3,2,0,16,3
32,106,24,44,25,1,47
4,33,128,24,39,0,35
1,45,26,2,3,0,2
0,3,3,1,0,21,1
22,12,1,11,5,19,9
27,248,20,43,30,1,54
2,6,4,8,14,0,28
0,445,0,2,1,5,2
6,19,50,1,0,14,1
34,35,61,35,9,2,32
12,60,37,36,37,26,52
2,7,42,2,15,2,4
1,41,0,0,2,2,0
17,66,31,3,1,29,2
35,8,43,38,18,5,52
3,2,10,27,37,2,36
1,17,32,2,3,0,2
0,1,10,0,1,24,0
27,21,101,11,1,19,10
25,31,9,34,30,2,56
3,19,82,4,37,1,9
0,121,20,0,4,1,2
2,57,4,0,2,13,0
18,256,2,26,7,11,29
18,11,31,30,43,1,50
1,21,38,3,16,1,6
0,5,38,1,2,2,1
12,45,15,1,1,19,1
36,21,11,30,26,5,40
3,3,45,25,42,0,40
1,0,16,1,3,1,2
1,68,38,1,0,22,0
25,9,12,14,1,31,6
26,144,21,41,28,4,49
2,4,64,5,27,1,23
1,9,6,0,2,1,0
0,8,10,1,0,9,1
30,180,36,27,5,27,28
16,9,66,36,55,5,46
2,33,28,3,17,1,5
0,8,185,0,1,0,1
15,22,52,6,0,10,0
36,1,39,40,19,24,42
5,17,25,24,33,2,43
2,21,194,3,3,2,3
0,29,37,1,1,1,1
24,31,60,12,1,16,6
33,95,96,39,35,14,53
3,5,172,5,23,2,27
0,42,78,3,1,1,2
9,13,65,0,1,1,0
40,1,97,24,4,30,24
20,1,5,34,36,14,49
1,12,62,2,20,1,4
1,30,11,0,2,2,0
8,60,193,2,0,15,1
38,30,17,40,20,28,41
9,10,21,25,37,2,34
0,19,41,2,4,1,3
0,2,175,1,1,1,1
11,0,58,11,6,16,10
41,1,44,47,32,32,56
5,17,7,5,20,4,9
2,22,24,2,1,0,0
0,6,58,2,0,0,1
21,4,43,27,14,22,25
31,37,30,35,43,10,50
4,11,11,2,5,1,4
0,1,13,1,1,0,0
3,2,92,1,1,10,4
35,0,74,38,18,21,40
25,9,4,22,37,1,37
1,28,45,1,2,1,2
0,8,123,1,0,1,2
9,0,32,15,0,16,12
37,1,50,41,23,22,58
10,7,14,6,35,2,12
1,26,57,2,2,1,1
0,6,59,1,0,0,1
23,0,71,29,11,27,40
32,2,21,47,41,13,39
2,14,17,5,5,2,3
0,30,25,1,1,2,1
0,4,27,2,0,14,6
34,2,12,36,19,41,57
20,1,101,20,31,6,29
1,4,127,2,2,0,2
0,23,13,1,1,1,0
11,1,11,17,4,11,23
38,1,88,37,34,24,67
4,1,7,5,21,2,9
1,21,23,1,1,1,2
1,20,52,1,0,1,1
25,2,12,24,9,38,44
35,1,60,33,38,16,48
3,2,174,4,14,2,4
1,24,6,1,0,1,1
1,11,44,6,1,6,10
37,2,54,38,13,18,69
26,0,31,20,35,18,15
2,10,111,1,3,2,1
1,26,74,1,1,1,0
7,3,6,13,5,12,48
37,1,72,45,40,25,56
12,0,71,6,28,4,4
2,14,177,1,1,1,1
1,23,6,0,1,2,6
16,1,2,31,3,26,61
30,1,64,36,30,19,32
3,3,50,2,21,1,2
1,20,11,0,2,1,1
1,10,20,3,1,5,35
29,0,53,41,14,18,79
23,0,111,18,34,9,8
2,9,177,0,2,1,1
1,26,10,2,2,2,0
8,8,65,15,4,12,50
37,2,8,43,32,23,59
14,0,83,3,27,2,4
1,7,6,1,2,1,1
0,24,37,1,0,0,9
30,7,42,24,4,23,63
32,2,25,34,35,24,33
4,0,7,3,14,4,2
2,8,3,0,1,2,1
1,25,0,1,1,2,23
31,3,164,43,14,16,65
25,1,6,30,34,13,8
3,1,15,3,4,1,0
0,12,24,1,1,2,0
6,22,19,8,1,2,47
35,3,11,44,32,23,53
13,1,59,12,31,21,4
1,0,11,1,2,2,1
0,20,159,0,1,1,6
16,22,42,22,9,15,64
34,2,56,36,40,24,34
3,1,11,4,17,2,1
0,1,65,0,2,1,1
0,24,197,2,1,3,20
20,18,4,35,20,22,77
27,2,65,25,44,14,13
3,0,69,2,4,1,1
0,13,19,0,0,1,5
4,25,13,9,1,13,61
33,3,5,35,27,37,33
14,1,33,10,31,6,1
2,0,49,0,2,1,2
1,11,3,1,1,1,22
20,25,1,19,8,12,67
32,3,7,38,35,23,8
3,0,65,3,21,2,2
1,1,20,0,0,2,1
0,20,10,4,1,4,42
26,15,8,75,11,27,58
26,2,34,40,32,7,3
2,0,14,2,4,1,2
0,5,3,1,0,0,5
6,23,29,3,1,0,61
33,4,26,40,29,20,29
13,3,20,12,17,13,1
1,2,58,1,1,2,1
0,0,3,1,0,1,23
21,11,2,20,13,3,60
31,17,37,40,39,24,7
2,2,16,2,7,10,2
0,1,2,0,2,0,1
2,8,1,3,1,1,40
24,13,23,34,17,3,53
19,8,20,27,38,23,4
1,17,4,2,5,2,0
0,3,1,0,1,1,3
2,21,10,10,2,1,59
32,13,21,33,30,16,34
14,2,5,4,32,20,3
1,0,1,2,1,2,2
0,4,0,0,0,1,20
11,22,11,22,11,1,78
38,8,26,40,42,18,9
4,2,2,4,7,17,1
0,1,2,1,1,2,1
1,6,1,0,1,1,43
23,22,18,31,10,0,52
25,6,16,24,58,24,5
2,0,0,2,8,8,0
0,0,1,0,1,1,3
5,8,5,7,1,1,55
38,32,27,51,20,4,33
16,9,9,15,26,19,2
1,2,1,1,2,9,1
1,0,0,2,2,1,24
12,7,1,13,8,2,73
36,29,24,34,41,1,8
5,14,56,4,21,12,1
0,1,11,1,1,6,1
1,0,0,5,1,4,39
20,14,1,37,13,1,58
21,20,1,29,32,9,3
2,4,0,3,4,16,1
0,0,1,1,1,12,4
0,0,18,17,1,1,54
29,20,119,48,26,1,30
12,16,200,6,31,3,2
2,1,7,1,2,36,1
0,1,20,0,2,7,17
22,7,403,16,5,1,61
35,28,38,50,38,1,6
2,8,2,5,30,5,0
1,1,0,2,2,31,0
1,0,2,2,0,6,44
22,0,1,41,13,1,47
26,28,1,41,37,0,5
3,16,0,3,7,11,1
2,1,0,0,2,27,1
2,1,0,4,0,3,50
29,6,1,40,27,1,30
8,25,0,22,38,2,2
2,5,1,1,4,19,0
2,1,121,1,0,18,18
5,1,53,18,5,2,68
34,11,5,40,36,1,11
16,16,1,4,22,11,0
3,2,1,0,2,24,2
1,1,0,4,0,4,54
9,1,5,37,17,0,36
35,22,18,21,53,1,3
12,13,4,3,5,12,0
1,1,1,1,1,30,19
0,1,1,34,0,3,70
22,8,27,43,24,2,9
30,26,20,4,34,1,1
3,7,2,0,4,17,2
0,1,0,1,1,20,36
1,0,1,20,1,1,60
26,8,24,42,30,1,5
21,30,10,3,37,1,1
1,10,1,1,3,29,2
1,1,1,2,0,17,58
11,1,0,25,10,1,46
37,11,8,16,38,0,3
4,31,165,1,7,6,0
2,4,38,1,1,28,17
2,2,3,105,1,6,69
19,0,1,132,19,0,11
29,21,1,4,45,1,1
2,14,1,1,2,10,2
0,1,0,2,1,24,56
0,1,1,12,8,4,40
27,7,15,18,38,1,4
18,26,17,1,20,1,1
2,8,2,0,1,15,17
0,0,0,6,0,21,62
5,1,4,41,8,2,10
33,9,26,9,34,1,2
10,27,12,0,20,4,2
0,7,1,0,1,22,51
1,0,0,17,1,16,40
18,1,9,41,23,1,2
30,8,26,4,34,1,1
2,26,6,1,3,15,16
2,10,1,0,0,24,65
1,1,1,10,5,4,9
27,2,4,11,30,1,2
25,7,25,36,40,1,1
2,24,4,3,2,15,31
0,4,0,1,0,22,56
4,0,1,0,6,2,5
35,1,11,0,44,1,2
13,12,20,62,18,6,2
2,16,2,148,1,28,53
1,1,1,32,1,17,38
16,0,1,3,29,1,2
35,0,16,1,39,0,0
3,25,21,0,5,3,18
1,21,3,2,0,21,68
0,2,1,175,4,4,9
31,0,3,126,36,2,1
25,6,27,4,25,3,0
2,22,16,2,2,8,37
0,6,1,1,1,17,55
2,2,0,1,14,5,5
31,0,6,9,43,0,0
22,3,27,92,8,2,1
2,25,7,65,1,12,58
0,5,1,6,1,29,45
19,1,1,2,19,4,3
33,0,7,0,35,2,0
2,6,28,0,4,0,10
1,24,7,91,0,10,65
1,5,0,65,3,21,12
27,2,0,4,27,2,1
24,1,15,1,18,1,1
3,2,32,3,0,4,51
1,17,4,133,0,23,41
5,9,1,209,12,9,2
28,3,0,21,40,3,0
17,1,16,2,4,0,13
1,6,28,1,1,1,69
1,24,2,0,0,22,11
12,10,0,1,19,23,0
34,2,1,320,37,2,1
3,1,26,74,4,1,53
0,6,16,13,0,2,41
0,25,1,4,2,35,2
26,6,2,0,36,12,1
28,2,9,0,24,1,19
3,2,29,169,0,1,67
0,13,8,317,1,11,9
4,22,0,8,9,29,2
31,3,1,10,53,3,0
14,0,7,5,12,1,33
2,0,28,2,1,0,65
1,18,6,99,1,25,8
25,13,0,30,25,21,0
32,1,0,79,37,1,1
3,1,9,14,2,0,61
0,13,32,0,1,5,38
3,23,10,254,2,23,3
29,3,1,195,37,6,0
25,0,1,41,25,2,14
1,1,14,31,1,1,68
1,10,23,0,1,2,11
6,22,2,737,8,14,1
30,3,0,502,34,11,1
16,1,1,20,14,1,49
1,1,25,1,1,1,41
0,26,17,1,2,17,1
15,12,1,1,19,23,0
44,2,2,0,35,0,19
5,1,7,417,3,1,70
0,7,23,292,2,0,8
1,24,17,150,3,20,2
25,9,1,113,15,14,1
25,3,1,2,14,2,31
3,1,15,0,2,1,60
0,6,22,10,0,8,6
9,22,3,333,19,23,0
34,9,0,73,33,7,1
16,1,1,113,6,1,51
1,1,22,95,1,0,37
1,2,19,3,0,2,2
14,25,2,361,7,23,0
37,13,1,322,9,8,14
3,0,13,10,10,2,66
1,0,27,1,1,0,10
1,6,3,1,0,8,1
23,30,2,0,0,28,1
28,7,0,750,18,8,49
2,1,15,81,34,2,40
1,1,25,299,10,1,3
12,10,1,46,1,6,0
36,20,0,56,33,24,10
5,2,1,153,11,5,69
0,0,20,292,0,2,11
1,0,23,10,1,1,1
15,22,3,1,20,6,3
36,18,0,204,44,33,55
6,3,6,95,3,10,35
1,1,30,27,1,1,3
1,3,9,2,0,2,0
19,26,2,0,7,20,10
31,13,0,745,63,22,63
3,2,13,292,41,2,9
2,1,45,51,3,1,1
2,7,7,4,15,1,0
36,23,1,0,2,17,29
24,3,0,81,5,29,53
2,1,13,875,1,4,5
0,1,24,82,78,0,1
7,12,3,4,40,4,1
32,25,1,65,14,22,45
13,2,1,355,1,16,41
0,1,25,43,1,2,1
0,1,22,0,32,1,2
21,12,3,523,94,12,12
29,16,2,167,14,25,57
2,1,5,1,0,2,9
0,2,28,319,1,2,1
2,2,12,203,7,1,0
28,25,1,8,1,19,35
26,10,0,1,1,27,50
2,0,15,2,1,2,4
0,0,29,10,20,1,1
9,8,3,989,14,2,1
34,22,0,89,31,26,45
8,15,0,6,2,12,44
1,1,23,5,1,0,3
1,1,17,20,6,0,0
15,15,2,0,18,8,8
35,20,1,299,7,29,56
3,2,7,104,1,3,23
1,0,32,24,1,1,2
0,3,11,133,18,0,2
18,20,0,62,105,18,30
30,10,1,697,10,29,54
2,1,13,139,1,4,5
0,1,35,5,1,2,1
1,9,4,7,18,1,2
27,27,1,14,24,12,52
26,6,2,136,2,24,41
2,3,16,1,1,2,2
0,1,21,301,1,1,0
9,10,2,25,46,3,14
34,27,1,464,16,19,72
11,3,5,117,1,8,10
1,2,27,65,2,1,1
1,1,15,226,75,1,1
18,14,1,39,55,13,48
28,18,0,4,4,30,41
6,2,6,2,0,6,3
0,0,29,250,1,1,0
4,5,5,159,30,1,11
28,29,0,20,42,5,64
17,18,1,673,12,27,10
1,3,12,29,2,12,0
0,1,30,78,14,0,0
7,4,3,1,63,0,44
33,25,1,523,8,19,39
11,8,2,67,1,16,3
1,2,26,15,0,1,1
0,0,18,260,3,0,12
17,4,1,356,31,5,63
29,25,0,16,8,23,9
2,7,10,2,1,17,1
0,1,30,282,1,1,0
2,1,4,24,49,1,25
27,7,1,18,155,10,56
20,26,1,22,26,37,7
0,9,13,8,2,4,1
0,0,23,294,3,1,0
3,1,3,362,8,1,39
39,9,0,20,1,14,50
20,26,0,22,1,21,3
2,5,16,6,0,2,2
1,2,20,0,1,1,10
22,0,2,647,13,3,60
23,8,0,44,75,23,11
2,26,5,39,6,15,1
0,11,34,131,1,2,2
5,0,14,32,0,1,45
33,0,2,72,1,7,48
22,10,1,199,8,25,3
0,17,9,5,29,6,1
0,3,29,356,32,2,9
3,1,5,245,33,0,56
33,1,1,6,42,7,24
10,29,0,143,10,26,1
1,20,12,273,4,6,0
0,2,28,190,51,2,25
10,1,2,12,17,1,57
26,5,1,483,2,7,5
12,24,0,195,0,28,1
1,11,24,33,37,10,1
2,2,22,35,19,1,42
24,1,1,237,22,1,40
7,14,1,10,2,16,2
1,19,6,17,0,23,0
2,1,36,2,38,4,7
6,0,14,0,103,1,57
31,0,2,37,65,3,21
11,23,0,271,26,25,1
0,20,9,47,1,26,0
1,1,28,6,26,2,28
13,1,4,2,27,2,57
35,7,1,122,1,2,6
3,36,0,36,2,27,0
1,10,9,230,111,13,0
9,1,32,207,17,1,45
28,0,6,15,1,0,43
17,14,1,1,20,9,2
2,18,0,4,5,28,0
1,1,12,46,0,6,11
1,1,31,2,3,1,66
26,0,5,272,92,2,11
18,23,0,46,32,9,1
0,20,1,79,73,21,0
1,2,16,83,5,3,44
11,1,21,189,1,2,52
24,9,3,80,0,1,2
4,34,0,48,36,11,1
1,9,4,135,85,33,13
1,3,24,21,10,3,68
27,1,13,4,1,0,9
21,9,2,0,20,1,0
2,31,1,423,40,19,1
1,9,13,65,3,15,26
0,1,29,377,1,2,58
24,0,3,9,1,1,6
15,5,1,507,188,8,1
2,26,1,82,23,33,1
1,9,16,7,2,11,41
15,1,36,6,1,1,42
30,1,3,76,1,1,4
3,6,1,37,6,15,0
0,31,5,8,18,24,8
0,11,33,57,6,2,54
19,0,13,5,0,0,21
25,1,1,10,53,0,1
3,13,0,0,46,19,1
0,21,14,266,7,24,27
10,2,29,178,11,2,58
34,0,4,15,2,2,4
5,1,0,122,31,3,0
2,25,1,3,33,24,0
1,16,19,30,2,10,43
15,0,20,6,0,1,38
30,1,1,161,7,0,3
5,8,0,29,33,4,0
1,29,2,586,2,23,8
1,6,30,23,34,9,57
24,2,14,23,8,1,27
24,1,1,54,44,0,2
2,6,1,523,82,10,1
0,27,4,21,5,24,22
1,7,21,84,2,4,60
27,2,8,3,27,1,8
30,1,2,212,16,1,1
2,9,0,7,20,22,0
1,25,9,85,8,21,41
5,3,27,102,2,2,51
31,1,8,31,21,0,5
6,1,1,249,12,8,1
2,5,0,27,1,27,7
1,25,6,214,33,9,50
9,8,28,15,7,3,27
38,2,9,328,30,0,0
10,0,0,31,3,4,0
1,10,0,22,27,23,19
2,23,7,39,9,11,64
19,3,25,11,3,1,5
33,1,6,323,36,2,0
4,0,1,134,8,13,1
0,13,0,49,0,22,41
1,22,9,3,0,4,45
21,1,27,426,44,2,2
71,0,5,30,53,1,2
4,0,1,1,3,18,8
1,19,0,0,5,22,58
5,9,13,406,60,1,22
45,1,35,303,26,0,1
4,1,3,8,42,4,2
0,1,1,342,3,21,26
2,18,0,105,2,18,54
52,18,15,6,42,1,6
264,1,17,1,11,1,1
70,1,1,2,2,6,1
3,6,0,140,1,28,47
4,22,0,45,37,5,45
0,8,23,53,35,1,3
0,1,11,153,8,1,0
10,1,2,50,3,11,9
402,4,1,80,1,25,52
68,23,13,4,16,4,29
5,7,27,184,20,0,0
2,1,3,482,12,1,1
1,1,1,13,1,14,18
0,7,1,39,61,23,51
39,27,13,3,77,2,5
141,5,22,180,11,0,2
14,0,3,3,0,5,0
2,0,2,562,50,24,41
35,9,1,49,49,13,44
113,24,20,255,48,0,3
28,4,9,13,3,2,1
1,1,2,1,0,3,4
178,0,1,84,6,27,51
32,5,2,135,26,6,25
5,15,20,64,7,1,2
6,7,14,5,1,2,1
128,2,1,10,0,7,23
405,0,1,10,19,24,56
14,4,6,78,27,4,6
7,21,36,18,3,1,1
144,7,8,17,2,1,1
10,0,1,368,1,5,44
0,1,1,14,1,30,46
0,11,6,178,99,5,4
317,22,28,85,21,1,2
222,3,8,63,2,1,6
6,1,1,4,1,13,52
7,1,1,24,34,35,24
10,7,9,4,25,3,1
156,21,34,85,2,2,2
3,3,11,13,112,1,25
135,0,2,29,40,19,57
56,1,2,317,7,21,7
68,11,20,33,2,1,0
12,17,28,3,0,0,0
63,2,3,1,6,1,41
7,0,0,10,32,22,45
4,1,3,50,11,12,4
0,11,21,2,2,1,1
48,19,12,47,0,0,9
104,0,2,67,0,6,47
2,0,1,502,9,37,25
0,3,5,43,30,13,1
138,26,23,4,5,1,0
37,15,8,10,19,0,19
55,1,2,70,96,13,58
87,0,1,9,5,29,7
31,9,6,6,4,3,1
6,24,30,0,1,0,1
110,5,8,200,34,2,38
7,0,1,23,20,24,41
0,1,1,602,3,13,4
308,11,8,16,9,2,0
34,21,31,3,2,0,6
3,4,12,3,7,9,53
0,1,2,1,28,27,23
0,1,1,103,25,8,1
1,18,15,15,6,1,0
2,17,36,17,1,1,23
189,2,2,12,66,11,53
13,1,1,35,52,25,5
188,10,1,88,5,3,0
31,26,14,258,2,1,3
53,3,27,32,14,0,50
15,0,1,12,43,16,40
1,0,0,329,22,19,2
19,31,7,42,2,2,0
10,29,40,3,1,0,2
80,2,11,0,6,1,52
4,0,0,54,51,23,29
94,1,1,94,11,10,2
123,19,11,46,1,1,0
29,20,31,0,1,2,21
1,2,2,201,31,13,53
269,0,1,131,143,27,6
15,2,0,4,4,4,2
76,24,16,41,0,2,2
7,11,19,460,0,1,36
1,2,1,54,40,15,34
84,1,1,5,7,22,3
77,8,4,0,1,1,1
17,26,28,28,1,1,8
0,4,11,133,13,2,47
35,1,2,1,12,23,21
9,1,0,517,14,21,1
55,2,8,29,15,2,0
23,25,42,6,9,0,29
1,4,13,1,25,5,48
5,2,0,0,33,26,5
21,2,0,121,2,6,2
107,9,19,70,10,0,1
30,29,22,26,27,0,36
45,6,3,3,13,1,45
48,1,1,0,1,32,4
88,1,5,286,1,12,1
8,7,28,17,17,2,4
1,25,13,414,46,1,52
7,6,2,47,3,13,29
190,2,0,7,10,30,3
11,1,17,7,20,4,1
23,8,29,3,8,1,17
19,29,2,4,46,0,64
1,9,1,44,2,11,9
1,2,1,87,1,19,2
12,0,20,20,131,2,2
62,10,23,129,27,1,34
11,26,2,3,1,3,40
0,4,1,32,2,28,4
11,0,6,208,2,9,1
62,0,31,5,4,2,2
54,31,10,74,46,0,44
50,19,1,188,5,1,26
67,3,0,45,2,24,2
8,0,11,2,3,13,1
116,2,24,0,34,2,21
26,20,1,142,16,0,52
3,16,2,31,2,10,7
28,0,1,3,1,25,1
2,1,18,177,8,2,1
19,9,21,17,36,1,31
25,32,2,92,7,1,38
55,5,2,137,1,11,4
5,0,5,7,0,15,1
54,0,26,39,60,1,5
2,10,11,118,56,0,44
0,24,0,9,6,5,25
74,2,0,66,1,25,2
16,0,10,11,1,14,1
37,1,28,190,58,1,15
2,16,5,163,28,1,50
126,18,2,43,4,13,5
12,3,1,15,1,23,1
0,1,22,78,9,7,3
464,1,24,310,23,0,41
47,18,1,34,14,1,37
7,14,1,2,1,20,3
2,1,2,1,1,17,1
0,2,19,43,9,2,5
0,7,17,144,7,2,48
5,20,2,70,31,19,28
184,10,1,2,3,23,2
13,1,2,62,0,5,1
37,0,28,50,1,1,15
8,19,11,116,39,0,51
0,21,2,5,10,13,7
67,1,2,28,1,26,1
18,1,18,352,27,4,0
33,4,20,34,14,1,36
3,23,2,497,16,2,47
76,10,1,25,2,18,2
6,1,8,27,1,21,1
60,1,37,110,7,2,3
35,10,7,21,70,0,50
3,29,1,0,10,12,35
7,4,1,360,0,44,3
211,0,1,222,32,18,2
26,1,21,22,32,1,18
10,13,15,5,25,0,61
5,23,1,38,1,14,8
6,1,1,14,0,16,1
44,2,11,131,9,1,0
18,1,30,160,45,1,34
25,20,4,5,12,1,49
15,14,1,517,2,24,4
10,1,1,104,0,20,1
210,1,14,2,0,1,1
16,19,24,455,70,0,52
7,44,3,44,7,8,35
2,4,0,103,1,27,1
0,1,6,53,1,2,1
18,0,23,32,5,0,17
1,15,6,2,54,1,66
17,18,0,61,4,13,10
186,2,0,232,0,17,0
39,1,3,36,1,2,3
10,0,33,8,25,7,57
6,20,12,2,60,8,39
0,11,1,131,4,6,3
88,6,1,51,2,3,0
29,1,7,16,2,1,15
34,10,29,260,38,1,64
14,7,9,106,15,0,12
1,1,2,12,1,71,1
29,1,1,500,1,42,2
60,31,9,259,2,3,49
5,28,28,52,46,2,36
10,22,7,3,10,0,2
119,1,2,0,0,29,1
5,1,1,60,1,109,17
4,0,7,22,34,75,67
2,9,27,172,12,3,9
22,4,8,7,1,42,0
11,2,2,137,1,18,1
22,13,2,235,4,4,32
3,21,6,176,20,0,49
0,20,31,21,28,1,4
33,5,8,178,1,1,1
105,2,1,6,0,22,1
37,0,1,20,89,10,48
3,0,11,175,65,18,34
1,1,30,144,5,37,1
27,68,4,30,1,11,1
21,146,0,0,1,1,15
31,18,0,319,2,24,54
27,3,18,168,35,22,7
2,4,24,31,7,17,1
17,1,1,0,1,138,0
22,1,1,649,0,10,36
11,1,0,82,40,28,47
37,6,24,13,23,44,4
10,1,13,12,5,4,0
6,1,1,0,0,3,3
82,1,2,765,1,24,47
24,14,6,53,12,62,37
26,93,29,14,51,43,3
25,17,12,275,3,7,0
100,1,1,81,0,1,12
2,0,0,10,4,39,58
1,1,15,0,20,54,9
97,260,22,290,4,4,2
64,328,2,100,15,34,0
80,14,1,4,2,80,28
4,1,2,127,1,24,42
5,13,22,38,26,2,3
48,45,17,202,31,8,1
12,74,1,52,3,109,1
50,5,1,115,6,4,41
3,1,10,34,33,3,30
0,0,24,11,5,222,1
75,0,2,45,1,9,0
76,221,0,668,10,7,9
5,288,2,102,20,2,48
22,8,20,4,31,202,13
30,29,34,401,8,61,1
11,204,2,35,2,36,1
1,2,0,14,0,12,28
189,0,2,0,34,10,50
15,458,22,82,66,0,5
0,430,20,156,9,43,1
77,28,2,30,1,333,3
70,0,0,8,2,179,44
4,85,6,0,15,8,36
2,241,26,296,4,5,2
2,109,13,18,43,37,1
6,4,0,477,3,137,11
1,0,1,27,17,134,55
0,0,13,1,37,5,8
71,158,26,196,9,2,1
90,36,2,29,2,39,1
25,4,0,0,0,45,29
101,1,0,736,33,21,50
3,0,22,388,52,24,4
74,425,16,12,3,88,1
11,108,1,2,2,67,2
39,3,1,36,15,25,43
35,1,6,75,23,8,36
56,66,28,15,5,1,2
2,326,12,16,4,2,1
111,21,0,239,6,109,12
54,2,0,24,19,48,54
31,2,14,35,17,21,11
3,17,25,2,36,45,2
2,8,3,5,1,68,0
1,2,1,0,29,92,40
2,234,6,59,30,95,34
4,9,23,99,13,16,2
13,1,13,3,2,29,1
15,7,1,572,2,84,15
315,177,1,22,6,5,56
9,105,5,2,25,20,8
4,4,23,1,6,7,1
16,2,13,0,2,20,1
1,13,1,295,0,13,31
0,2,1,85,21,157,48
32,0,13,7,41,70,4
8,13,27,4,5,2,1
60,27,3,14,0,40,0
54,121,0,3,1,32,43
24,38,1,14,50,30,44
1,1,25,10,26,17,3
190,2,27,9,3,106,0
33,1,2,199,1,83,11
31,27,0,11,13,13,54
17,428,4,2,18,53,7
1,41,26,28,9,3,0
19,3,13,4,5,139,0
16,9,2,144,3,14,25
50,6,1,3,44,81,51
12,17,19,31,26,3,5
1,135,28,42,3,155,0
3,5,3,4,1,10,1
97,16,0,1,1,12,44
22,8,0,2,22,112,38
2,0,26,56,28,45,3
0,178,29,18,7,60,0
257,100,2,13,13,82,12
25,3,1,86,18,185,51
5,2,9,62,33,57,8
0,58,33,20,7,5,1
78,59,10,2,1,1,1
82,4,1,1,1,1,28
4,1,1,9,23,22,41
62,727,16,34,6,34,3
4,24,26,9,4,25,1
1,3,2,2,1,89,3
0,1,0,0,7,38,45
0,87,0,7,35,129,34
18,7,22,39,21,83,0
73,124,17,13,2,61,1
17,15,1,1,2,33,20
3,29,1,1,31,29,51
2,64,3,27,38,23,7
50,9,25,38,7,88,1
92,1,8,2,4,23,0
6,20,2,2,1,54,29
1,0,1,12,27,75,48
15,1,9,45,16,9,4
4,6,37,10,5,145,0
37,99,12,1,1,10,1
4,215,0,0,1,31,40
12,6,1,36,24,46,30
56,0,11,45,47,15,3
133,49,23,2,3,117,1
8,27,3,1,1,12,14
2,27,1,3,38,3,50
2,1,2,38,64,190,7
5,107,22,24,14,11,3
2,114,21,2,2,92,0
78,39,0,0,1,24,31
41,3,0,12,29,118,46
21,13,7,55,30,10,5
3,58,30,5,3,35,1
6,22,9,1,0,35,1
26,7,2,1,5,4,39
32,1,0,29,27,1,29
55,0,4,31,37,40,2
65,34,25,4,4,54,1
6,12,12,1,0,25,11
1,17,2,1,79,39,50
3,22,0,24,11,4,7
20,71,8,55,35,260,0
33,2,24,7,3,18,1
12,0,6,1,3,2,23
1,154,1,18,31,1,45
0,128,2,30,37,103,5
1,76,4,3,1,42,1
29,4,26,2,1,43,3
137,0,6,1,14,2,41
4,1,1,28,40,28,32
60,176,0,38,4,84,2
5,20,11,4,2,45,1
77,147,36,0,1,17,16
8,7,3,4,24,5,55
71,1,2,41,40,32,7
55,16,0,26,2,10,0
4,69,21,3,1,43,0
8,41,16,1,60,64,30
129,3,2,7,95,85,44
7,8,1,42,8,20,5
145,12,13,14,1,33,1
41,1,30,2,0,5,4
28,38,4,0,6,28,48
4,34,0,26,53,19,38
18,46,1,44,43,78,3
66,1,17,2,2,11,2
61,2,39,1,2,30,6
22,167,3,4,40,15,47
27,7,39,39,23,2,20
39,28,26,26,1,46,1
5,39,158,2,0,14,0
23,4,5,2,13,2,25
1,5,0,17,43,50,46
84,20,0,48,12,3,4
11,28,26,5,0,64,0
0,64,17,0,0,12,3
129,58,1,1,21,17,45
103,4,1,26,27,6,34
3,13,2,38,3,5,1
1,31,27,3,6,71,0
187,4,12,0,9,110,10
17,10,1,3,2,15,51
110,27,1,36,9,12,8
3,46,11,26,11,65,1
14,24,29,1,1,3,2
60,1,3,1,10,2,29
3,2,1,7,168,10,50
89,5,1,40,7,34,4
8,58,18,15,1,100,2
103,14,27,1,0,3,2
10,0,3,1,17,45,38
2,372,1,17,19,28,30
95,35,2,43,8,3,1
97,4,27,3,1,1,0
7,24,18,0,2,57,9
1,72,1,1,19,17,44
18,13,0,36,13,41,14
87,1,11,27,2,29,2
23,48,22,1,3,13,1
10,48,1,0,3,23,25
8,17,1,7,23,26,42
38,6,0,38,16,44,4
14,1,17,14,2,13,1
0,0,19,0,1,31,3
184,5,2,1,32,9,35
24,32,1,23,7,100,34
2,48,4,39,4,34,2
14,2,24,2,8,2,0
10,1,8,1,1,61,10
80,84,2,0,4,21,44
26,352,1,30,101,96,7
2,19,2,33,6,17,0
26,2,26,2,0,11,0
5,1,12,1,15,15,25
4,119,1,6,25,15,50
3,31,1,42,7,10,7
21,0,10,16,2,51,1
1,10,27,2,1,53,1
165,173,3,0,12,29,37
22,10,0,18,17,2,34
11,1,1,43,10,67,1
2,66,14,4,2,47,1
86,20,6,1,1,21,8
120,7,0,3,44,10,51
5,0,1,38,22,36,23
1,0,7,25,3,52,0
59,143,19,1,0,7,1
122,8,18,0,36,43,24
23,22,8,8,41,17,50
1,13,1,39,5,42,4
30,2,4,12,2,6,1
29,0,26,1,1,5,1
8,57,13,0,24,1,44
65,101,0,21,9,129,37
9,2,0,34,1,25,2
25,69,5,3,54,16,0
36,61,38,2,13,52,5
14,14,18,3,25,8,48
0,1,2,25,5,138,25
104,25,1,27,0,30,1
47,43,18,3,0,36,0
21,3,41,0,17,80,17
0,0,10,11,58,45,48
1,75,1,43,17,21,5
63,27,0,6,2,2,0
48,2,39,1,0,47,1
52,56,56,0,28,53,38
7,13,24,23,27,43,39
95,5,2,42,3,3,3
30,4,1,3,1,27,1
1,101,14,1,3,10,5
70,11,19,0,26,9,57
25,7,109,31,5,1,25
43,17,7,33,1,97,1
15,0,9,1,0,42,1
2,53,61,2,16,2,23
21,174,9,6,27,6,55
8,18,1,47,6,8,4
1,1,48,15,2,6,1
82,3,7,0,1,14,0
50,2,36,1,17,18,42
42,1,23,18,43,17,43
8,85,50,38,8,56,4
11,18,114,4,2,110,0
13,49,128,1,1,5,9
54,16,63,2,33,1,53
17,29,254,34,20,38,27
1,3,147,37,0,26,2
1,1,31,3,9,46,0
0,0,61,1,41,9,19
181,18,143,3,22,7,60
97,25,294,42,1,2,9
7,50,75,18,1,11,1
1,2,260,0,1,85,1
0,31,311,1,61,45,42
0,87,51,17,46,6,48
38,5,15,40,2,19,2
6,16,248,5,1,63,0
2,5,172,1,7,6,14
34,6,180,2,10,1,58
27,168,129,28,12,60,11
2,6,75,25,2,89,1
1,2,21,3,8,45,2
0,2,94,0,34,10,41
145,1,46,7,40,33,47
100,31,12,38,9,9,3
4,3,20,12,6,8,1
1,13,213,1,1,92,4
0,4,130,1,10,82,51
58,15,113,25,80,72,32
11,25,27,41,9,39,2
35,18,35,4,0,11,1
8,1,80,0,2,1,22
55,1,125,1,37,25,61
10,1,187,32,20,27,7
4,116,166,30,6,9,1
0,16,36,1,1,14,1
6,70,333,0,36,7,40
16,17,266,6,31,27,49
40,64,49,38,3,24,4
4,25,3,21,0,20,1
18,58,157,2,2,165,4
24,6,81,1,33,4,56
1,1,19,11,27,1,31
1,5,56,42,4,63,1
0,2,275,4,1,44,0
4,39,94,2,8,3,22
44,84,76,1,37,10,62
14,12,27,36,21,31,7
1,2,192,35,0,14,1
1,30,187,2,0,29,2
5,10,14,1,17,27,43
16,1,17,6,28,33,47
3,1,57,39,6,6,3
1,29,30,18,1,1,0
0,31,115,1,0,38,3
13,2,20,0,22,27,53
17,0,52,15,30,7,32
2,14,4,44,1,5,2
0,192,36,5,1,23,1
9,25,148,0,3,14,23
19,3,24,0,43,12,63
4,0,64,29,27,1,8
3,3,173,33,3,4,2
1,281,85,3,1,26,0
1,27,96,0,17,5,40
13,3,29,6,45,8,53
11,40,62,42,6,56,4
5,6,78,25,1,56,2
0,2,303,0,0,15,4
2,1,27,0,18,2,52
24,0,33,9,30,0,35
15,21,2,41,4,24,1
1,25,6,12,1,9,1
0,2,284,0,3,84,17
2,82,76,0,28,9,65
35,64,17,26,23,14,8
5,44,55,35,1,2,2
2,22,10,3,1,1,0
0,2,98,1,8,42,40
22,1,128,3,31,27,51
34,68,80,42,18,3,3
9,40,22,21,2,48,0
1,6,35,2,0,33,3
0,1,174,0,18,41,56
41,4,51,15,32,18,34
6,1,2,45,2,11,2
2,102,98,4,1,30,1
1,9,80,1,6,6,22
2,0,90,0,27,58,62
7,1,39,28,21,4,8
54,74,7,37,2,5,1
4,134,84,4,1,14,1
3,4,89,1,5,115,37
15,9,20,3,26,6,49
42,30,33,39,10,53,4
13,21,83,20,1,30,1
2,0,65,0,1,2,2
1,17,14,1,20,9,59
10,122,41,20,34,51,37
43,11,11,42,3,19,3
7,1,63,6,0,10,0
1,75,105,0,5,95,19
4,68,120,1,33,6,63
12,35,5,27,21,48,7
41,109,310,32,3,42,1
20,2,37,2,1,10,1
2,2,57,0,6,1,38
2,2,33,5,32,2,53
34,130,12,43,13,112,3
29,14,20,23,2,4,1
7,40,62,1,1,20,1
1,38,98,1,18,31,53
122,107,43,18,42,21,43
8,4,23,45,6,38,3
1,109,14,6,1,2,1
1,46,79,2,1,4,18
9,2,30,0,29,48,64
34,29,32,27,32,56,8
12,45,17,39,2,9,0
1,7,77,3,0,70,0
1,4,17,1,9,22,39
13,169,22,1,43,88,53
26,23,20,38,17,27,3
7,19,56,30,1,3,0
6,11,36,2,0,0,2
2,1,45,0,20,29,54
43,1,10,8,39,42,36
21,0,84,43,4,4,3
2,17,23,10,1,38,0
1,30,68,2,3,4,17
1,10,3,0,28,18,65
23,53,67,22,33,74,9
14,266,214,40,2,27,1
1,25,84,5,3,7,2
1,9,10,0,5,27,40
9,7,5,5,39,30,58
35,1,70,40,18,9,4
13,17,42,20,1,7,1
0,30,70,1,0,6,2
2,2,75,1,15,14,61
26,1,27,12,58,78,42
19,231,2,46,9,11,1
2,24,2,7,1,15,0
1,10,53,1,1,3,12
0,23,26,0,26,10,62
23,50,34,26,31,1,9
17,3,41,41,1,43,2
2,56,18,4,1,45,0
0,5,14,1,1,26,40
12,1,12,0,38,10,59
33,256,17,37,15,1,4
4,18,231,27,2,143,1
1,78,36,2,0,49,4
1,38,148,1,17,22,54
14,7,7,8,36,15,39
27,99,35,45,3,26,2
1,5,40,13,1,9,1
1,1,35,1,2,50,17
1,118,3,1,25,51,55
20,52,24,22,27,9,7
15,3,77,35,2,7,1
1,2,15,3,0,16,1
0,10,88,0,6,11,36
5,46,7,2,42,1,46
32,14,226,44,17,63,4
7,0,9,29,0,47,1
1,121,5,3,0,3,6
1,14,2,1,14,24,50
7,207,22,11,47,87,34
37,9,68,40,6,7,2
7,160,203,6,1,13,0
1,3,29,2,1,4,14
1,72,14,1,30,28,62
9,60,36,20,26,12,8
36,2,26,33,1,106,0
9,132,269,1,0,4,1
2,32,46,1,7,40,37
0,2,19,5,35,17,55
8,21,2,40,22,25,4
32,2,30,27,2,3,1
11,34,131,2,0,11,1
0,15,141,0,11,1,45
1,61,3,9,36,28,38
39,14,41,43,3,14,2
35,19,262,12,0,76,0
3,22,132,1,0,15,11
1,0,6,0,30,14,66
1,299,19,26,28,0,7
22,75,117,46,2,0,0
25,74,3,4,0,44,0
2,80,57,0,4,10,39
0,3,8,0,34,23,62
4,96,115,29,15,164,4
20,22,13,31,2,25,2
16,14,8,4,1,43,1
0,75,5,1,13,3,53
1,45,57,5,32,136,42
14,26,124,42,5,7,2
25,107,25,15,1,138,1
2,29,4,2,2,6,18
1,6,55,0,30,1,64
6,29,112,20,28,25,8
31,46,5,34,3,32,1
23,8,14,2,1,54,0
1,175,35,1,8,24,32
1,11,46,2,48,5,53
3,59,78,34,20,11,3
27,48,41,24,2,14,1
7,3,30,3,1,263,3
3,106,178,2,11,31,52
0,53,7,8,36,25,36
1,2,34,49,5,16,3
33,1,112,13,1,16,1
14,1,7,1,1,47,13
0,300,5,0,26,65,60
1,21,75,20,26,15,8
8,4,25,42,2,28,1
36,17,197,4,0,8,0
8,1,12,1,11,26,34
1,24,2,2,55,166,50
3,219,41,36,10,8,4
17,96,43,26,1,3,1
33,23,25,1,1,82,0
4,1,2,2,29,45,48
1,142,31,12,31,5,41
1,47,178,40,3,67,2
28,3,43,8,1,3,1
25,2,35,2,6,95,17
1,71,3,1,36,73,63
0,17,87,19,25,49,9
1,1,88,43,2,2,1
21,5,12,4,1,0,1
13,73,77,1,12,411,36
1,282,9,4,45,14,54
1,6,87,38,5,47,5
1,103,40,28,1,7,1
28,50,2,1,0,26,1
8,1,22,1,26,5,42
1,153,101,14,34,44,47
0,75,72,50,3,2,3
9,5,9,6,1,90,1
22,2,84,2,2,70,12
4,324,24,1,32,17,60
1,13,2,20,23,38,12
2,26,56,39,2,2,0
15,42,32,4,0,34,2
27,15,46,0,19,6,48
3,2,4,1,45,77,37
1,0,33,45,6,4,3
2,139,31,27,1,222,0
17,25,36,1,0,13,13
24,2,28,0,22,1,65
3,8,17,6,40,25,11
1,17,17,41,4,8,1
5,150,68,16,1,49,0
28,13,20,1,2,8,46
12,75,61,0,45,15,42
1,8,14,28,21,1,3
0,193,55,42,1,92,0
10,115,14,5,0,45,12
23,4,197,2,10,2,60
3,2,92,1,48,9,10
0,38,5,41,6,25,1
1,47,14,34,0,11,0
23,7,14,2,1,1,53
25,146,29,0,29,97,43
2,71,30,6,38,28,2
0,2,8,45,2,25,0
1,1,37,13,0,41,13
24,319,73,2,4,16,63
6,149,32,1,44,9,10
0,4,50,21,33,19,1
1,2,2,42,3,5,2
2,2,40,3,1,87,49
18,24,80,1,10,9,44
15,42,22,1,45,91,4
1,480,149,36,8,123,2
1,45,66,31,0,15,8
6,2,3,3,1,23,60
27,1,36,1,25,24,25
16,64,35,11,39,153,1
2,47,1,43,4,4,0
1,134,81,7,0,1,28
18,5,12,1,1,0,60
24,0,15,1,36,206,6
3,1,9,20,23,33,1
2,6,26,46,2,3,2
1,99,89,4,1,2,56
26,215,35,0,15,6,46
25,3,1,2,57,3,3
2,46,1,33,9,2,0
1,300,54,29,0,0,16
3,17,82,1,0,139,65
27,48,14,0,27,55,12
8,29,18,5,42,5,0
1,100,22,40,2,3,0
1,4,24,18,1,5,48
6,2,4,2,2,19,44
38,6,28,1,39,10,3
13,86,30,18,35,2,1
2,9,18,38,3,1,9
1,21,29,5,1,88,60
19,1,7,1,14,58,26
56,59,138,2,56,4,2
3,18,74,32,8,2,0
0,99,64,31,2,2,27
2,22,11,3,1,27,60
41,1,2,1,19,4,6
16,1,40,5,35,39,1
2,11,5,40,4,25,1
1,20,6,17,1,14,52
6,6,12,1,0,18,49
33,34,38,1,31,3,2
8,2,43,23,43,0,1
0,0,53,48,3,1,13
0,133,3,4,1,6,59
5,86,7,1,21,13,11
69,7,34,3,48,8,0
13,2,6,34,7,3,1
1,9,25,30,1,4,64
1,1,96,2,0,6,47
18,0,98,1,21,26,2
33,3,11,6,46,25,0
3,47,7,43,4,10,8
1,114,14,21,1,4,60
0,30,74,2,1,14,24
22,2,37,1,35,14,2
16,17,91,30,30,0,1
2,9,20,45,1,0,27
1,1,1,4,1,0,59
6,0,9,1,11,22,6
30,1,52,2,46,46,1
10,84,137,36,8,3,1
1,8,23,29,1,1,45
0,2,48,3,1,10,43
19,6,10,0,18,9,3
28,21,1,9,39,2,0
2,5,30,46,4,2,7
2,3,87,21,0,0,59
6,1,19,3,4,11,24
25,2,43,0,34,15,0
26,33,6,11,28,1,0
2,3,64,43,1,2,23
2,1,46,7,1,1,54
1,416,65,2,8,21,7
23,22,32,0,44,13,1
9,2,56,33,15,1,0
3,2,6,35,1,1,42
1,0,3,2,2,4,43
3,0,7,1,28,18,3
29,16,4,2,45,3,1
11,28,15,36,4,1,10
1,3,136,28,2,1,59
0,0,46,1,6,6,9
8,0,18,0,37,19,1
28,15,108,11,34,4,1
13,18,16,46,3,2,25
2,2,2,7,2,1,52
1,2,128,2,7,6,5
25,26,106,0,48,22,1
23,7,19,30,17,6,0
3,3,31,34,1,1,40
0,0,142,3,2,2,44
2,1,5,0,20,8,3
39,5,2,4,40,4,1
15,35,14,41,2,23,7
2,11,98,22,1,3,51
0,2,47,1,5,0,22
10,1,61,0,40,4,2
35,17,1,12,30,20,1
5,13,34,42,2,11,26
0,2,89,7,2,1,47
0,0,76,0,7,1,4
24,1,27,0,42,10,0
32,21,32,38,17,15,1
4,36,80,45,2,3,40
0,3,66,3,1,0,41
0,1,4,0,21,12,3
28,12,93,6,47,19,0
15,49,106,40,4,10,12
1,11,19,23,2,1,59
0,2,149,2,1,0,10
14,2,10,0,47,12,0
29,1,46,15,42,14,1
3,19,54,41,2,2,44
1,7,7,4,1,1,39
2,1,11,1,4,0,3
18,2,37,1,46,11,1
26,30,59,30,18,27,10
2,13,8,42,1,2,51
1,1,14,4,1,0,10
1,0,115,1,21,4,0
28,9,82,1,57,20,1
13,42,4,40,4,7,39
1,20,1,27,1,1,39
0,12,67,2,2,0,3
9,1,92,1,44,3,1
41,54,65,11,36,33,9
11,49,4,49,2,4,50
1,5,0,6,1,4,24
1,1,177,2,4,1,2
19,2,34,0,45,2,1
23,13,5,29,20,21,23
1,58,17,38,1,20,55
1,10,9,2,0,2,6
2,1,25,0,20,1,0
34,17,108,3,41,6,0
15,45,126,46,5,25,44
2,11,26,26,0,6,46
1,1,9,2,1,1,2
9,12,8,0,34,1,1
36,16,106,15,27,9,5
12,2,45,41,2,22,56
1,0,48,4,1,3,26
1,1,8,1,15,1,2
23,21,4,2,53,1,1
23,19,36,25,8,3,23
3,3,97,38,0,17,62
1,1,115,3,0,7,6
3,25,18,0,14,2,1
35,18,1,1,45,1,6
14,23,45,37,7,5,45
2,2,79,25,0,21,52
0,2,11,1,1,5,2
8,40,124,1,32,1,0
39,39,23,10,31,1,8
13,2,1,48,2,18,57
0,2,3,7,0,33,26
1,10,42,2,9,4,1
18,32,119,2,39,2,0
31,20,169,28,18,1,21
3,2,26,38,2,19,64
1,0,4,3,0,17,6
3,20,45,1,16,1,2
25,21,61,6,40,0,2
16,2,6,46,5,2,44
2,1,2,21,1,29,39
0,2,7,2,2,17,2
5,23,42,1,40,1,1
31,11,47,15,33,1,7
9,1,79,46,3,4,60
0,1,33,6,0,15,29
0,15,58,0,5,5,1
2,24,87,0,43,1,1
26,4,10,31,25,0,16
22,1,59,36,3,8,55
2,0,53,2,0,21,5
1,19,12,1,16,4,1
14,21,11,7,40,1,0
30,1,38,38,5,1,44
3,1,20,25,2,8,50
1,5,3,1,4,23,4
1,25,20,1,33,6,1
19,10,35,12,35,1,5
29,0,60,49,3,1,55
3,0,64,7,1,9,30
1,13,4,1,3,23,1
4,31,7,0,32,8,1
31,3,24,24,19,2,19
14,0,15,45,2,1,52
1,1,3,7,0,2,6
1,16,27,3,13,23,0
27,20,95,1,46,8,0
36,3,45,35,3,1,38
2,0,17,28,1,1,44
2,4,42,2,0,7,3
0,23,28,0,32,17,1
23,7,46,15,41,16,4
21,1,15,50,3,2,50
2,1,7,8,1,0,27
1,7,56,0,1,13,2
8,32,43,0,42,28,1
35,6,15,34,26,3,23
17,3,4,43,2,2,61
1,0,54,4,2,1,9
0,2,6,1,24,16,1
12,30,5,6,43,21,0
32,12,2,46,4,2,40
4,1,1,33,0,1,47
1,0,7,1,0,1,3
1,8,30,1,28,24,1
17,22,10,12,31,10,5
33,4,0,47,3,1,54
5,1,1,7,0,2,27
1,0,9,1,6,5,2
4,9,22,0,37,33,0
33,21,5,25,21,9,25
13,4,1,53,0,2,60
1,1,1,4,1,0,5
1,1,9,0,15,1,1
15,10,33,0,51,45,3
32,22,9,35,6,8,54
3,1,1,26,0,2,51
0,1,2,2,2,1,2
1,0,12,0,42,1,0
20,18,28,12,48,32,3
27,20,4,49,4,12,49
3,1,0,7,0,1,34
0,1,1,1,1,0,2
1,5,19,1,36,9,0
25,23,24,21,27,26,18
16,9,3,47,1,4,61
1,2,2,6,0,2,8
1,1,6,2,24,1,2
6,2,31,3,45,14,1
26,26,21,41,5,24,41
19,15,1,30,1,1,55
0,0,0,2,1,0,5
0,1,9,0,29,0,1
21,8,28,8,35,23,3
24,27,11,55,3,22,50
2,5,1,17,0,1,32
0,1,0,1,2,0,2
0,0,5,1,50,8,0
28,11,13,19,23,40,18
15,27,2,42,1,13,57
0,2,5,5,2,2,7
0,2,15,0,21,0,2
8,1,2,1,45,13,2
32,16,2,41,5,43,40
6,18,4,35,0,3,48
0,0,1,2,1,1,4
0,1,25,0,38,1,1
15,0,8,7,49,36,3
42,22,9,48,3,21,56
3,12,12,16,1,1,34
1,2,1,1,6,1,2
1,1,1,1,46,2,0
24,12,0,26,29,29,19
35,23,16,49,2,17,62
2,3,35,5,0,2,7
1,1,2,1,7,1,1
5,1,37,4,45,11,0
33,18,146,44,22,31,46
19,15,12,26,2,3,51
2,2,1,2,2,1,4
0,1,1,2,29,1,2
11,1,11,5,33,23,3
36,24,2,40,3,26,47
5,11,1,20,1,2,33
2,1,3,2,4,0,2
0,1,6,2,47,4,1
20,4,35,16,25,27,18
25,29,7,46,3,10,60
3,6,2,6,0,2,7
1,2,1,0,13,1,1
1,1,4,2,63,15,2
29,7,28,38,11,34,33
25,26,10,31,1,4,53
1,9,1,3,0,2,5
2,0,0,0,38,1,2
5,1,10,14,27,23,2
33,10,27,49,3,22,55
9,28,1,9,1,2,30
1,4,1,2,21,2,2
1,1,2,1,57,2,0
8,2,20,21,7,23,16
34,14,21,36,2,15,62
10,27,2,3,0,2,10
1,3,0,0,31,1,2
1,2,8,1,38,5,5
16,0,26,21,3,29,53
32,26,7,36,0,5,30
2,16,2,1,1,0,2
1,1,1,1,40,2,1
0,1,8,6,27,17,18
31,5,28,59,3,28,62
20,29,7,24,1,4,9
1,17,2,1,14,0,0
0,0,2,1,47,1,0
6,0,9,18,8,20,36
31,14,26,94,2,34,56
12,24,9,8,0,2,4
2,2,2,0,32,1,0
1,0,1,0,42,1,2
13,0,11,28,4,33,50
41,17,34,36,1,22,41
5,16,5,4,1,1,2
0,2,1,1,43,1,1
1,1,2,8,31,15,16
24,6,18,45,3,37,62
20,26,27,18,0,4,8
2,5,3,2,10,1,1
1,1,0,1,55,1,1
9,1,4,19,8,25,37
36,19,22,45,2,26,56
15,29,15,5,0,1,4
1,2,2,1,24,0,1
0,0,0,1,42,3,1
11,0,9,32,5,34,52
30,15,31,33,2,22,39
3,22,6,3,3,1,3
0,0,1,1,40,1,0
3,0,2,7,29,9,16
26,0,12,52,2,34,60
28,20,25,17,1,7,9
3,11,3,0,13,1,2
1,1,1,1,40,0,0
5,1,1,22,9,9,36
36,12,19,43,2,43,51
10,32,28,4,0,11,4
1,4,3,1,24,1,1
1,1,0,1,49,0,0
15,1,1,38,4,13,50
33,11,26,38,1,29,36
2,19,21,2,2,3,2
1,1,1,0,45,0,1
1,1,1,6,32,1,19
30,1,9,47,2,31,68
27,20,41,17,0,27,9
2,15,13,2,12,2,1
0,3,1,0,56,2,0
2,2,1,19,9,9,35
28,3,19,40,1,33,57
16,26,28,5,1,8,5
2,15,1,0,27,1,0
1,1,1,3,48,1,2
12,0,1,36,4,28,54
42,13,25,35,1,38,34
5,23,19,1,0,3,2
2,1,3,1,40,1,0
2,0,2,5,33,1,15
19,1,3,46,3,18,60
30,23,26,22,0,26,8
2,25,8,2,10,2,2
1,3,1,0,43,1,2
1,0,1,18,6,0,32
30,4,7,53,1,15,42
15,24,30,7,0,28,3
0,7,7,2,26,2,0
1,2,2,1,40,1,3
19,1,0,37,4,17,59
28,6,6,42,0,35,41
5,24,30,4,3,3,3
1,8,12,1,41,0,0
3,2,0,3,26,1,13
38,1,1,41,2,20,55
21,6,14,21,1,27,6
2,25,22,0,23,2,1
1,6,1,0,62,1,1
3,2,1,19,7,0,32
33,2,9,40,2,29,49
18,4,25,6,0,29,4
1,26,9,0,17,1,0
1,6,2,1,47,0,7
8,1,1,34,7,2,51
37,1,1,32,1,31,34
6,6,24,2,4,11,1
2,31,21,1,38,1,0
