HandOpen,HandClose,Wrist Flexion,Wrist Extension,Supination,Pronation,Rest
47.132272966189426,42.838721728108,55.560334009329104,54.793524100596684,51.7871617332496,10.264381519056023,6.361316714932359
47.122291125713964,42.90235357470633,55.13918890596011,54.145940009166694,51.60179306053215,10.320236526176474,6.36193780607296
47.108584353765565,42.96608400924559,54.69198140630845,53.49128886148058,51.417168924924084,10.378045767224929,6.359439649807798
47.09169493402646,43.02962225009701,54.218953061567404,52.82783759459984,51.23415191048354,10.437696639687495,6.353798348650527
47.07216420558655,43.09289975630951,53.72056491537992,52.153977414995346,51.05353854026231,10.499059512036267,6.345007952232484
47.050546373522515,43.15611519857681,53.197525365649845,51.46823318909149,50.8760935105471,10.56198250004558,6.333078023196417
47.02740630929386,43.2197393746659,52.650770061363545,50.76927216077215,50.7025964366283,10.626286436360818,6.3180313734101885
47.00330009608193,43.28447389566383,52.08142101790957,50.055909977007076,50.533866644306514,10.69176215640616,6.2999026436168615
46.978774447843605,43.35118234993692,51.49074456821091,49.32711335803541,50.37075638553055,10.758170306987019,6.278736908225546
46.95440453240772,43.42082128085514,50.88012597732546,48.582001223289694,50.214129564346116,10.82524271937445,6.2545880441442
46.930836810704186,43.49439133028091,50.25107755899016,47.81984577169435,50.06484371899168,10.892684265944336,6.227517603601285
46.90880003218552,43.572904135885,49.605271487097255,47.04007310867963,49.9237506485208,10.9601755269346,6.197595733798794
46.88908856730384,43.657345840401256,48.94455781990565,46.242262276482506,49.791726954141126,11.027377329441032,6.164905228418452
46.87254392862324,43.74863252283271,48.270942525053115,45.42614231967488,49.66971523486649,11.093937040123144,6.129547098416031
46.86004601721949,43.84757435867803,47.58653991268861,44.591587930090455,49.558737513148685,11.159495935601976,6.091644281604647
46.85249830296268,43.95485994434714,46.89352351734782,43.738614680826785,49.45987505696661,11.22369720699934,6.051341843721216
46.85079214811719,44.07104785008398,46.19408429773053,42.86737508576457,49.37423996861969,11.286192998411174,6.008804825009645
46.85576054709447,44.19654877544351,45.49039410080537,41.97815593548064,49.30295130083166,11.34664864172528,5.9642158006984545
46.86813694784963,44.33160293657821,44.784571170737365,41.07137576249867,49.24710629784659,11.404744122725093,5.917773038136789
46.88852485858383,44.476270521070106,44.07864832594779,40.14758108822759,49.20774178155105,11.460173802455909,5.869688743324516
46.91737732469094,44.63044047859498,43.3745479564326,39.207441996071466,49.18580322533004,11.512645531620265,5.820186982476149
46.95498240259389,44.79384185339974,42.67406849053464,38.25174829812686,49.18213924754235,11.561881586694476,5.769501083353884
47.0014570686008,44.9660425542091,41.978881605568766,37.2814052872571,49.19751781421345,11.607626487673967,5.717869962790714
47.0567553383455,45.14643876568042,41.29053128297202,36.29742704028352,49.232653136022684,11.649665015272312,5.6655340344908875
47.12068381765589,45.33424579009941,40.61043296683523,35.3009282298961,49.28822782402056,11.687843590243222,5.6127325960861585
47.192911699818275,45.52849586783144,39.93989076092714,34.29311755812005,49.36489073348508,11.722082040183508,5.5597031383069755
47.27297418264026,45.72804224638096,39.28013951312755,33.275293835499305,49.46322958640767,11.752371414413473,5.506681144149654
47.360276573879865,45.9315694700516,38.632386700488254,32.24884386906323,49.58373530763328,11.778765384693545,5.4538989300302845
47.45410256923464,46.13761895415328,37.99784984084758,31.215241440642426,49.726774388157,11.80137326483438,5.401583448634166
47.55362486572039,46.34464127209783,37.3778227907485,30.176045412237222,49.89257489943324,11.820355090084126,5.34995395659459
47.65791223210275,46.5510767703877,36.77376506816019,29.132893880603163,50.08121928953142,11.835915157292527,5.299220289167732
47.76592938408349,46.75544519778157,36.18735381070561,28.087493160821776,50.292643254929644,11.84829193418443,5.249583285992576
47.876535751941006,46.95640396272737,35.62046336879833,27.04160354673761,50.526646099329426,11.85774554840795,5.201238859299704
47.988490165145414,47.15275988521063,35.07509537040289,25.997025538190798,50.782901489024134,11.864547554966114,5.154383061667037
48.10046207159348,47.34347041917079,34.55329740104517,24.955589820327397,51.060956970488725,11.86897746216978,5.109213266140313
48.2110533234385,47.52765996025671,34.057088996580745,23.919152804087716,51.360229612717426,11.87132481607466,5.065924652381994
48.318831713032026,47.70462975365862,33.58839757021938,22.889596669582605,51.680006164024675,11.871890888508696,5.024705083782467
48.42235951898461,47.87384220880316,33.149004007002304,21.868828633775586,52.019446238356004,11.870985520118174,4.985730792537518
48.520203327259274,48.034894477980934,32.740498140545704,20.858773388052686,52.37758388402852,11.868919368473058,4.94916307620132
48.610934413386474,48.18750230188659,32.36424375962016,19.861358225833705,52.7533262129046,11.865994428254139,4.915145345710133
48.69313162995333,48.33149254688164,32.02135246198006,18.878496029355855,53.14545321526179,11.86249520508077,4.883800525283089
48.765385941967985,48.466787702429336,31.71266473055852,17.91207079646782,53.55261886396948,11.85868113161507,4.85522988453894
48.826302898929086,48.59338075430041,31.438735860612724,16.96392597821813,53.973347755448984,11.85477961054546,4.829514701920467
48.87450329849949,48.711318828035665,31.199826366907743,16.035852697983824,54.40603053439424,11.850979586009707,4.806720495373447
48.90862363565116,48.82070559734047,30.995898540730025,15.129576290107691,54.84892755282449,11.84742705099595,4.786900982872301
48.92731696507746,48.92171105049502,30.826620966259792,14.246743178448291,55.300184133625535,11.844224693655626,4.770099187768089
48.92925468113726,49.01456900973108,30.691381930817546,13.388910295469026,55.75786727563972,11.841436865975544,4.7563463371817996
48.91313150316058,49.09955488318808,30.589308268246825,12.5575375880489,56.22003654488416,11.839098710095708,4.745660883410063
48.877675469341185,49.176957787876056,30.51928223824725,11.753983469899214,56.684825291603815,11.83722624221391,4.738048466320325
48.821660112951264,49.24706480279285,30.479953411351595,10.979501031327809,57.15048118179676,11.835823537014784,4.733502385092
48.74391388919624,49.31015526602252,30.46974899469412,10.23523199610133,57.61535190259401,11.834885804932473,4.732004217882731
48.643325166974066,49.366489975651064,30.48688597072484,9.522198997963875,58.077849762948155,11.83440056075477,4.733523750339883
48.5188447310183,49.416291165469325,30.52938546417011,8.841299258835946,58.53642705110528,11.834347763800347,4.7380176767723645
48.36949026429229,49.45972320466894,30.595088682620002,8.193300952077047,58.98956740929684,11.834698313437347,4.745428284765017
48.19435817420524,49.496882150952075,30.681674401271454,7.578841363878501,59.43579047096006,11.835412323674245,4.75568351967366
47.99264157684335,49.527795772874036,30.786678741284025,6.998425562472507,59.873669838169924,11.836438480350589,4.768697920112659
47.763645486960364,49.55243436117332,30.90751766255402,6.452424925994158,60.301859056931036,11.837713090279252,4.784373181038555
47.506796539281055,49.57072791893951,31.04151136464369,5.941076497751267,60.71911361127836,11.839157153540558,4.80259868992469
47.2216528559299,49.582581262297545,31.18590852913846,5.464485980822881,61.12430015275927,11.840672437729117,4.823253130453441
46.90791334440678,49.58788663954475,31.337908427462427,5.022637008836268,61.516405908828354,11.84214008290973,4.846206943531237
46.56542042282275,49.58653669280085,31.494680924152348,4.615405613140497,61.89456747464297,11.843424844064923,4.871324644291376
46.194155849579914,49.578432061241,31.653386314051183,4.242574298419843,62.25810084231967,11.844383340067724,4.898466178393298
45.79423425417363,49.56348028030493,31.81119682936217,3.9038403506484167,62.60650264023509,11.844870295666228,4.927486667419687
45.36589775688421,49.54159314951313,31.965319367437974,3.5988178790505656,62.939429719546986,11.844739252431228,4.958234448636989
44.90951103890893,49.51269183547575,32.11301699600947,3.327037360626206,63.25667753007662,11.843839303318795,4.9905483126907795
44.42555457432802,49.47672198256208,32.25162778130269,3.087947436157727,63.55815966118905,11.842010413458768,5.024255506734661
43.91461540983291,49.43366925359501,32.37858140241287,2.880921576011859,63.84388642305241,11.839079043656957,5.059171771085371
43.37737639406919,49.383562180427866,32.49141408492965,2.7052680063957917,64.1139459145047,11.834855477435664,5.09510359593586
42.81460571054448,49.32646077532085,32.58778162311908,2.5602382681491336,64.36848684377074,11.829133697026373,5.131851725488093
42.227148093414286,49.26244222365412,32.66547045445881,2.445031462068027,64.60770289412183,11.821693641023868,5.169214413069668
41.61591666162732,49.191592286837555,32.72240758792742,2.3587957778864634,64.83182738417683,11.812305932968588,5.20698974862542
40.9818840909976,49.113997317695876,32.75667004513771,2.3006310965920007,65.04113706006558,11.800741675485394,5.24497814319222
40.32607453382695,49.02973191454087,32.766493533352296,2.269593979609987,65.2359492829866,11.78678770049182,5.282986797111495
39.64955797001661,48.93885015798903,32.750279849117305,2.2647018752776047,65.41661356076908,11.770259763660018,5.3208358421429365
38.95344629310301,48.84138685853084,32.70660274752293,2.284933291684591,65.583516577483,11.751006762907856,5.358362619033595
38.23888999165524,48.737360480206036,32.63421194035408,2.3292256893187453,65.73710134701743,11.728907933927339,5.395421231588883
37.507074757072225,48.62676684661313,32.532035377057746,2.396475006695851,65.87787663199813,11.703867587498902,5.431878919154503
36.759216933154164,48.50956547114694,32.399181038369775,2.485537820505028,66.00639908165385,11.675809944803955,5.467612596920333
35.996557487435346,48.38566733768448,32.23493897508372,2.5952347447783115,66.12323958997831,11.644676701113125,5.502506673663902
35.2203554925404,48.25492685753686,32.03878255149885,2.7243539067426217,66.2289650994402,11.61042833412023,5.536451948796087
34.43188261494216,48.11713650898056,31.810367643915395,2.8716546307545388,66.32414618326499,11.573047615419663,5.569345949859844
33.63241968390303,47.97202844949713,31.54952948134329,3.0358721086352465,66.40936317539933,11.532544563760592,5.601093895835157
32.823254556634964,47.81929026537412,31.256277317647033,3.2157228585484994,66.48518878216427,11.48896137389844,5.631608255523118
32.00567926414291,47.65859028332147,30.93078780378082,3.409909980498074,66.5521595240329,11.442373276136916,5.6608081116462365
31.18098616136059,47.48959795420075,30.57339806304834,3.6171276692119396,66.61075633384877,11.392883856549666,5.688623382462888
30.350466125224585,47.311994183172175,30.18459848157058,3.8360645543215086,66.66139695156289,11.340618208621272,5.715005223219941
29.515411789403245,47.12547747325162,29.765025229984996,4.065405671107041,66.70442880456247,11.28571860735405,5.739936118598785
28.67712382766968,46.92976924937495,29.31545334773436,4.3038338725122,66.74011788277144,11.228344461952954,5.763433010925395
27.83691562261874,46.72461759990471,28.836790653102018,4.5500317597283315,66.76865466286813,11.168672759083183,5.785543703320472
26.996114160812684,46.50979856576586,28.3300715963075,4.8026854059943895,66.79019570832548,11.106894677472486,5.806341188056206
26.156056946959996,46.28511552738359,27.796450201530764,5.060491960651817,66.8049124169021,11.043209658454947,5.825919602120196
25.318085653854364,46.05040123240436,27.23719209573181,5.322171269551892,66.81300315206312,10.97781992754521,5.844391692184136
24.483538781826663,45.805527473182,26.653665912674747,5.586477477163851,66.81466685282123,10.910925608053113,5.861885502146719
23.65374520823392,45.550421478162704,26.047334187417608,5.85220676368822,66.81006314299033,10.842720130514463,5.878539652267117
22.830018527885503,45.28508229172817,25.41974398471354,6.118201251472769,66.79927721173709,10.773386508162197,5.894498484585974
22.013651147800985,45.00959027990995,24.772516928939307,6.383350526017964,66.78229932405483,10.70309439121755,5.90990812228253
21.20590743670057,44.72411279826427,24.107337840377618,6.646591720618137,66.75902000128042,10.631997683157259,5.924913202859464
20.408016060014937,44.42891410715666,23.425942851449527,6.906908963805436,66.72923467983429,10.560233076411743,5.939653268665006
19.621162307698476,44.124364671339706,22.730109358739583,7.163332446694441,66.69265654778295,10.48791964947314,5.954258537032212
18.846481759893805,43.81093883404376,22.021648760493,7.414937056111622,66.64894175257766,10.415159217168615,5.968846193049343
18.085056372084164,43.489200886631814,21.302400273163638,7.660840808266621,66.59772879852446,10.34203662788581,5.983519080141768
17.33791247101152,43.15978545642446,20.574223471866837,7.900203278776472,66.53869223471118,10.268620298517774,5.998367329826562
16.60601953879494,42.82337459554852,19.83898955662704,8.132224595556547,66.47159956820101,10.194967009408945,6.013470475811275
15.890289399335607,42.48067292146278,19.098573542039826,8.356146258677066,66.39634113527951,10.121134023915243,6.02889722660259
15.191575352156454,42.1323841383208,18.35484847716017,8.571253836152101,66.31293710383572,10.04719303754868,6.044703205201991
14.51067061563265,41.77919125061378,17.60968053695404,8.77687950729613,66.22159470217579,9.973237092686716,6.060928977565123
13.848305981207933,41.421740145639696,16.864923216288545,8.97240320295878,66.12283969037024,9.89937889320884,6.077599855891607
13.205147158688781,41.06062705142801,16.122409610711024,9.157253645302093,66.01761498119134,9.825745082205602,6.094727169415605
12.58179275657347,40.69639442439206,15.3839434864968,9.33091061971679,65.90725691854763,9.752470014402967,6.112309641857838
11.97877352554804,40.32953883668719,14.6512909628786,9.492907780248968,65.79339087504464,9.679690432130089,6.130334303520405
11.396552546205381,39.96052434903242,13.926173480332306,9.642834591677678,65.67781921592076,9.60754272514011,6.148777967842486
10.835525950671004,39.58978985015718,13.21026150723074,9.78033695643543,65.56242413831463,9.53616315423097,6.167610101301369
10.296024241444119,39.21774756141669,12.505168532471894,9.905116855298608,65.4490899192309,9.465688182009625,6.18679611090033
9.778313978752932,38.84477734979507,11.812445248299364,10.016931286301444,65.33965571957195,9.396252983382398,6.206299159329503
9.282599237828583,38.47121963888114,11.133574255684117,10.115590745674757,65.2358977963985,9.32798984559063,6.226079667089327
8.809022623429213,38.097367604939876,10.46996542635637,10.200957592889567,65.13951788694914,9.26102785678376,6.2460936175107165
8.357665812885413,37.72346127232348,9.822951484889778,10.272944851368898,65.05211924840496,9.195492295086169,6.266291275745053
7.928549885442959,37.349689269714666,9.19378359315449,10.331516292216865,64.97518215865269,9.13150202253321,6.286616547917618
7.521636737055142,36.976200915121794,8.583627037625499,10.376687519506795,64.91006411549473,9.069166110849753,6.307006071820848
7.136832622090846,36.60312072822329,7.993557513312628,10.408526181809517,64.85802932088433,9.00858166563731,6.327387574663511
6.7739927371433035,36.23055683334652,7.424558674277877,10.42715060495982,64.82028167095393,8.94983254019492,6.347678623103266
6.432924722105544,35.85860667431493,6.877520397789981,10.432729275879815,64.7979661783072,8.892987860880094,6.367787490534591
6.113390580617263,35.48736477008426,6.353236761992428,10.425484090242001,64.79213337966449,8.838100301968069,6.387616292338261
5.815108942942523,35.116928068973685,5.852404285332055,10.40569668902139,64.8037006204917,8.785204878540496,6.407064437822467
5.537759369189998,34.74739531403667,5.37562128204736,10.373714019224346,64.83343851812718,8.734320501206403,6.426029985249972
5.280988279211341,34.378863420593184,4.9233879324812495,10.32994983452469,64.88197467685346,8.685455801779462,6.444408726423945
5.044416678567459,34.01142323758301,4.496106867021439,10.274881960426185,64.94979393691382,8.63861550588285,6.462093337563249
4.827649643638417,33.64515407281307,4.0940847701485135,10.209047693378091,65.03722630501393,8.59380213152531,6.478974232514154
4.630283840276104,33.28011664060745,3.717534589562856,10.133039167810391,65.14442763077658,8.551013572924541,6.494941527027982
4.451910875851032,32.91634513785104,3.366577866908832,10.04750005509322,65.27136192373993,8.510242516669027,6.509887338738627
4.292118956982202,32.55383959171174,3.0412482833315173,9.95312752610784,65.41778363561127,8.471484946557425,6.523708458139902
4.150493816976699,32.192560905810765,2.741497019101684,9.850680149054972,65.58321369900928,8.434758070441585,6.536308732856436
4.02661768229991,31.832432032135777,2.467198215747438,9.740982542172137,65.76691401595302,8.40011543400678,6.547600224816703
3.9200661230828993,31.47334524809577,2.2181523276081645,9.624918528330353,65.96787173792613,8.367648322886692,6.557503611611522
3.8304028390973377,31.11517012660685,1.9940870835246327,9.503415472412044,66.18479797966079,8.337476985016494,6.5659482295250955
3.7571732793619725,30.757757085957873,1.7946588537361507,9.377426358996694,66.41613489930333,8.309740026068324,6.57287100605461
3.6999000231104495,30.400936213495353,1.6194584565782983,9.247913125722746,66.66006469453866,8.284585183907387,6.578214636518772
3.6580818798244104,30.04451417877133,1.4680212300974733,9.115831950314691,66.91452455735923,8.262161511649328,6.581926527632001
3.631195940269428,29.6882726556166,1.3398357268529733,8.982119958797993,67.17723875855556,8.242612164586276,6.58395892582414
3.61870176211716,29.331970342426885,1.2343471226932061,8.847683721674871,67.44577637141259,8.226067943664665,6.58426973743364
3.6200468464936826,28.975347647932335,1.1509576572634956,8.713390224479166,67.71763334351796,8.212643879412054,6.582823624925346
3.634670523196759,28.618131469509894,1.08902808316533,8.580059350519898,67.99032217766384,8.202439451303043,6.579593033301934
3.662004459356206,28.26003904099234,1.0478807800424885,8.448457073138961,68.2614424690355,8.195538802611358,6.57455872897326
3.7014723208848754,27.900781923018403,1.0268027370864097,8.31929032303364,68.52871560641047,8.19200798107515,6.567709247433141
3.752493509158108,27.540071140250443,1.025047480590569,8.193205107930675,68.78998456272983,8.191890899873385,6.559039183234469
3.8144934235135852,27.177622770020886,1.041836430165893,8.070790470267353,69.04319626385144,8.195206648255208,6.548547102624511
3.8869169770219325,26.813162453163603,1.0763599538349944,7.952589743134421,69.28640116774771,8.2019481116731,6.5362338599493075
3.9692396433320667,26.44642840544271,1.1277780781918623,7.839113792041067,69.51778595457101,8.21208103567044,6.522102085008172
4.060972750091997,26.077173962325435,1.1952213667362899,7.7308476624583875,69.73570767806748,8.225543227333914,6.5061579879641736
4.161662601284308,25.70517131691212,1.2777931950897055,7.628248481302707,69.93870009864591,8.242243508838225,6.48841610255466
4.27088414665752,25.33021723759205,1.374574670466842,7.531738837422669,70.1254654716386,8.262060792240057,6.468905520498626
4.388231242649248,24.95213892804898,1.4846316729197278,7.441699855853136,70.29486762475324,8.284844389010605,6.447674371599917
4.513307816556084,24.570798113973527,1.607021787818009,7.35846552522234,70.44591662293018,8.310415223630516,6.424790468458584
4.6457226337752,24.186095473407622,1.740799981496942,7.282317912256094,70.5777368623433,8.338566311776708,6.4003391921286426
4.785085616607253,23.797977531207074,1.8850230479084074,7.213483362059933,70.68952783167616,8.369062668177008,6.374421443152017
4.931003475650321,23.406443227545584,2.0387521903344723,7.152130836045321,70.7805289072901,8.40164390332977,6.347153827659793
5.083075145345343,23.011547338664787,2.201053656756968,7.098372480944842,70.84999498680249,8.43603279487173,6.318670506822697
5.240887163517943,22.613401339953402,2.37099915691411,7.052266060518668,70.89719159245018,8.471948067172287,6.289123638728076
5.404008168859791,22.212173047595897,2.5476678811354074,7.013819456530227,70.92141275687963,8.509114434294924,6.258681013604184
5.571982948328113,21.808087637665754,2.7301503573075943,6.9829957432044,70.92201435223811,8.547265766345125,6.227523041406403
5.744327756597139,21.401431728440905,2.9175528128286095,6.959716382555789,70.8984583136585,8.586145023815277,6.195840732559626
5.920528702705227,20.992555883841302,3.109000398430768,6.943862736961088,70.85036365841675,8.625506834257875,6.1638331524025505
6.100043398749113,20.58186987814855,3.3036393033544815,6.9352777138481,70.77754818312953,8.665125423550323,6.131703121373824
6.282303669764395,20.16983219180348,3.5006396980863244,6.933768073668793,70.68004590591573,8.704806354304894,6.0996533078641555
6.466717643627405,19.756938840704564,3.6992002539341855,6.93910687440599,70.55810025247115,8.744396124028668,6.067885816009712
6.652672430922601,19.343714507080932,3.898552109978865,6.9510352132630375,70.41213937749379,8.783786014338512,6.036605300836227
6.839538911141798,18.9307070070889,4.097960689918477,6.96926245772761,70.24273782644339,8.822913028457288,6.006022186195367
7.026677925603634,18.518484124764232,4.296726807955866,6.993465553609793,70.05057150057986,8.861761770475068,5.976352779200923
7.213446327434734,18.10762967921669,4.494191496670593,7.023289126730434,69.83637651059675,8.900372825402961,5.947816021185927
7.399201891291417,17.698737232944985,4.689752024555638,7.058346683629973,69.60091457435871,8.93886001631412,5.9206282159912815
7.583306825998692,17.29240316831252,4.882890778601547,7.098221922943931,69.34494257835412,8.977424354789942,5.894996872187663
7.765130514246602,16.889220830687332,5.07320254688445,7.1424705671523325,69.069194198161,9.016351399834747,5.871114339226962
7.944051729117794,16.489775081117962,5.260402572341635,7.190624121796495,68.77438144690633,9.055994205880527,5.849151668477352
8.119459861711682,16.09463604427941,5.444314589715786,7.2421955899857995,68.46120962432188,9.096750682856143,5.82925318977318
8.290755337763628,15.704352706640039,5.6248498067075205,7.296686176945542,68.13040170412837,9.139041338843514,5.81153233337117
8.45734978868042,15.319448127648494,5.801984874683069,7.353592037105168,67.78273048593366,9.183290805324654,5.796069654436629
8.618666442644516,14.940417137885996,5.975742206126726,7.412409741541963,67.41903693696308,9.229913435155874,5.7829150227348025
8.774141111316494,14.567726518995874,6.146174137912202,7.472639810339762,67.04021666828916,9.27930098727698,5.772094825736515
8.92322352527066,14.201816669495294,6.3133507571239935,7.533789159689658,66.64719044577717,9.331811295709453,5.763620719363441
9.065378808771126,13.843102562504448,6.4773503744379495,7.595373038895114,66.24088515773306,9.387758508063998,5.757494625137721
9.2000895952848,13.491972894331033,6.638252185198859,7.656916798385001,65.8222390513742,9.44740616731316,5.753708958794944
9.326859313872898,13.148789672644378,6.796130711497758,7.717958986083746,65.39223637758425,9.510964405148234,5.752245002704794
9.445216647641098,12.813891155162741,6.951050720224044,7.778056424873202,64.95195774033833,9.578590588714908,5.753071157832501
9.554720326250143,12.48759679688394,7.10306168504426,7.836790002409559,64.5026122926856,9.650389845256967,5.7561410076743345
9.654963014969145,12.170210498120758,7.252192400241271,7.893769711899843,64.0455336401742,9.726413227662462,5.761391415987647
9.745573842645237,11.86202213273434,7.39844665268964,7.94863748764641,63.58215034241456,9.806656073328037,5.768741247641769
9.826220298345952,11.563311158819022,7.541800001632016,8.001067224123618,63.11394525938969,9.891059316530608,5.778091455151109
9.896610641355107,11.27435469613426,7.6821972856250085,8.050763559683844,62.64241534109282,9.979512164750666,5.789327248171044
9.956497203659554,10.995436783031636,7.819551213772164,8.097461008352457,62.16904501403943,10.071854545895494,5.802321538535593
10.005680466665657,10.726851902908262,7.953743263404658,8.140922966060742,61.69529366607545,10.167884390795633,5.816937216350162
10.044014201049805,10.468899541569936,8.084627028159298,8.180939395171135,61.22258860060679,10.26737703752411,5.833026822994744
10.071411066195274,10.22187325561408,8.212032327791619,8.217323184159392,60.75231971157207,10.370111501014339,5.850430799562311
10.087846129586092,9.986049909953465,8.335768549242312,8.249906695804984,60.285830494958745,10.475886172960001,5.8689767894911045
10.093356400183788,9.761681816329048,8.45562746998965,8.278539738518647,59.824401351544346,10.584515717771858,5.888481188419411
10.088037461823381,9.548991387826332,8.571387670314149,8.303088320128559,59.36922961871824,10.695817405081545,5.908751707640808
10.072039770452896,9.348167956831041,8.682822355769243,8.323432971322246,58.92140976635351,10.809612485410803,5.929590735831325
10.045565902961995,9.159367923070503,8.789709028518637,8.339466470265654,58.48191983051267,10.925790972098316,5.950803094760646
10.008867761782648,8.982718312521985,8.891836847153291,8.351091926546218,58.051628691466426,11.044446806121663,5.972209004723989
9.96224211226398,8.818319959199126,8.989008990105882,8.358222948863851,57.631331672782245,11.165991574446736,5.993655101881484
9.906024379473388,8.666246275899045,9.081041573217036,8.360786994561705,57.22179957652056,11.291164789129645,6.015017282723583
9.84058176375909,8.526539141378393,9.167763021209952,8.35873070506105,56.82381111727662,11.420967830915384,6.036197477291027
9.766307369841181,8.399206050543562,9.249015578635396,8.352024178565644,56.43815168104073,11.556583011378667,6.057118885239929
9.683618072402373,8.284218915740194,9.32465840008591,8.340661841169542,56.065586740435435,11.699302673150443,6.077721241530052
9.59295664937057,8.181512778882748,9.39457186516742,8.324660368115772,55.706825875336634,11.850472720455787,6.097956717668237
9.494793798469043,8.09098450781463,9.458662665722422,8.304055973254616,55.36248832499395,12.011447872769374,6.117787486862562
9.389625916306045,8.012492352310185,9.516869816571552,8.27890256579535,55.03307846039762,12.183551397198434,6.13718441108237
9.277969685891122,7.9458567901324155,9.569172229625469,8.249270629802552,54.71897489722397,12.36803810947697,6.156125035246235
9.160356147890228,7.890862585861379,9.61559481623329,8.215246425199528,54.4204264469279,12.566064918539979,6.1745909109067165
9.03732523557913,7.847261435577566,9.656207681603815,8.176931718503926,54.13754572294554,12.7786686489109,6.192566041998758
8.909421705349196,7.81477575658058,9.691119783436582,8.134444067799725,53.87030081370401,13.006747167684075,6.210037084687926
8.777193337080819,7.793104325596398,9.720477076563052,8.08791699411722,53.618511363801254,13.251041894157341,6.226993754964856
8.641190318785991,7.781928270959958,9.744470804236334,8.037499765990034,53.38185457503752,13.512122154793152,6.243427771853194
8.501963825691101,7.780916457827971,9.763349803802269,7.983357798640569,53.15988016686031,13.790373105706,6.259330894090683
8.360063268423561,7.789729758726608,9.777431192226944,7.9256758258146895,52.95202224218698,14.085987908109134,6.27469387744333
8.216032891103904,7.808021375237488,9.787109449073574,7.864665279654866,52.7575981357553,14.398962896822232,6.289507557459041
8.070408019569069,7.835432188000229,9.7928597310265,7.8005731746318085,52.57579924758638,14.729095079728854,6.3037674070154655
7.923710944540808,7.871584591897553,9.795230626830024,7.733687002122533,52.40568487198063,15.075983427476235,6.317481654073364
7.776447115382562,7.916077943373167,9.794829405526102,7.6643331124834955,52.24618701835304,15.439036571796015,6.330678624484196
7.6291030067096335,7.968485712749742,9.792306052559598,7.592870162216771,52.09612794941688,15.817487038480273,6.343408694653971
7.482146200612015,8.028353308523162,9.788339508200044,7.519680091235621,51.95424104452748,16.210406713938333,6.355742054527632
7.336026328248499,8.095196128629679,9.78362467288617,7.445158830526313,51.81918291502611,16.616717699253016,6.36776672122412
7.19117534191883,8.168498828730304,9.77885751906501,7.369709091332875,51.68953735474021,17.03519967960893,6.379588258067142
7.048006964945163,8.247718219929157,9.774719572417311,7.293736312114547,51.56382068129097,17.464500340186,6.391328429996413
6.906915887404021,8.33229142641451,9.771864310593767,7.217646558385122,51.4404921785358,17.903151255863335,6.403120826535954
6.768277447886118,8.421648500343192,9.77090645730681,7.1418445468838705,51.317964988813365,18.34958395215654,6.415106641640047
6.632447585342826,8.515226579506681,9.77241506580866,7.066730437034766,51.19461350727636,18.802141795184056,6.427435650248163
6.499761662541876,8.612481000586914,9.776909843952398,6.992694714180171,51.06877993448629,19.259089783614343,6.440273150209028
6.37053198971401,8.712890208571713,9.784857785022337,6.9201121424661185,50.938785142672806,19.718624507361156,6.4538075607815015
6.245045965576231,8.815955644552302,9.796668656281218,6.8493369626672775,50.80294404974057,20.178884758071018,6.468251211577433
6.123567339188819,8.921199561745254,9.812690627580734,6.78070028141154,50.65958380279624,20.637966144880743,6.483832004942978
6.0063416309300806,9.028162268934436,9.8332068205582,6.714508493431812,50.50707224681535,21.093941554331646,6.500780460284161
5.893602960301122,9.136398955090806,9.858432457838191,6.651041504864897,50.34386404813516,21.54488111476802,6.519318488456148
5.785577159900287,9.245476231544256,9.888512751809941,6.590550976846322,50.168550218125326,21.988864856481605,6.539655734304985
5.68247949712977,9.354969594535504,9.923521774153837,6.5332595829332,49.97988669744926,22.423990615672825,6.561995005846442
5.58451047121223,9.46446588841138,9.963461812844791,6.479361668615861,49.77679560841832,22.84838475278461,6.586539332617536
5.491853367066027,9.573574952647814,10.008262809204318,6.429024116020668,49.55835190444409,23.260217739968773,6.6134945303994055
5.40467342901345,9.681945701311792,10.05778289831082,6.3823858922132155,49.32377365543454,23.657718880278196,6.643073992933549
5.3231160787892104,9.789275350167351,10.111811682452858,6.339556688967788,49.072429031748406,24.03918533973289,6.67551168953469
5.247303314332853,9.895307837744445,10.170076840755897,6.300615953327688,48.80385598385534,24.40298760610324,6.711073602339049
5.1773308706610015,9.999826529865787,10.232253554871178,6.265612281810424,48.51777579967848,24.747575862655225,6.75005585858025
5.113270134206672,10.102646959453836,10.297974372631955,6.234562610201701,48.21409149752492,25.071489830576873,6.792771177976231
5.0551752736039575,10.203612000645283,10.366835928370934,6.207451418079052,47.89287842551381,25.37337165126043,6.83953140843239
5.0030899082714235,10.302588147090152,10.4384016789154,6.184231482271405,47.5543706548447,25.65197759629316,6.89063095921533
4.9570481410976575,10.399460439044878,10.512203017280601,6.164829974947096,47.19894225384654,25.90618490154214,6.946333164085541
4.917070977538218,10.494125689184735,10.587740856719781,6.149162224335947,46.827090654351,26.134994704137437,7.006860248991802
4.883161218805863,10.586485654166369,10.66448870751623,6.137147567858004,46.43942796981416,26.337533432371842,7.072386996435863
4.855298706198203,10.676442045767947,10.741897781253689,6.128718365963029,46.03667597459468,26.513052828462992,7.143037853122869
4.833437177569471,10.763893140014615,10.8194031645573,6.1238204150936575,45.61966212451655,26.66092741755989,7.2188862698182055
4.817502657786541,10.84872986763917,10.896430932109206,6.122409161094989,45.18931973908289,26.780649581638798,7.299954165041793
4.807392618052817,10.930831026287164,10.972410534476225,6.124444707779123,44.746693727707346,26.87182579520785,7.386210604830451
4.8029770274584145,11.01006072629016,11.046794400587533,6.12988660291616,44.292952063160804,26.93417717434099,7.477571953195512
4.8041036678892235,11.086273278985498,11.11907711714282,6.138689754469776,43.82940263845753,26.967541955085014,7.57390571458073
4.810606722994045,11.159326390224576,11.18880617802801,6.150802023999931,43.357509673162006,26.97187601854908,7.675035616634613
4.822313299761645,11.229094130370685,11.255584134168348,6.166162156892547,42.878900288850915,26.947252248719565,7.780743741361877
4.839044502088361,11.295471357042583,11.319064998714943,6.184696411098786,42.395357415640646,26.893863170289816,7.890769720520679
4.860613403006083,11.358371202866103,11.378950185226428,6.20631392887484,41.90879939314894,26.812029344857685,8.004810177040897
4.886823378048046,11.41772099616931,11.434993845079893,6.230902675972295,41.42124451821172,26.702208390776526,8.122519924416862
4.917466914376637,11.473458997206377,11.487020198356845,6.258327567660876,40.934768351735116,26.564995672303052,8.243514096776702
4.952323493953799,11.525532935207297,11.534939036806824,6.288430577952448,40.451477115501014,26.40111463762002,8.36737051740058
4.991157050896478,11.573900983550105,11.578745426230844,6.321031277655028,39.97350553112058,26.211402115830126,8.493632683193086
5.033714640586244,11.618534564720647,11.618506293553693,6.355926661030878,39.50301231663633,25.9967942260055,8.621814066530266
5.079726283959563,11.659421775131623,11.654345812431743,6.392890698236747,39.042151665132785,25.758317240016236,8.751403332537468
5.128904719032007,11.696570156036948,11.686436367170796,6.431675465608452,38.593039482296795,25.49708536889859,8.88186863425081
5.180945651994512,11.730008997009184,11.714992684735657,6.4720164189985665,38.15773646862085,25.214302756943955,9.012660311489116
5.235531283530069,11.759796742250462,11.740263461390143,6.513641928624676,37.73823628001234,24.91126413597336,9.143214447760066
5.292337688792041,11.786038754759188,11.762519020299608,6.556282212735958,37.336441509855575,24.589350172840998,9.27296048741537
5.351042250171147,11.808906795292339,11.782039033018746,6.599673703213404,36.95413382572578,24.250020324171512,9.401332061335678
5.4113273556475,11.828644175574496,11.799107126291524,6.6435616385816285,36.59295223311081,23.894808926225686,9.527775925519258
5.472880177958396,11.845554167903899,11.814015114571841,6.687705089136721,36.25438114091643,23.52532087965424,9.651756231977984
5.535390891102982,11.859982597592639,11.827069170722373,6.731883058401028,35.93973861025975,23.143219365204367,9.772756137757987
5.598552630831799,11.872302844855167,11.838587829771136,6.77589714425567,35.65015952552404,22.750210399083844,9.8902789761413
5.6620658658528455,11.882904256701769,11.848891443460051,6.819569298074174,35.38658466999549,22.348035395619323,10.003849728315751
5.725646699536087,11.892182164228117,11.85828930068285,6.862736963050238,35.149768369777966,21.938470560114474,10.113016713638606
5.789034975293229,11.900527473029722,11.867068865592115,6.905247911552417,34.94030089800113,21.52332133408713,10.217352207203705
5.851998135166684,11.908315676440047,11.875491281744267,6.946955332088693,34.7586356148526,21.104406976743352,10.316451219769231
5.914330304738749,11.915897492795935,11.88379939700678,6.987713210068205,34.60511485351586,20.683540667663937,10.40992974453259
5.975848561592794,11.923593310789618,11.89223735835596,7.027372715059226,34.479985196554985,20.262511115654775,10.497425034875773
6.036388986094244,11.931692757386585,11.901067641514782,7.065780026858095,34.38339441726122,19.843067708374477,10.578600373603376
6.0958048933965365,11.940458881024995,11.910573195772617,7.1027749825525595,34.31537697852243,19.42690770313183,10.653153411822743
6.153967541990704,11.950132388824223,11.921047368017621,7.1381902981921295,34.27584436257848,19.01566245419443,10.72082237798606
6.2107674834507165,11.960930722280978,11.932780643091242,7.171852102266608,34.264586943373715,18.610882154001104,10.781385942458238
6.266115041872657,11.97304403634297,11.946048534460733,7.203581817280815,34.28127589134699,18.214022903488992,10.834659231318273
6.319939245413473,11.986637271658768,11.961100636298584,7.2331980395393884,34.3254522028644,17.826441229902105,10.880490532987839
6.372185226841902,12.001861646956312,11.978150432273544,7.260517449191824,34.396506106800224,17.449396313733306,10.918759417704273
6.422811219563166,12.018866058606584,11.997366071366065,7.28535573680694,34.493659586244966,17.084054180059205,10.9493743966425
6.4717859431332885,12.03779939582901,12.018862547736797,7.307530026765089,34.61595967405308,16.731490482765906,10.97226927864217
6.519086209634738,12.058805663686831,12.042696168221774,7.326862351615606,34.76227993132246,16.392693621921612,10.987399864731824
6.564695153004585,12.08201751834175,12.068862401769474,7.343182978580193,34.93132271084269,16.068567442439495,10.994744074789084
6.608601941183131,12.107554177452055,12.097297676939851,7.356333826679314,35.12161954417282,15.75993128404464,10.99430607331754
6.650802563266028,12.135531878134007,12.127884300528295,7.366171892533099,35.331535237052194,15.467518861826585,10.986120854093802
6.691300120245006,12.166086139299859,12.16045573297827,7.372570854098023,35.559284227071956,15.191977616026563,10.970256244704792
6.730104022103021,12.199389689530094,12.194799819504171,7.3754203363936055,35.80295904910188,14.933869186983356,10.946812059507323
6.767228977680621,12.235653083379978,12.230662248561368,7.374625032093945,36.06055971146049,14.693672074158068,10.91591663661436
6.80269450525739,12.275111937991944,12.26775749857057,7.3701054693592285,36.33001845644597,14.471784868013275,10.87772181307844
6.836525007396921,12.318011020419991,12.305790479919395,7.361799828132408,36.60922641813528,14.268527240539255,10.832398584561684
6.86874989371893,12.36459103657041,12.344479227077812,7.349664805896973,36.896062694444545,14.084139418087819,10.78013446192636
6.899402787701242,12.415079343291987,12.38356598902156,7.333674593874103,37.18841603130701,13.918781841053795,10.721131833567917
6.928519860256951,12.469683490187387,12.422817147052717,7.313819803371531,37.48419867466844,13.772534913018841,10.655606616961764
6.956139101829026,12.528586249654461,12.462024014957036,7.290108521498434,37.78136122201777,13.645401468648563,10.583787016238116
6.982301859712748,12.59194034345987,12.501017046855383,7.262569068580703,38.077908201954315,13.537317305106649,10.505912370376446
7.007054838252076,12.65986087518937,12.539692721419025,7.231253126123267,38.371907632956706,13.448169381952223,10.422232078400569
7.030449456334193,12.732416467217385,12.578033431795756,7.196238543793917,38.66149172294981,13.37781349606611,10.333004724944788
7.052538241757968,12.809622929830454,12.61610483692555,7.1576308565843,38.94484993542507,13.326083383682763,10.238498044903505
7.07337049464495,12.891440925387172,12.654038833067958,7.115563012594,39.22021962745214,13.292789565378866,10.138990503193668
7.092989194864624,12.97777496465092,12.692017064227684,7.070193882529446,39.485880590994654,13.27771134940595,10.03477373776948
7.111429934212619,13.068471948019566,12.730257948771646,7.021705768723771,39.7401552156239,13.280586268136945,9.926153609173324
7.128721392571677,13.16332132446349,12.769002969541418,6.970300569822099,39.98141056486405,13.301100225605976,9.813448850344235
7.144885854875946,13.262058126782957,12.808500679591297,6.9161947541924516,40.20805808518685,13.338881708360436,9.696988434374155
7.159938676590296,13.364366203342708,12.848990873390267,6.859613699376155,40.418551015746445,13.393502595410759,9.577108733011622
7.173887179682765,13.469879319600244,12.890691343550024,6.8007861402824945,40.61138379378334,13.464483323554148,9.45415026502069
7.186729790282003,13.578180977425639,12.93378740738234,6.739940148092923,40.78509881891177,13.551296570595987,9.328453475098605
7.198454994275837,13.688804888171257,12.97842309860986,6.6773015061363665,40.93830548738414,13.653366477804688,9.200354191663541
7.209039905346028,13.801237669426097,13.024693239649716,6.613093253253732,41.06971417545045,13.770066614017171,9.070180927347813
7.218449504894952,13.914925276347384,13.072637238006001,6.547534964714707,41.178177166149844,13.900722570332102,8.938255622197028
7.2266370016146295,14.029285139763422,13.122236761903402,6.480841962728134,41.262717900657684,14.04461930525764,8.804897177288414
7.233544979265727,14.143724692985895,13.173418311951439,6.413225021405178,41.322538405335976,14.201006479630523,8.670425432512282
7.239107588491547,14.257661700805645,13.226059264106526,6.344890612482778,41.35701025556369,14.36909927465513,8.535162849173767
7.243253835120994,14.370538126689546,13.279994665299727,6.276041313531649,41.365657812361825,14.548080986027339,8.399433190102194
7.245910901821535,14.481823873089569,13.335022273433564,6.206875795910316,41.34813979482952,14.737111142768368,8.263559111627059
7.2470059547393575,14.591013943300716,13.390904634971815,6.137588465913664,41.3042325570232,14.935334252880475,8.127859710369744
7.246465873830396,14.697623801356876,13.447368757164176,6.068369637740243,41.233816312358314,15.141886377426168,7.992647390697505
7.244216652178167,14.801185917568398,13.504105499182494,5.999406945395742,41.136864736191654,15.35590431987566,7.858224227908163
7.240185383841188,14.901250054926646,13.56077069384687,5.9308878697768215,41.01343662043555,15.576538979011682,7.724878795418693
7.234306226057572,14.997387418270408,13.616988392675937,5.863002715408209,40.86366751920297,15.8029649711845,7.592884241564677
7.226528410322624,15.089195171821551,13.672357732301746,5.7959473466432785,40.687761469137584,16.03437918952274,7.462498101687083
7.21682170710964,15.176298461175982,13.726465926006863,5.729925932982971,40.48598421078392,16.269991180036175,7.333963399053051
7.205176445703787,15.258349945517853,13.778904020713197,5.665154986057993,40.25865837570546,16.509013663094063,7.207509563497289
7.191599746352177,15.335028242806008,13.829277332384335,5.601867676132566,40.006159902905246,16.75065811012417,7.0833518347228415
7.176111148411848,15.406036859124718,13.877207563969458,5.54031447874803,39.72891506270553,16.994135371402844,6.9616890384012615
7.15873916497402,15.471104469858604,13.922329993158709,5.480758752985316,39.4273982470793,17.238658147444834,6.842701164985927
7.139519322825898,15.529988723635128,13.964289533434998,5.4234701308149695,39.10212996556963,17.483441027200662,6.726548601654303
7.118495201372839,15.582487977893974,14.002737714083288,5.368718655052543,38.75367390852489,17.72769748990807,6.613372874942435
7.095723243698113,15.628459533090625,14.03733453577089,5.316770296362628,38.38263338463112,17.9706391214909,6.503296730379187
7.071277700988491,15.667833311577114,14.067764158917761,5.2678829904492055,37.98964753163517,18.21148102098958,6.396422464739427
7.04525110834461,15.700612837311315,14.09376510401725,5.222302489798747,37.57538736132173,18.44944935065218,6.292829690413122
7.017751082331646,15.726866434782771,14.115155189852487,5.1802581392185925,37.140555483302286,18.683786192124202,6.1925740494060415
6.988897402630301,15.746714460676511,14.131833920290461,5.141958670986521,36.685896636243235,18.913754435911205,6.095687288501255
6.958820713852012,15.760315230577843,14.14376904936056,5.107588238248691,36.212219896487476,19.138646952994186,6.002178872329408
6.927661743931769,15.767851444825135,14.15098177595871,5.0773040841366175,35.720420583231885,19.357798149021605,5.912040738499551
6.895570400210672,15.76951845533645,14.153536038749973,5.051237231614614,35.21148759439507,19.570591963002553,5.825256036224909
6.862704224588678,15.765513823499239,14.151532115716705,5.029495239759824,34.686498181018415,19.776462601560368,5.74180812279438
6.829225391454404,15.756027437875575,14.145105705354684,5.012164448873614,34.14661596629443,19.974889983330982,5.661684733052865
6.79529682974215,15.74123335553558,14.134433891267745,4.999310295406173,33.593097196018874,20.16539471676882,5.584876909291162
6.761078775544071,15.721285107179742,14.119743451930622,4.990976333598637,33.0272918057821,20.347536424449924,5.511375969491943
6.726725870045392,15.696314340652037,14.101312480338434,4.987183320997929,32.45062939351714,20.520917788525676,5.4411712276255315
6.692384754607378,15.666431018442955,14.079462794425005,4.987928799463458,31.864596368937267,20.685193709237925,5.374249451373825
6.658192929606556,15.631724091626927,14.05454856380585,4.993186704396369,31.27071648102341,20.84007996806051,5.310595612603943
6.624279210575522,15.592262574417173,14.026945118311362,5.002906892571063,30.67054396055128,20.98535410924123,5.250193325585883
6.590765347967465,15.54809640849792,13.997037257518517,5.017014772902523,30.065668336069855,21.120848821717093,5.193023668544719
6.557768298632548,15.499257298990853,13.965206391927861,5.035410919600184,29.457715995990345,21.246448883709085,5.139063384898719
6.525402717031518,15.445761700760503,13.931818035082644,5.057970977279984,28.848336370546786,21.362098738636792,5.088284643977269
6.493783442240736,15.387616337843747,13.897211300484452,5.084546647992892,28.239177475801014,21.46781110933772,5.040656082154619
6.463027659840013,15.324823133362504,13.861690917232472,5.114967573243851,27.631861404072207,21.563664054750035,4.99614284253206
6.433256209408614,15.257381683896146,13.825521742378589,5.149043399934587,27.02796450116966,21.649787768734097,4.954704987483856
6.404593619489537,15.185292128075934,13.788927338501368,5.186566663382816,26.429002247296783,21.726349687772668,4.9162954290322105
6.377166010251222,15.108563972275974,13.752095855900082,5.22731725759673,25.83641729995035,21.793541154211834,4.880858728742478
6.351096338449531,15.027231504972328,13.71519139448927,5.2710670582319645,25.251569940325485,21.851564345296126,4.848332803422619
6.3264985041725375,14.941367516007467,13.678362072552474,5.317582437573686,24.67573162730961,21.900620860842583,4.81865460263188
6.303472534129451,14.85108911617433,13.641739860350718,5.366624486678322,24.110083405338486,21.94090714869526,4.7917664896200325
6.282101823151348,14.756558036697784,13.605436009899105,5.417949000865822,23.555722402469126,21.972616950740633,4.767619014661604
6.262452389419472,14.657977583192197,13.569536916925719,5.471308046452699,23.013674713007273,21.99594212741784,4.7461704142664125
6.2445732602004815,14.555586456570335,13.534101787667106,5.526452802741914,22.48490367173596,22.011067002658795,4.727385739257844
6.228496976527533,14.449651435553632,13.499162930975691,5.5831364562184564,21.970306655800144,22.018163486299063,4.711236769952689
6.214240336709594,14.340459493138392,13.464729433820217,5.641116280214721,21.470706936173332,22.017395864636473,4.697702160454069
6.201805607335941,14.228308208088333,13.430791661704141,5.700153799260754,20.986850467828003,22.00893380746314,4.686766946158914
6.191181431848554,14.113495477739725,13.397322853180539,5.760012445109799,20.519409514908133,21.992963311228554,4.678420719752622
6.182343490161634,13.996311136531073,13.364278334441869,5.8204538927531635,20.068986413102632,21.969688567271575,4.672653934804813
6.175255904644453,13.87703149778535,13.331595534634804,5.881235157055503,19.636112405790115,21.939331510718056,4.6694526103448695
6.169872566081914,13.75591557260945,13.299195894917487,5.942107731683032,19.221244282119688,21.90214448316748,4.66879291263197
6.166136758430911,13.633201788180884,13.266988715456135,6.002818562591443,18.82476230764523,21.858438198915596,4.670637368803722
6.163979550598452,13.509105863751655,13.234879779531216,6.063111705334647,18.44696930046325,21.808605378109274,4.674934390191165
6.163318580042337,13.383820905110886,13.202785486743823,6.12272957797886,18.088089768996813,21.753123124344963,4.681622144911312
6.164058548936025,13.25751864893787,13.170644044578276,6.181413739862483,17.74826850081163,21.692537533034486,4.690634568078419
6.166093803001986,13.130349610361442,13.1384160504747,6.238906365237276,17.42756866048533,21.627441560323277,4.701904547082233
6.169311360277266,13.002442486293168,13.106079089405863,6.294952945648785,17.12597013513271,21.558453131833264,4.715362580929153
6.1735922344010845,12.873905553190347,13.073624159254546,6.349304601467995,16.843368866687953,21.48619717491992,4.730934210612136
6.178811082742646,12.744831445032482,13.04105377308869,6.4017184148085216,16.579576948731564,21.411292227960466,4.748539206876154
6.184835994554964,12.615304481607842,13.008379827144607,6.451956553642032,16.334322755135094,21.33434033255031,4.76809235029641
6.191529627751843,12.48540832709062,12.975626177145688,6.499785920787444,16.10725131784812,21.255920999395407,4.789504150887279
6.198751437157149,12.355231611419141,12.942838649269367,6.5449791919714455,15.897925806878407,21.17659199194478,4.812680294492536
6.2063608976997475,12.224872184212849,12.910092789536273,6.5873172450732955,15.705831061565682,21.09689525361706,4.837520203684913
6.214222298899223,12.094442326499205,12.87749011726056,6.626592142170387,15.530380181021421,21.017360152323352,4.863916400899057
6.222210058304778,11.964073139699723,12.845148685942462,6.662609560593594,15.370923312983104,20.938497971905925,4.891755631532183
6.230212326151506,11.83391504401624,12.813201055191733,6.695190591117414,15.226755321041292,20.860789493599494,4.920921142388072
6.238132443145594,11.704136959108284,12.78180292527433,6.7241736573747986,15.097120177222914,20.784672589518813,4.9512951928616316
6.245888742562168,11.574927508292838,12.751141485614745,6.749416760834141,14.981213222368673,20.710534679690117,4.982760768473708
6.253412856421617,11.446495114335292,12.721433319609607,6.770799261579684,14.878183618766332,20.638709197051625,5.015201533240133
6.2606483085726605,11.319063908839693,12.692913781957863,6.788222556031285,14.78713875296026,20.569474348440938,5.04850075534857
6.2675521986518214,11.192870601787678,12.665824314150107,6.801609825293616,14.707151173503341,20.503056119901036,5.08254104337353
6.274100311786785,11.068168661357099,12.640401807158677,6.81090487675886,14.637267000759914,20.43963541393623,5.1172051599321975
6.280292475360042,10.945236050914168,12.61687360978494,6.816069843636976,14.576514230651899,20.379353326698453,5.152376215588327
6.286154204198776,10.824378514289341,12.595458992515306,6.817082926217919,14.523910450840061,20.322310381791954,5.187936004564677
6.29173403956195,10.705929934249856,12.576371384016204,6.813938901228188,14.478471203674221,20.268563997826124,5.22376253740457
6.29709915397491,10.59025471348553,12.559815644073977,6.80665321915671,14.43921984756496,20.21813407703355,5.259728731814747
6.30233135614816,10.477747514440626,12.54598092817499,6.795266498709318,14.405196461320893,20.17102030035785,5.29570276019211
6.307524963348465,10.368824569046136,12.53503212117871,6.779845853999535,14.375463253925671,20.127219478770456,5.331549347868016
6.312786759171007,10.263910386475638,12.527101223502408,6.760482636631292,14.349107443535832,20.086729780065596,5.367131698258734
6.318234792892641,10.163426328188866,12.522279018599669,6.737288077384082,14.325243381746205,20.049543624051775,5.402313902684593
6.3239932599375,10.067782789263378,12.520607431403207,6.710388757648609,14.303015653856782,20.015637824616945,5.436963030717113
6.330186429965476,9.977372694669846,12.522073857568898,6.679923898970254,14.281604680941742,19.98496438630383,5.470950112976493
6.336937179802179,9.892563206774199,12.526609834268587,6.646044709278132,14.260232632941717,19.957442434999372,5.504149933548005
6.344370794673504,9.813685725390709,12.534095371048828,6.608913642653345,14.238165686384102,19.932953694141116,5.536439992170852
6.35261838924741,9.74102753821378,12.54436612230227,6.568701825639849,14.214712565244298,19.911345852672433,5.567699216942861
6.361814936098074,9.674827842763683,12.557218743450182,6.525585560810103,14.189222495114734,19.892444248726587,5.597806907433002
6.372092783169344,9.61527744547789,12.572413230153725,6.4797438889686925,14.161084730556835,19.876063661741107,5.626641890898873
6.383574987251099,9.562518529761869,12.589674156637324,6.431357592068982,14.129729494205971,19.86201187741262,5.654081468717539
6.396371599385068,9.5166422264984,12.608692396965864,6.3806084347495595,14.094628814644926,19.850086218571924,5.680000219120719
6.410578570269837,9.477685565622313,12.6291280714005,6.327678471924569,14.055296027989883,19.840069425433093,5.704270067660675
6.426276793823281,9.445629925875098,12.650615164194843,6.272751716986521,14.01128471809306,19.831729569923972,5.726763160270447
6.443529804273481,9.420400928038035,12.672767195714016,6.216019321363953,13.96219003827462,19.82482410062761,5.747356842772176
6.462380702370421,9.401868891523005,12.695182879735862,6.157684668527983,13.907654363809552,19.819103687777982,5.76593796958298
6.482849610681807,9.389851834622243,12.717452918393882,6.097963953889566,13.847375531115016,19.814313417125323,5.782404688406401
6.504932036345339,9.384127188545987,12.73917020087877,6.037082235974912,13.781113475543336,19.81019289832992,5.796666532667739
6.528597759866057,9.384453842852324,12.759942746105676,5.975268280828944,13.708691734043564,19.80647590879065,5.808644748502831
6.553790337618259,9.390595481298435,12.779405944356611,5.912751614259394,13.629994130548432,19.802889006220166,5.818274017470525
6.580427415564077,9.402336021842187,12.797230066872,5.849763313273507,13.544960104529842,19.79914907437123,5.825505141393012
6.608401866189688,9.419485879832413,12.813120777494852,5.786538604720179,13.453580721831772,19.794960336976388,5.83030655508014
6.637583878773541,9.441881415301257,12.826815794283098,5.723317357979953,13.355894991546249,19.79001386161948,5.832663350214514
6.667823413985866,9.469381102575383,12.838085078646845,5.660341210476646,13.25198577239818,19.783991840158624,5.832575217415751
6.698952398531873,9.501864078793057,12.84673725862422,5.597850014784151,13.14197523533466,19.776572466253693,5.830054881852258
6.730787236261121,9.539234697378635,12.852625847215872,5.5360804941326744,13.026020813778016,19.767430359828275,5.825126686128321
6.763131827707507,9.581428081065178,12.855649049153191,5.475266446029209,12.904312530959396,19.75623512951965,5.817824630299638
6.7957801601542664,9.628407827893955,12.855745108026147,5.415637355566878,12.777071188552151,19.742654824487538,5.808189994121601
6.8285178437237946,9.680156238350301,12.852887712794216,5.357414647214721,12.644546303965509,19.72636603847426,5.796268788840536
6.8611230491553865,9.73666698295862,12.847082311714534,5.300807834936242,12.507014247111893,19.70706507067012,5.782109381375269
6.89336831203727,9.797945155223985,12.83836225267075,5.2460117444987056,12.364778971521499,19.68447365063598,5.765760705388286
6.9250242460898,9.864007513300018,12.826784686044679,5.193204396695021,12.218175891328501,19.658338351096276,5.747270847462297
6.9558642184331685,9.934875409913001,12.812427133167109,5.142546154203394,12.067574554502142,19.628426741755323,5.726685830366234
6.9856683794356815,10.010563497762648,12.795386666028168,5.09418154991749,11.913375903427157,19.594523785429512,5.704048852000515
7.0142265545613,10.091072367661008,12.775782697211252,5.048244362260482,11.756005659814912,19.55643322720245,5.679399777721504
7.041339884055348,10.176387653292277,12.753759659595161,5.004864440083538,11.595908141593526,19.5139854597407,5.652775664384241
7.0668215438206925,10.266479840827923,12.729484778451349,4.964172715325738,11.433542265354863,19.46704455719199,5.624215367971786
7.090499000254644,10.361299122753934,12.703141306937523,4.926302065406365,11.26937788115401,19.415507573283932,5.593768615785461
7.1122194989649685,10.46076740473087,12.674921405956534,4.891384898217337,11.103890248052378,19.359298323271283,5.561503943157932
7.131855642997442,10.56477276677932,12.645021823214476,4.859549316622066,10.937553607992111,19.298360408723525,5.527510935904299
7.149307809255842,10.673167555291206,12.613642057580353,4.830915543133632,10.770836557227188,19.232652577166444,5.491898436192985
7.1645045928018645,10.785767350005349,12.580982408728545,4.805593705067073,10.604199766335928,19.162150390528815,5.454791762658899
7.177402148508078,10.902348273670777,12.5472399299094,4.7836822322086405,10.43809402244262,19.086853944846922,5.416329965680021
7.1879811291115185,11.022643184423396,12.512602332964486,4.765265571173636,10.272957071918153,19.00679373308288,5.3766640879282654
7.196241692706554,11.146340060174182,12.477241959867223,4.750411527904913,10.109209806657754,18.92202903583246,5.335956934204742
7.202198764725938,11.273084969026618,12.441314664737503,4.73916917952168,9.947252794991432,18.832641295796073,5.294382433439796
7.205878660777964,11.402487570302434,12.404970043043596,4.731567710358962,9.787463295629577,18.73872782521788,5.252122765335055
7.207316869090628,11.534124982931779,12.368371682619628,4.727617529810403,9.630192592233598,18.640400076074435,5.209364239613032
7.206556944734214,11.667543222415798,12.3317135640079,4.727315414622135,9.475764326114913,18.53778618903099,5.1662938435889245
7.203650727964781,11.802259117385484,12.295222964199064,4.730652042190142,9.324474635285751,18.4310329069257,5.123096930189604
7.198659223316384,11.937767507907028,12.259156577605754,4.737617959160557,9.176593509441778,18.320305151902545,5.079955060207938
7.19165290806508,12.07355970685486,12.22379748832436,4.748205861845536,9.032366856462817,18.20578706275316,5.037043058385402
7.1827106101302425,12.20915273805695,12.189449736303539,4.76240900854506,8.89201953111802,18.087685937755367,4.994525886997037
7.171916551138701,12.344118440236093,12.156427191357318,4.780216771485734,8.755758427758472,17.966235196772136,4.952556783968747
7.159356208364368,12.47810268916518,12.125040393895077,4.801609831653933,8.623775170694007,17.84169252793946,4.911277013857067
7.145112366888876,12.610831675201032,12.095584805497149,4.826557206771304,8.496249785821504,17.714333425930423,4.870816404733962
7.1292618053731776,12.742105532436451,12.068331507678478,4.855014975654905,8.373354972248785,17.584442951753086,4.831294252404806
7.111872834365738,12.871785072393306,12.043522787060029,4.886924799382511,8.255257534680036,17.45230752279636,4.792821596407388
7.093004665418508,12.9997788898345,12.021373160673853,4.922211371948087,8.1421147614947,17.31820672876435,4.7555060662300415
7.072708294498012,13.126032040073072,12.00207078129584,4.960781363737645,8.034067690970788,17.182405314103647,4.7194577876972525
7.051026718672511,13.250514677903618,11.985774409750194,5.0025272777769025,7.9312352158626975,17.045146124771502,4.684792519976809
7.027993395221952,13.373211522275355,11.972608742970046,5.0473351274303875,7.833711023978422,16.906644661618465,4.65163029798388
7.0036299816745595,13.494113524769984,11.96266677042237,5.095090772269905,7.741562251268988,16.76708547186468,4.620091367732237
6.9779446262440725,13.613212835562063,11.95602164092582,5.1456815282452455,7.654828631635765,16.62662013353559,4.590291874076854
6.950931566415827,13.730507183074083,11.952737971092454,5.19899416411451,7.57352290383651,16.48536660757129,4.562340640479068
6.922572496026268,13.846019564889517,11.952873429859798,5.254912424630469,7.4976325325650715,16.343411645748674,4.536337035332316
6.892839772786354,13.959822604303211,11.956474256725569,5.313315978010172,7.427120871016266,16.20082014639993,4.512368820796233
6.86170162375498,14.072046862487264,11.963574715541139,5.374080281729216,7.361927194090005,16.057651791521973,4.4905094924344295
6.829128623425355,14.182867853834608,11.97420546233685,5.437075854950749,7.301967052618136,15.913977779053624,4.470815939213851
6.795099198138729,14.292483575430094,11.988405245485408,5.502166683309474,7.247133450346716,15.769891359337961,4.453326962958106
6.759604229638659,14.401093196193623,12.006225625778445,5.569208903488262,7.197298019952571,15.625514720316097,4.438062407352507
6.722652993054803,14.50888072312897,12.027725700161055,5.638050430098936,7.152311796368072,15.4810063847013,4.4250229540090915
6.684278567613103,14.616005335079118,12.052961862512623,5.708530966659165,7.11200553774452,15.336565730316314,4.414191974817776
6.6445387673672505,14.722598436398478,12.08197694549884,5.7804819387140975,7.076189833069112,15.19242907148441,4.405541482904968
6.603513640876121,14.82876370204724,12.114789470211662,5.853726244825408,7.044656143588326,15.048858872981949,4.399041061604578
6.561303030953842,14.934574853327735,12.151384284487298,5.928077473794136,7.017179561691385,14.906132927337868,4.394664462556896
6.518024201923285,15.040069893765367,12.191710493910323,6.003338718319099,6.993522675405149,14.764539216537838,4.392390252285189
6.473807917046499,15.1452450359003,12.235694216807115,6.079301641948524,6.973439609618038,14.624376697887314,4.392198261054883
6.42879357286546,15.250051240197461,12.283262688820619,6.155746332460498,6.95667934358071,14.48595601078825,4.394065645742678
6.3831251255916905,15.35439367837289,12.33436271006978,6.232442363321337,6.942987850414127,14.34959493510144,4.3979644705980485
6.336948267980797,15.458134055029713,12.38896288637929,6.309150843533975,6.9321100605481725,14.21560948992412,4.403860440266054
6.290408128441461,15.5610967639415,12.447045692505293,6.385626850984351,6.923792467881364,14.084303516861452,4.41171233225809
6.243647026507043,15.66307757105637,12.508597581410834,6.461621881825181,6.917785543700159,13.955958431337768,4.421471883026681
6.196802312034672,15.763849913572672,12.573598618734781,6.536885336724261,6.913845007188262,13.830825201613045,4.433082971988591
6.15000431148312,15.863166469353729,12.642011922698023,6.611164125752312,6.911732278309069,13.709119935302217,4.4464797158728215
6.103374671560813,15.960760663572984,12.713776131638442,6.684201572165202,6.911215340472296,13.591021568961148,4.461584668131028
6.057025196731279,16.05635516913132,12.788803483194153,6.755737810448436,6.912070329383749,13.47666999315123,4.478307963668419
6.011056710684864,16.14967679798653,12.866980914114531,6.8255116835358995,6.914082602495694,13.366165142735516,4.4965475376686515
5.965557694936295,16.24046755040884,12.948169440442294,6.8932620842265075,6.917046551338701,13.259567605221916,4.516191316495377
5.920602779838681,16.328485423611312,13.032201637195119,6.9587282907496935,6.920764660194398,13.156900089084719,4.5371239703698585
5.876251695699393,16.413499957332544,13.11888225122883,7.021651247937615,6.92504610112577,13.058148252194885,4.5592388976071225
5.832549985295413,16.495288572684906,13.20799478060991,7.081776691267234,6.929704976542184,12.963259543482346,4.582449247093179
5.789531560166108,16.573633763773987,13.299310128119403,7.138858643713475,6.934558849659362,12.872140757160855,4.606690628952311
5.747221237456111,16.648319689691967,13.392593429545427,7.192662075024993,6.9394278111631245,12.784657740077702,4.631916699756211
5.705636276149599,16.719128755898055,13.487609013426678,7.242965371641744,6.944133599421969,12.700642458812016,4.658094542885611
5.6647878881111415,16.785839752578994,13.584122808730013,7.289563417091213,6.948498515852793,12.619908693360651,4.685203469501933
5.624683112863679,16.848228397362607,13.681901009734162,7.3322702964492645,6.952344200326475,12.542268692198448,4.713235806675998
5.585326282283981,16.90606944133452,13.78070558467786,7.370920011060253,6.955490594328074,12.467542197450708,4.742197112232295
5.546720397005719,16.95913894496217,13.880288116770554,7.405365139179664,6.9577556279450725,12.395557453682208,4.772104277926482
5.508870301176265,17.00721666408579,13.980383906737437,7.435474375399968,6.958955784933187,12.326147818092997,4.802980982216596
5.471787805457914,17.050089304475552,14.080707372612844,7.461129732551145,6.958907790732095,12.259146195621868,4.834851594510827
5.435495861890806,17.08755429702182,14.180948492121038,7.4822243250033384,6.957432142461687,12.194379159150063,4.8677355475438455
5.400031063158888,17.119421765694625,14.280772096295406,7.498661204105095,6.954357947590581,12.131662556123192,4.901643280174901
5.365446470860123,17.145514713553567,14.379823876653903,7.510352529113417,6.949526576735955,12.070799373437016,4.936574220576316
5.331813150612779,17.165673704326778,14.47774247628049,7.517218348051885,6.9427927887215075,12.011579775976143,4.9725170237589404
5.299217487212819,17.179768503193653,14.574171749856902,7.519185487268266,6.934024983643579,11.95378253443342,5.009451520724923
5.267756706982089,17.18770744947063,14.668770243985973,7.516188038374529,6.923105814695139,11.897176905632294,5.0473512269462795
5.237537737386793,17.189437466814077,14.761219049685995,7.508170492210396,6.90993198999616,11.841524461927502,5.086185051259577
5.208680417631088,17.184938833892854,14.85122668624666,7.49509256509426,6.894412731119429,11.786580593640009,5.125917650451708
5.18132066166326,17.1742189911386,14.938527804400895,7.4769336835850675,6.876468238053575,11.732095599329613,5.166508813239311
5.1556097102648515,17.15730456503268,15.02287631300847,7.453696280493663,6.856029263162961,11.677815977725201,5.207912205268963
5.13171031533255,17.13423260642602,15.104038131690643,7.425408174910675,6.833037591139764,11.623487906095374,5.250074165039389
5.109792092197126,17.10504661623816,15.181789047103965,7.392124406913713,6.807446700581249,11.568863939962931,5.292932979167659
5.09002693693091,17.069801147018225,15.25591758630149,7.353928971291342,6.779222688265336,11.513709923350373,5.3364174904852915
5.0725845676264765,17.028569655360297,15.326227464116073,7.310936405374504,6.748345921937995,11.457809505470141,5.380444388240427
5.057627834518647,16.98144645482817,15.39253760356412,7.263291975747443,6.714812568044224,11.400969048573115,5.424915706948778
5.04530806014403,16.928542308487437,15.454684365164363,7.211169192627528,6.678634485769054,11.343024915088218,5.469718185289988
5.035761439748457,16.8699803062422,15.512529724781869,7.154765153102854,6.639837368043394,11.283848613901059,5.51472444703856
5.029107192642679,16.80589474152497,15.565972243499688,7.094296195533282,6.598458689333386,11.2233460136385,5.559794992084894
5.025447457784788,16.736431088723876,15.614953046798387,7.029996430169134,6.5545466029223425,11.161453590186875,5.604780426217642
5.024867949966211,16.661745646907814,15.65945270966613,6.962118886933199,6.5081590796627715,11.098135539622126,5.649524133856501
5.027437883460797,16.58200395587352,15.699481955847734,6.890936583244114,6.459362977241759,11.033381350482983,5.693866361747685
5.033208906115369,16.49737836117798,15.735070560147582,6.816742122193718,6.4082341413935895,10.967201873381189,5.737653721540869
5.042214883989917,16.40804789517191,15.766257131949411,6.7398467430477895,6.354858335877487,10.899623671020029,5.780759843831961
5.054474970938137,16.314201933310873,15.793081283764522,6.660579315609289,6.2993311948739,10.83068313240647,5.82311256766862
5.069999045227353,16.216044277392587,15.815578971440715,6.5792839213070655,6.241756417763311,10.760421843107338,5.864710485057722
5.088791061645416,16.113794243720974,15.833781460497399,6.496315211642641,6.1822433625375,10.688883328420228,5.905619864601897
5.110849562925712,16.00768445204305,15.847716195097085,6.412033228932237,6.120905535908094,10.616110025521394,5.9459604138455875
5.136170062518639,15.897956346540095,15.85740623337947,6.326799891235561,6.0578602403546284,10.542140091769722,5.985890111619167
5.1647506711947315,15.784855012580202,15.862867583590416,6.240977964258421,5.993229434295402,10.467005088673984,6.025592213117697
5.196595932253654,15.668624718749543,15.864106510551773,6.154932335356286,5.927142369281121,10.390729647412055,6.065264903538099
5.231715190544235,15.549505259680979,15.861118911172287,6.069032177237148,5.859738940083315,10.313334659693094,6.105113680732352
5.270117198671471,15.4277292862388,15.853892217188257,5.983651611815482,5.791171238104727,10.234844103674886,6.14534567919114
5.311803777909812,15.30352197850093,15.842407309497576,5.899167762264537,5.721602373132961,10.155291054800324,6.186164451617644
5.356764180793318,15.17710277228631,15.826637577335342,5.815956958970792,5.651203745346745,10.074719257892893,6.227763859644727
5.404972305478024,15.048686022152928,15.806545813523787,5.734390167619372,5.580152439284558,9.993182659740178,6.270321214674394
5.456387791824536,14.918478481957006,15.782081583011234,5.6548282595670525,5.50862942752222,9.910746791498626,6.313991023766052
5.510958250100844,14.786675047270593,15.753180264316104,5.5776170975403385,5.436817778959653,9.82749216159165,6.358900443136461
5.568619138663407,14.653455598799791,15.719763360880096,5.503082153252059,5.364899945797644,9.743516095271776,6.405146772905503
5.629291062668799,14.518984164950753,15.681741354788052,5.431523523507723,5.293054611279621,9.658930544075808,6.452796826410898
5.692876658953488,14.383409597699986,15.639024423016282,5.363213539811439,5.221454044412858,9.573858384861317,6.501887735461354
5.759258710352398,14.2468665352509,15.59154236090362,5.2983984485801985,5.150262186367283,9.488432866676838,6.5524288079683926
5.828298916528997,14.10947605088555,15.539263522795231,5.23730272124327,5.079634317682288,9.402801648872636,6.60440464636106
5.899835761722669,13.971346044713796,15.482202971108336,5.18013273690818,5.009720053777099,9.317131647798718,6.65777926558307
5.973682256729338,13.832571564622615,15.420422705512065,5.127078405503512,4.9406698131264735,9.231611043081655,6.712499081084551
6.049627037460773,13.6932357511735,15.354033358451723,5.078313493526693,4.87264209887718,9.146451468630852,6.768493047041962
6.127439706165669,13.553414126721501,15.28320227860552,5.033995433308726,4.805808047266455,9.061893932425571,6.825671029792823
6.206875913894497,13.413183977270052,15.208163500112702,4.994265127829066,4.740351881185346,8.978213702643933,6.883922148535913
6.287679187592514,13.272634602212475,15.129221409399667,4.959246628472319,4.676468666708333,8.895718120248835,6.943113417446923
6.369582256917241,13.131872250046488,15.046745730178458,4.929045506336359,4.614361375916834,8.814738628471067,7.003088823706305
6.452310137156092,12.99101884556403,14.961159698758399,4.903745657629593,4.554238094057571,8.73562089121202,7.063670028133969
6.535583120739866,12.850207410367606,14.872925527257323,4.883406123613794,4.4963087016768535,8.658714580730434,7.1246604396850595
6.619117627241784,12.709578233009186,14.782537463555952,4.8680593544163795,4.440780904538495,8.584363464540633,7.185852268731573
6.702625713244439,12.569281660179803,14.690528292142426,4.8577112479683455,4.387857824381163,8.512896852585744,7.247032656888674
6.785816086564919,12.429488251593591,14.59747687508987,4.8523426620024095,4.337738389455133,8.444623797174586,7.307985844800636
6.868398241222354,12.290397420760332,14.504001983266047,4.8519110427110945,4.290617830684297,8.379830868553324,7.36849262207165
6.950087587808641,12.152238145769862,14.410744845027638,4.85635092506369,4.24668540594798,8.318783710025915,7.428329342762991
7.030608467883115,12.015264234794516,14.3183504647694,4.865574475138933,4.206120170012104,8.26173165747505,7.487267296406321
7.10969633763056,11.87974749444403,14.227452708540321,4.879473435144785,4.169088204298939,8.20891274953006,7.545073209140168
7.187104783089015,11.74597198364572,14.138663664250052,4.89792084816845,4.135744746153313,8.16055558090272,7.601511215733499
7.262619455241482,11.614233560035025,14.05256518962046,4.920771106014419,4.106241497485913,8.116876242203123,7.656344792692583
7.336071690096759,11.484842642245924,13.969701321786921,4.9478601401126125,4.080734502500505,8.078072794939594,7.709337419246562
7.407343056768247,11.358122747421927,13.890572355274228,4.9790071033834735,4.059387595093115,8.04432149661084,7.760252877092902
7.476360882389276,11.234403005125976,13.815629329934891,5.01401590827198,4.042371066349533,8.01577453458301,7.808856209225504
7.543090914873272,11.114009116149559,13.745266819947155,5.052676236035948,4.029857655204903,7.9925563413829215,7.854914668890914
7.607531126590393,10.997255358020952,13.679815456751829,5.094767231069666,4.0220168191033245,7.974760328989149,7.8981977060436925
7.669706527000414,10.88443744988646,13.619536588909112,5.140065773814017,4.01900810304909,7.962451734192379,7.93847658485054
7.729663644944487,10.775826522951842,13.564619521159562,5.188355913419442,4.020974975618557,7.955676776273653,7.975525071122424
7.787464952294674,10.671664384994024,13.515181517657926,5.239434338050087,4.028039435753969,7.954470318094567,8.009121802368519
7.8431865698736996,10.57215994508614,13.471270537974707,5.293109933840513,4.040296819233062,7.958858519600692,8.039054401236422
7.896921924195614,10.477487891577852,13.432868600693103,5.349199062030131,4.057810883474208,7.968864804087127,8.065124939481036
7.948786923806048,10.387790612583311,13.399893638601396,5.407519996648816,4.080610184029362,7.984524777121782,8.087154641488077
7.998920163017196,10.303181670606396,13.372200837321914,5.4678896238829005,4.108686281196178,8.005899904757383,8.104985571299023
8.047479710844836,10.223748881397986,13.349585360098908,5.530124084555,4.141992968627786,8.03307703805868,8.118479814847886
8.094641610050441,10.149558793998018,13.331785956002255,5.594042629783715,4.1804463899219435,8.066154735533328,8.12751851513356
8.140599636593185,10.080665361975596,13.318487941319065,5.659470377721454,4.2239265960082895,8.105225804530164,8.132002145867563
8.185563087076593,10.01712229060275,13.309326227091203,5.726236334158623,4.272279073625355,8.150362619402577,8.131851371344299
8.229751888607614,9.95899544631259,13.303891782166637,5.794168533732999,4.325314640111684,8.201607015952625,8.127007000576183
8.27339053867089,9.906369386763187,13.301743282848243,5.863090310616659,4.382808997764559,8.258964401024269,8.117428781231908
8.31670335081047,9.859345156125974,13.302419859423914,5.932819329966433,4.444504094104805,8.3224023911087,8.103094200634905
8.359912466502522,9.818035024816924,13.305449133506794,6.00316890340781,4.510111924225709,8.391853345254487,8.083998111406432
8.403237340921844,9.782559951140883,13.310350486999992,6.07394993905798,4.579320164720088,8.467216683965617,8.06015275095097
8.446893133275482,9.753047394974082,13.316641311758493,6.144971490057427,4.651798155510909,8.54835872725072,8.031587253996134
8.491086468184006,9.729625650778619,13.323855479736768,6.216039618593296,4.727201736323262,8.63511257944922,7.998346338120574
8.536009534710184,9.712415431138439,13.331570909970111,6.286956541885995,4.805177224164606,8.72727904157194,7.960488458167639
8.581837002951044,9.701521928296552,13.339429546918929,6.357521390273057,4.885366130598679,8.82462622076082,7.918083817370063
8.628731396714164,9.697031882775434,13.347140713563318,6.427531738361874,4.967410551871395,8.926888261648962,7.871213232557438
8.676855545046777,9.69901696740189,13.35447524073449,6.496785209134111,5.050956993980565,9.033767354583716,7.81996919386647
8.726381779160473,9.707536452113791,13.361257936680607,6.565081930075243,5.1356571014265215,9.144940185803065,7.764458411842032
8.777491385536088,9.722632337331955,13.367358786028127,6.63222832355673,5.221165854835219,9.260064415984708,7.704803349755058
8.830368399286545,9.74432074248914,13.372685662722544,6.698040837088636,5.307138829343256,9.378781849764211,7.641142339244137
8.885192938874733,9.77258921409027,13.377186221543948,6.762347389605964,5.393230239077536,9.500720502292847,7.573630547348083
8.942134958740587,9.807404352988133,13.380859232927119,6.824986247226969,5.47909289323039,9.62549765219091,7.502442410237915
9.001349405531359,9.848725848396697,13.383762805137906,6.885804036822795,5.564379865245819,9.752724888599507,7.427773028110267
9.062975051444512,9.896520481936,13.386009834202829,6.944653903003296,5.648747003871558,9.882023241225797,7.349836628272778
9.127136088475895,9.95077178126176,13.387755484078985,7.001394087069987,5.731856098575487,10.01305181656986,7.268863176915095
9.193942166070908,10.011483218403702,13.389186050236672,7.055887825741033,5.813378936925942,10.145531749469399,7.185095546336611
9.263485272541276,10.078674565733458,13.39051208801044,7.108004872342999,5.893001479596832,10.27924797535288,7.09878811120059
9.335835870331824,10.152373115710471,13.391963620138903,7.157622961536637,5.970426701971974,10.414036598218177,7.010205160957499
9.41103932317045,10.232603559840497,13.393785065459879,7.204627170075337,6.04537575079245,10.549776922175347,6.919617546172948
9.489111025973445,10.319381283626381,13.39622824524982,7.248907571470438,6.117588375631476,10.686396049621848,6.827298468224551
9.570030459777053,10.412711145704279,13.399542980309683,7.290357572624167,6.186823701079962,10.823876832083059,6.733520392380417
9.653738034802483,10.51258710600486,13.403966694947977,7.32887432917672,6.252861525033077,10.962256575903574,6.638553464847216
9.740137558025744,10.618986334992053,13.40971434881579,7.364360581766652,6.3155034706459885,11.101616810291821,6.542664230097411
9.829102341406887,10.731858534536544,13.416969374706579,7.396726401154931,6.374573714491389,11.24207293063247,6.446113932885499
9.920481230635762,10.851117256526024,13.425876980873303,7.42589041983617,6.429919611849351,11.383767537282816,6.349156913142921
10.014102326677534,10.976638325805595,13.436541028025893,7.451782513720589,6.481412075274784,11.526862677095433,6.252039373302341
10.109774650991541,11.10826399590127,13.449024461650167,7.474350047708026,6.528945862836343,11.671525615890422,6.154998064289593
10.207290702143844,11.24580728083826,13.463352544041744,7.493565413023208,6.572440715974539,11.817911064087266,6.058258658422261
10.306431208312228,11.389052328295108,13.479518622754536,7.509429450696032,6.611842742928853,11.966148685274092,5.962033763236348
10.406969306414116,11.53775064561906,13.497491357573683,7.521969397027052,6.647123788407871,12.116342064667787,5.866520547864091
10.508672165065937,11.691616353931108,13.517219109734071,7.531234804227913,6.678278064679719,12.268577611732326,5.771898375011955
10.611301049706235,11.85032538674097,13.538628441121306,7.537293346908708,6.7053173997216815,12.422935060732046,5.678327168453821
10.71461094378808,12.013522711495506,13.561621244212908,7.540225643461815,6.728266779559088,12.579491102492534,5.585947371530674
10.81834996727433,12.180836284188127,13.586078957409349,7.540119487370358,6.747161552392415,12.73831409572908,5.494881760680618
10.922258658802724,12.351890457944537,13.611874813180636,7.537065857552772,6.762046706342783,12.899454035675769,5.405238211800291
11.026069179521636,12.526313577915799,13.638884718697792,7.531157800946128,6.7729770309937285,13.062933722945138,5.317113069431026
11.12950421818897,12.703740974340286,13.666991276273755,7.522490727772385,6.780016498527597,13.228745971322635,5.230597119494799
11.232275425002115,12.883815911284843,13.69608835508614,7.51116263174119,6.783236468200409,13.39685907385584,5.145785609035624
11.334082056415685,13.066188448575094,13.726094140845094,7.497273969449789,6.782713631757358,13.56722758222885,5.062788804606383
11.434610250844766,13.250513033337997,13.756967864871475,7.480927123587352,6.778528725903886,13.739801693296823,4.981737362160316
11.5335321854783,13.436449708450915,13.788717683890644,7.46222553172798,6.770766430429892,13.914531003589653,4.902781034777806
11.630505589066649,13.623670287676113,13.82139491460225,7.4412728250137254,6.7595162306101315,14.091361841875793,4.826083832209688
11.72517669982375,13.811861840483571,13.855082329262324,7.418172123031967,6.74487336784838,14.270228737459206,4.751818783482291
11.817187906186383,14.000722365692772,13.889885355715498,7.393025466834618,6.726939025400094,14.451043167026356,4.680162991829672
11.90618557416264,14.189953553478043,13.925926316921268,7.365933508794408,6.705820148956253,14.63368369627401,4.611292732343669
11.99182302702416,14.379256183329067,13.963336763495853,7.336996093143333,6.681629505432739,14.817988832529903,4.545379069965539
12.073759661234451,14.568328176490244,14.002246341707192,7.306314498210161,6.6544855202229956,15.00375294657724,4.482584383149682
12.151661403080984,14.75686364851686,14.042772685211983,7.273994583382559,6.624511927610443,15.190729161040007,4.4230598247151605
12.225205645284804,14.944552001407594,14.085019504774989,7.240148849565319,6.59183753674987,15.378641581373598,4.366943867181578
12.29408799560831,15.131075866334218,14.129083847533026,7.204897293945385,6.556595139829351,15.567199288844035,4.314361223225236
12.358026454162546,15.31610762717669,14.175063535932095,7.168368606223109,6.518919190626515,15.75610220914169,4.265421016028324
12.416764355790713,15.499306635733495,14.223059063003475,7.130701472077343,6.478944004765179,15.945040539350492,4.220214244931443
12.470075486765019,15.680319779836188,14.273175115804728,7.092044435445458,6.436805121142711,16.133699780225452,4.1788110057904
12.517768427427173,15.858786703350734,14.325524192550759,7.052553893832304,6.392644971964236,16.321779879064717,4.1412578493462755
12.559685963418032,16.03434780650509,14.38022738089719,7.012390726810567,6.346620058819235,16.509024995783182,4.107576539181569
12.595702487064097,16.20664897433881,14.437413329859396,6.971716535391794,6.2989051465197585,16.695253916825447,4.07776521579718
12.625725058860725,16.375339637474386,14.497220080560696,6.930690436486691,6.249693431993604,16.880384281323778,4.051800849619129
12.649699032769435,16.540070043331003,14.559794440915447,6.889466770454063,6.199194751112945,17.064449317526392,4.029641098847627
12.667614832113133,16.70049593512734,14.62528204082157,6.8481948119623555,6.1476332727147565,17.247603296825414,4.011225397665292
12.679512925142289,16.856289338866613,14.693811714670549,6.807021202548375,6.095244384795622,17.4301134800894,3.9964760933245356
12.685485429119648,17.007147237187553,14.765480420559646,6.766092526367115,6.0422698729488635,17.612355935465327,3.985299486677008
12.685673253141465,17.152797404059463,14.840340794275395,6.725555107514409,5.988951639931274,17.794838134575812,3.977586117515915
12.680260814189724,17.293005994213473,14.91839288292614,6.685552808018672,5.9355256913964904,17.97825310383717,3.9732103127858425
12.669473552972653,17.427583556746452,14.999581254738967,6.646224989564127,5.882217526746225,18.163561755586887,3.972029839074835
12.653580434394657,17.556385286557596,15.083795392422259,6.607704779394014,5.8292384911586135,18.352086089409152,3.973886615987867
12.632896894897666,17.679308831157673,15.170869710543018,6.570116398292213,5.776782849023139,18.545564987259358,3.9786081691292807
12.60778181358534,17.796292404871398,15.260583062139888,6.5335715047322624,5.725026321270036,18.746134346071383,3.98600873430467
12.578627300107533,17.907313691533336,15.352664944936384,6.498165893455704,5.6741263975768454,18.956255431966802,3.99589061930813
12.545846544174918,18.01239045479145,15.446818765912553,6.4639773677331664,5.624224104036909,19.178658772043025,4.008047665882482
12.509866219240509,18.111580189297353,15.5427581029896,6.431064894340161,5.575447073219442,19.41636139211319,4.022270785311606
12.471124061937436,18.204974216806725,15.64023275028607,6.399469108708646,5.527913223807845,19.67276802075092,4.038353337179818
12.430065817321873,18.292687454644607,15.739029413492688,6.36921420104072,5.481733116310438,19.95179492746224,4.056094528131172
12.3871376353152,18.374849412860637,15.838955734241594,6.3403110467273365,5.437009428704653,20.2579170540559,4.075300728234004
12.342776904613006,18.451597287114996,15.939822081812993,6.312760632073948,5.393834771236842,20.596096715325476,4.0957853341546135
12.297407382728089,18.523067222892998,16.041427000040954,6.286556180203181,5.352291033457156,20.971641463151997,4.11736785422762
12.251440623966749,18.589384110363067,16.14354686942565,6.261683238371017,5.312451218371761,21.390054650782563,4.139873187293764
12.205278727316447,18.65065741415252,16.245930448544325,6.23811851438603,5.274381112789901,21.856894831298302,4.163131614887073
12.159312691364773,18.70698716266369,16.34830065047643,6.2158289412469525,5.238138767448359,22.377628862463943,4.186978970416168
12.113917480178351,18.758472039526627,16.450365209404005,6.194771903643651,5.203772880588999,22.95747856234542,4.211257356173349
12.069448555738472,18.805209436670154,16.551831867180415,6.174896825981856,5.171321540793839,23.601289639865094,4.235818865183922
12.026241840647822,18.847289760637278,16.652417648532555,6.156148123451177,5.140811700340871,24.313455703845893,4.2605330358177005
11.984615133300952,18.884796987342874,16.75184665159792,6.138468948291201,5.112259534518857,25.09789480191433,4.28529395516064
11.944867574974856,18.91781999685961,16.849841219152058,6.121804302055629,5.085670985752604,25.958032060642417,4.310022593395236
11.907275513186027,18.94646356171971,16.946113297403024,6.106102490950835,5.0610416462404455,26.896762920556707,4.334664636332077
11.872085917034664,18.970848278855243,17.040358701733833,6.09131560648685,5.038357060427945,27.91644572158189,4.359186688339275
11.839511453068539,18.991102408911264,17.132254162505156,6.07740055244122,5.017594863485444,29.018971175750952,4.383572545622625
11.809733122225913,19.007352933259718,17.221455512833792,6.0643211713474185,4.9987279814013155,30.205879074643104,4.407819711187826
11.782910938571195,19.01971857005021,17.30759539363119,6.0520510873287785,4.9817272908723575,31.47846728939223,4.431935748915981
11.75919368257456,19.028304793520736,17.39028078683576,6.0405766653491995,4.966563250830909,32.837848799163226,4.455934290178266
11.738720011994031,19.03320059181143,17.46909239724076,6.029899050024304,4.953206394778871,34.284925168073535,4.479831363261806
11.721613856362953,19.034476314064776,17.543587364924033,6.020034045669403,4.941626342941296,35.82030977015704,4.503643538026537
11.70798159920607,19.032181789861916,17.61330456094941,6.0110091363925,4.931789760661132,37.44427576810435,4.527388937406641
11.697913488709785,19.026346759055986,17.677770180990183,6.002858076040656,4.923658579863002,39.15676030693903,4.551090026039861
11.691485506941996,19.016990240771047,17.73650270866326,5.995615072523528,4.917189420241538,40.95741615902751,4.574775897967305
11.688759964920695,19.00414191308621,17.78901947503853,5.989311450326222,4.912334141665842,42.845678946010494,4.598483428713937
11.689789657878057,18.987864775634577,17.8348495724934,5.983976697306813,4.909040774375533,44.82078839475177,4.622257875404258
11.69462742663875,18.96826393057214,17.87355674030298,5.979643069909963,4.907254204510699,46.881742376822345,4.646152462757416
11.703333455354954,18.94548098612541,17.9047676581093,5.976350171124124,4.906916652235738,49.027247518385515,4.6702263256352925
11.715972861671375,18.919684634411478,17.928195971626863,5.974146570319068,4.907967570254859,51.255721809005536,4.694541544396151
11.73260566812589,18.891064332782097,17.943659209325382,5.973088966729661,4.910342263811574,53.565331660518446,4.719160299413879
11.753276827988998,18.859831474634483,17.951088542251593,5.973240298376255,4.913970175487316,55.95403301543392,4.744142441920396
11.77801230694349,18.826228377711427,17.950526183734635,5.97466647252257,4.918774289510801,58.419607288450614,4.769543312902368
11.806821682528316,18.79053383635599,17.942109788464116,5.977431617189517,4.924671334689772,60.95968062349387,4.7954112648757015
11.839701428050034,18.75305529724042,17.926052644322343,5.9815935632218045,4.931572103785164,63.571717087081325,4.821784450136661
11.876633293613185,18.714112382831612,17.902628009886527,5.987201223632494,4.939382277872666,66.25298499476229,4.848687619381839
11.917579541686095,18.674020663966942,17.872158939821723,5.994293845857741,4.948004333625456,69.0004985517855,4.876130218350716
11.96248113574082,18.633078763311588,17.8350100016928,6.002901001690925,4.957340577556696,71.81094212215079,4.904105729837704
12.011260695152032,18.591559364415577,17.791579005128675,6.013042510952037,4.96729637208517,74.68060841299537,4.932591249682905
12.06382470516968,18.549704129627884,17.74229005930889,6.024728997903586,4.977781971216916,77.60541924795668,4.961546874448513
12.120060226104094,18.507720841625364,17.68758671417971,6.037964315748467,4.988712239105852,80.58104367834044,4.9909148317537495
12.179829362614997,18.46578298166268,17.627925392796367,6.052748916288792,5.00000491502348,83.60301775580724,5.020618844755756
12.242967449921519,18.424034041416263,17.563783900935338,6.069081496247422,5.011578671062531,86.66682089748022,5.050565888483484
12.309286505643035,18.382594157913623,17.49570545611919,6.086957584251976,5.023352256189063,89.76796479999678,5.08065178350048
12.37858078227663,18.34156421401699,17.424368506747037,6.106366336139044,5.035245628221932,92.90208420941985,5.110768212500304
12.450629629087024,18.301027272152012,17.350636633643973,6.127288503968937,5.047182418814334,96.06497264146141,5.140807803002997
12.525195694891957,18.261048228055273,17.27555626978182,6.149697709194017,5.059091681359139,99.2525794185241,5.17066673170591
12.602021012812148,18.22166987023116,17.200314607732818,6.173564802767963,5.070907665836625,102.46099236438559,5.200245395450843
12.680824979016199,18.182905153184432,17.126186413488565,6.198863991594764,5.0825682555593,105.68638934948653,5.2294476276605035
12.761306385750968,18.14472858374221,17.054484639959774,6.225578532036931,5.094013557145584,108.92495384643043,5.258180096130382
12.84314930218875,18.107069655088356,16.986518044995613,6.253702843639033,5.105185588723269,112.17277227301632,5.286352943710331
12.926030799880515,18.069810966124663,16.923556319011716,6.283239755283304,5.11602927655636,115.42575528395521,5.313880214117204
13.009626952052756,18.032794721768195,16.866802090974254,6.3141950365257,5.12649450070074,118.67964022174462,5.340678335373563
13.093615165238203,17.99583844247268,16.817368800550454,6.346571973257179,5.136537873886466,121.93006229618634,5.366663047449029
13.177674977001473,17.95875415024866,16.776264344152366,6.380366620548037,5.146122911865674,125.17259614966427,5.391746339287651
13.261488817280144,17.921364103858224,16.744379660557833,6.415563159840544,5.155219288363972,128.40272527496288,5.415834675908603
13.344740842623546,17.88351004639627,16.72247933780944,6.4521293029568225,5.163802163395598,131.61583584714714,5.438829133552122
13.427113284304232,17.84505616498591,16.711192515685795,6.490012513063731,5.171850902315516,134.80732213094336,5.460627100735046
13.508284234282915,17.805889147894156,16.711005527922453,6.529138202745216,5.179347182243767,137.97272588476645,5.481124424013436
13.58793221311437,17.76592126564553,16.72225771594053,6.569410552428532,5.186273849580095,141.10778370119104,5.500217208586559
13.665747151407754,17.725098410801042,16.745139776531815,6.610715479340975,5.192614952360204,144.20838577772577,5.517803851509701
13.74143937086888,17.68340577815823,16.779693950307852,6.65292438490341,5.198356595206036,147.2705238311659,5.533788043099333
13.814739318782314,17.64086416581977,16.825817488217947,6.695897543382238,5.203488584155992,150.2902716580459,5.548081285701629
13.885390024312352,17.597520815041918,16.88327186545047,6.739487289825557,5.208006683024352,153.26381851741024,5.5606028042976
13.953139030094393,17.5534421538094,16.95169734866629,6.783541407408954,5.211914509884037,156.1875568635333,5.571277326951022
14.017733704466657,17.50870914864649,17.030628697988366,6.8279058156019365,5.21522374373195,159.05820252640993,5.580033196034667
14.07891968201189,17.46341268418927,17.119507986949273,6.872430301700603,5.217952668802987,161.872910598863,5.5868026790132035
14.136440683250834,17.41764971105829,17.21769333508796,6.916994091654863,5.220124328380948,164.6293296434404,5.591524339369362
14.190038532402115,17.3715218390173,17.32446439748037,6.961560651102207,5.221764793511376,167.32558172085757,5.594145689710775
14.239453488821688,17.325134046847086,17.439026033452727,7.006235492693831,5.222901688069615,169.96022394196225,5.594624667821302
14.28442565735541,17.278590119334428,17.56051351316113,7.051294503641067,5.223563759189219,172.53221272474312,5.592929711507503
14.324697269125434,17.231985763898713,17.68800819796916,7.09718303420097,5.223781441673503,175.04083794215498,5.5890389508629825
14.360014967766642,17.18540334679861,17.82056834587859,7.1444983755949165,5.223587002407562,177.4856059335305,5.582939363622667
14.390132204639881,17.13890954630358,17.957260937292485,7.193959749553532,5.2230137949862785,179.86609343478995,5.5746264495674325
14.414812093395845,17.09255354862275,18.097176191439267,7.246372269208048,5.222095611422146,182.18183983235704,5.56410486821882
14.433829915372518,17.046365060205982,18.239424864975426,7.302596242306243,5.220865987797989,184.43233623088696,5.551390383727882
14.446974213259203,17.00035547471087,18.38312981950291,7.363529676562159,5.219356130691665,186.61711144482183,5.536512017876715
14.454046577259406,16.954523236953403,18.5274189085683,7.4301005701341705,5.217591486592366,188.7358651063769,5.519512830896952
14.454861044321245,16.908858218252107,18.67142140331472,7.50325547246955,5.215588219115074,190.7885572470482,5.50044955258361
14.449243868901343,16.863341155866824,18.814268760886662,7.583936749902862,5.213350496781976,192.77538932134763,5.47939248381409
14.437034141961352,16.817942063332797,18.955098012201567,7.67305749875516,5.210869046250967,194.69670340170464,5.4564265511349355
14.418085224684202,16.772624880422057,19.093056312072257,7.771497308183911,5.2081211861395715,196.55285921352723,5.431652993861631
14.39226614069393,16.727358491932076,19.22731612804012,7.880141492895876,5.205072220085357,198.34413133639762,5.4051898914420216
14.359462362059213,16.682125972824824,19.357119010569427,7.99995029404434,5.201677523052465,200.0706536901118,5.377170358880002
14.319576891061768,16.636931255957712,19.4818409040232,8.13200526527095,5.197884086357523,201.73241884204873,5.347739527203295
14.272533178439158,16.591813295947816,19.601036515272288,8.277500008001791,5.193631199205782,203.3293397350967,5.317052327821276
14.21827987989458,16.546866457690275,19.714436516373567,8.43769196944894,5.188851507734519,204.86135366816762,5.285272362159353
14.156794841294236,16.502251743920898,19.821915873748946,8.613844448241597,5.183473185843458,206.32848934234553,5.252570307954801
14.088085650073742,16.4581959309126,19.923459879893603,8.807177282271422,5.1774224413213625,207.73084214991394,5.219120878973649
14.01218721189568,16.41498888816919,20.01914003966473,9.018843764096472,5.170625308923212,209.06848340783756,5.185099053801207
13.929158406497294,16.372979921330902,20.10910957173235,9.249949141889488,5.163008427264548,210.3413662720222,5.150676851654837
13.839078706057975,16.332567346073912,20.193625594170676,9.501625712340239,5.154499246412087,211.549278206794,5.116021827034865
13.7420449390559,16.29418197650711,20.273083219914863,9.775169548008625,5.1450264469161535,212.69184406090258,5.081297939330239
13.638168484408377,16.25826805484112,20.348029758173325,10.072182148377788,5.134521609051941,213.76854655083426,5.046667935441989
13.527572987580418,16.225263349036407,20.419146670197442,10.394624463249166,5.1229226846097475,214.7787420077464,5.012295158596178
13.410393071935776,16.19558013550312,20.487216053135736,10.744765034233744,5.110178331809523,215.72168140700268,4.978343088726208
13.286775632305998,16.16958942147,20.55309079458588,11.125080369609183,5.096252055163472,216.59654961332822,4.944972626436394
13.156884144801491,16.147609747630092,20.617685605052042,11.538168119714262,5.081126097057893,217.40252070875493,4.9123385275845415
13.020902632679151,16.129900243353344,20.682010987776092,11.986709611636092,5.064804224923609,218.13882731030154,4.880586291478205
12.879035599796211,16.116656788266063,20.747238769574075,12.473469981502035,5.04731151334069,218.80483723453543,4.8498502908127366
12.731505730583176,16.108009618945665,20.81473877727507,13.001281907624344,5.02869084189927,219.40010926317402,4.820253901761782
12.578555467742708,16.104021681152727,20.88605082540842,13.572990306067812,5.008998379611788,219.92438740572112,4.791912081722256
12.420454539189056,16.104688366016255,20.962825680986565,14.191381829596924,4.9883007436050475,220.37752735305364,4.764935359562322
12.257507428249985,16.109937640680716,21.046783939352828,14.85911031760562,4.966674238262925,220.75940839298468,4.739432469075215
12.090054388532785,16.119629085112663,21.139699977928064,15.5786118912697,4.944204303614867,221.0698896394551,4.715509658212602
11.918466715518644,16.133553892652312,21.243382156847762,16.35201796670062,4.920984319116669,221.30882116972876,4.693267701043707
11.743141564872904,16.1514395289659,21.359630158916247,17.181082827922697,4.897115108660754,221.47607832605166,4.672799119531672
11.564500240554715,16.172959270922338,21.490182758267107,18.067138495496707,4.872705555766621,221.57158091115883,4.654186983820518
11.382989031559411,16.197742514380884,21.636677380309127,19.011078195643954,4.847872746747113,221.59529160673242,4.6375048923113456
11.199078007747108,16.225381796438754,21.800626539598248,20.013354262595932,4.822740764725951,221.54722982785455,4.6228172438553
11.013255419976598,16.255436390008818,21.98340921196149,21.07399559033569,4.797438797492356,221.4275440683262,4.6101790724929685
10.826021010413841,16.28743444463048,22.186291538422047,22.192682827241125,4.772099385066029,221.2366374752032,4.599634451914404
10.637882174859095,16.32087436257667,22.410487516653884,23.368884838222833,4.746857344716994,220.97529130402367,4.591213229006721
10.449351544160374,16.355226121911183,22.657222247009887,24.601985518461213,4.72184939495282,220.6447402964673,4.584927548680785
10.260942355848519,16.38993556434221,22.927758272879085,25.891349895458433,4.697213806926085,220.24667474755802,4.580770183558013
10.073161541663616,16.42443297070945,23.223418276470085,27.23639403194711,4.673089805662853,219.7831598565152,4.578715334282516
9.886502684643787,16.45814231607041,23.54564159201981,28.636718528675484,4.64961717629658,219.25651281162425,4.5787203689161
9.701440072271376,16.49048837366501,23.89602633551959,30.092212366400588,4.626936172646765,218.66920330996996,4.5807268275222475
9.518424427766428,16.52090290798918,24.276298266413498,31.603020540581195,4.605187125393904,218.02379683310812,4.58466109831613
9.337880498895379,16.548830843349453,24.688226271312754,33.16941148706185,4.584508857787433,217.32290145932302,4.590435779553418
9.16020540251565,16.573736718549135,25.133541681390295,34.79163193006342,4.56503574564892,216.56908403690184,4.597951458775518
8.985766814877826,16.59511329229076,25.613884987050977,36.46979154806701,4.546894805077666,215.76477327593872,4.607098004810213
8.814902300946102,16.612491199971117,26.130763016167343,38.203785934472265,4.530204481011851,214.91219353182444,4.617755183659952
8.64792081916046,16.625444944357433,26.68551304220868,39.9932625486875,4.515075254743843,214.01336493002992,4.6297935389233835
8.485104500592582,16.633595488791748,27.279310918131614,41.83762477544068,4.501610509392476,213.07017052490414,4.643076569692065
8.326708468586197,16.63661446562868,27.91322983362517,43.73604276456486,4.489906374165856,212.08445187892443,4.657463805262375
8.172959078040044,16.634230400245272,28.58828318568265,45.68746579947835,4.480051146532834,211.05809335334854,4.672813212331192
8.02405240405734,16.62623384818329,29.30539996901786,47.690659756248294,4.472125331063148,209.9930724228742,4.6889826151054
7.880154606660809,16.61248000788238,30.065355987594018,49.744238724980384,4.466202184279239,208.8914715879567,4.705831507949383
7.741406142347498,16.59288713473672,30.868702843840317,51.84663965126358,4.462348530366829,207.75546491794523,4.723223429884921
7.607930545154113,16.56742973612614,31.715720139227532,53.996054146175176,4.460626597577814,206.58729032871028,4.741027672869005
7.4798439442444495,16.536130551212604,32.60641358531231,56.19037331655005,4.4610974667509256,205.38920936156467,4.759120414420444
7.357260271883834,16.499062054629164,33.54055615923904,58.42717939231008,4.463824686795164,204.16346239923945,4.777386034110015
7.24029122908842,16.45636931834041,34.517741270964656,60.70377231991469,4.468875246676475,202.91225366938014,4.79571801060217
7.129042372873275,16.408307232270072,35.53745049965537,63.01720274974134,4.476316875207916,201.63779205293451,4.814018371914486
7.023606783567493,16.35526265276837,36.59915524399488,65.36429378291591,4.486213740697095,200.34234981055718,4.832195834476404
6.924058771724753,16.29774650238466,37.70240224863034,67.74164012222694,4.498623222468903,199.02827990287645,4.850163579250496
6.830449774035091,16.2363721614175,38.84681273223693,70.14558877671742,4.513594295070682,197.69797981460346,4.867837312313936
6.7428066694008395,16.17183551171411,40.03201769503925,72.5722316010501,4.531166315406312,196.35383470537775,4.885134270491792
6.661131715595737,16.104896704391724,41.257607927164294,75.01743445771888,4.551367355459568,194.99817874578574,4.901974642390438
6.585403019869531,16.036367349738224,42.52312807227611,77.47688735965984,4.574212474277634,193.63328386619972,4.918285611851362
6.515574512378314,15.967107819507854,43.82809771660523,79.94613587931634,4.59970293071158,192.26135941712263,4.934005298467054
6.451575673869103,15.898023960523435,45.17204238876836,82.42057012334257,4.627827003233523,190.88455002714588,4.949084368314406
6.39331325864886,15.830052198683225,46.554502697787484,84.89539467857642,4.658562119084627,189.50492456826873,4.963486109025333
6.340678293094565,15.764140505300503,47.97499065593445,87.36564814409009,4.691877212184565,188.12445007690067,4.9771871330336035
6.2935584876531685,15.701235207087628,49.432920227666195,89.8263009390361,4.727734151015884,186.74497081665035,4.990180055900571
6.251849702470638,15.6422696480931,50.92756341020288,92.27236124998787,4.766087577188455,185.3682249929609,5.00247636729416
6.215460063100978,15.588148854174596,52.45803784707896,94.69891957930929,4.806883322711023,183.99589449959043,5.014106814644414
6.184308260436599,15.539734584405549,54.02330623292732,97.10115240706212,4.850056112380183,182.62967068760832,5.025121216363236
6.158321182858446,15.497835575988283,55.62217539075088,99.47433992805631,4.895527549793085,181.27132055783508,5.0355904964011975
6.137431847786393,15.463198568080763,57.253279599436546,101.81391726438068,4.943205334859121,179.92271390068416,5.045608032039413
6.1215754412449455,15.436498530406624,58.91504808018071,104.11553547639723,4.992983382873441,178.58581313406705,5.055286327846167
6.110683069353286,15.418341997290613,60.60568234377077,106.37509561309184,5.044741477517127,177.26267720988798,5.064749909872141
6.1046756539188145,15.409293257663492,62.32314893709867,108.58874641414737,5.098344163381103,175.95547698761695,5.074127816790485
6.103460232203364,15.409904390014551,64.06516951984858,110.75287343738324,5.153640006923504,174.6664908946419,5.083547917443065
6.106928436374577,15.420723105708523,65.82920808029398,112.86412273422188,5.210462142025134,173.398108294742,5.093133223272726
6.114955849817783,15.44227825402456,67.61247307792748,114.91946314947138,5.268630147995012,172.1528634660044,5.102998947931555
6.127401568885958,15.475058447844228,69.41194836219026,116.916217928973,5.327952732242651,170.9334420821013,5.1132494213197575
6.144108096505076,15.519492379002983,71.22444860250673,118.85202081409288,5.388230093343139,169.74260988228454,5.123975218756827
6.164902613086504,15.57593144875994,73.04667332958344,120.72476376661552,5.449254915458526,168.5831044809835,5.135251476137687
6.189599640263756,15.64463439253966,74.87523558433283,122.5326030865524,5.5108123802981615,167.45754847451232,5.147137758304295
6.218002646635721,15.725755381552341,76.70666239764196,124.27398651736813,5.57268088335513,166.36840083627158,5.1596783996155375
6.249903696374604,15.819337713315155,78.53738470430265,125.94764792922112,5.634634276359282,165.3179415615181,5.172902020331941
6.285084368167757,15.925316890458829,80.36374615167144,127.55258233769659,5.6964443822107365,164.30825780462624,5.186820801119407
6.323319877979268,16.043536560587544,82.18203893391423,129.0880458744458,5.757882210564149,163.341198012581,5.201432026702816
6.364383319827743,16.173771107532367,83.98853933504994,130.5536111041086,5.81871796720723,162.41830809781928,5.216723770081949
6.408047094009609,16.315743053065983,85.77952228403367,131.94924795387968,5.878721308631355,161.54077857055864,5.232682374041162
6.45408202302386,16.469131232644063,87.55126262527374,133.27536130276692,5.937663021598944,160.70940106836568,5.2492965290270215
6.502255012559415,16.633571889604664,89.30003206891787,134.53279518997664,5.995317844856546,159.92452627278024,5.266556331822131
6.552325986517844,16.80865673221894,91.02209461951668,135.7228572788873,6.051466960356077,159.18603958942913,5.284450429295937
6.60404592601391,16.993935102553532,92.71371119356918,136.84732653976016,6.105898955429266,158.4933890630127,5.302963818253022
6.657157353040893,17.1889283164746,94.37115820793566,137.908400399173,6.158409657711055,157.84566522464024,5.3220760894170756
6.711397090549901,17.393163869250234,95.99074536455366,138.90862744890467,6.208802544450341,157.2416696284965,5.341759666126103
6.766500170456162,17.606225913616456,97.56882273732106,139.8508568781863,6.256890427015349,156.67993252352534,5.361978891425029
6.822203267197136,17.827796124097404,99.10179079267206,140.73818067146277,6.302496927214401,156.15871176999426,5.382690240198369
6.878246743893924,18.057661107090173,100.58612941057676,141.57387180577751,6.3454566721422605,155.67599590258263,5.403842373197826
6.934376077707028,18.295690909056233,102.01844686477418,142.36134841965185,6.385615384396584,155.2294978888775,5.4253751244746775
6.990343299544898,18.541806144265713,103.39553816311933,143.1041538668138,6.422830558719554,154.81663935317823,5.447217784472952
7.045907475802143,18.79594367911506,104.71442910739225,143.8059081522842,6.456971517861372,154.43454612460334,5.469287936924475
7.100834267436536,19.058024715060743,105.97238427713715,144.47023100267685,6.487918685379085,154.08006720884495,5.491492815346697
7.154897048285984,19.327926774570212,107.16688682572939,145.1007065280448,6.515563581545336,153.74979969467327,5.513733653895722
7.207880630824284,19.605460103957235,108.29562100497765,145.70091715333498,6.539810351883824,153.4400941060171,5.5359102485292
7.259584613622417,19.890350756808225,109.35647516548896,146.2744766237635,6.560578511589052,153.1470426344193,5.5579227712972825
7.309823375498843,20.182232242489793,110.34755199568323,146.8250484928731,6.577805944979347,152.86647815456746,5.579670908523767
7.358423597036931,20.480644023482142,111.26716909317442,147.3564155665215,6.591451096521082,152.59401973885275,5.601052054164907
7.405221563936192,20.78503520795137,112.11384909633391,147.87255067748458,6.601494038287673,152.32517344604435,5.621960261051768
7.45006182784679,21.094774159747278,112.88630056247038,148.37757077226877,6.607936310253565,152.0554373282326,5.642287056416008
7.492799028390855,21.40916355385194,113.58339520883565,148.87559127282904,6.610799335021957,151.78035743714483,5.661923501360538
7.533302258528517,21.727457944048304,114.2041529510896,149.37057866823488,6.610121948473153,151.49554622796376,5.680762692681376
7.571457898977464,22.0488782741731,114.7477313537534,149.86623870240828,6.6059576415087475,151.19669781768505,5.6987044780790885
7.607169109674116,22.372618153591578,115.21340596566127,150.36593684596846,6.598371464871348,150.87961187906197,5.715663784241826
7.640353808152363,22.697846340575794,115.60054151197541,150.87265652781102,6.587437378874159,150.54022612560834,5.73157902302557
7.670942386434311,23.023717111799133,115.90857062477662,151.38900722683945,6.573237492456636,150.17464578863976,5.746415243584034
7.698875653207616,23.349390586002958,116.13700010517101,151.91729248178723,6.55586298305748,149.7791553611543,5.760161017978251
7.72410326098862,23.674052983343906,116.28544631213546,152.45961740293896,6.535414871216788,149.3502221435092,5.7728224100800505
7.746581604842825,23.996931330029835,116.35367767189193,153.01798152161314,6.512003431755753,148.88451480317596,5.784417632009912
7.766270918741715,24.31731066158008,116.34165672349452,153.59432593620406,6.48574676105432,148.37894178650467,5.794973562806838
7.783132987698739,24.634566995946614,116.24959874127201,154.1905494476321,6.456769752788179,147.8306907895333,5.804523433665508
7.797129812261673,24.948212639948245,116.07803840196212,154.80851447229406,6.425203956042952,147.23725360890336,5.813104822598276
7.808222130966868,25.257926791027714,115.82786887928684,155.45005080645535,6.391187468292914,146.5964518183397,5.8207572555464
7.816367859405227,25.563553386004486,115.50033962831695,156.11696616536025,6.354863494115638,145.90647920046027,5.827518985379642
7.821522662488823,25.86507506483688,115.09702484912863,156.81105778651707,6.316377560565495,145.1659331018491,5.833424241618034
7.823645918081953,26.162576625472173,114.61978027192474,157.5340826466303,6.275874897695427,144.37381066109413,5.838504301149503
7.8227120547359,26.456204916201127,114.0707054768329,158.2876732783092,6.233499214970218,143.52949854576008,5.842794096027947
7.818720507394321,26.74613080528259,113.45212694155451,159.07327599359806,6.189392906540682,142.63277724112592,5.846340643400662
7.811698926242311,27.03251593922745,112.76661032698102,159.8921581594306,6.143697468111331,141.6838137401273,5.849207110522354
7.801705122310137,27.31548699454149,112.01698511136517,160.74540007713074,6.096552992418051,140.683130158602,5.851470246722231
7.788834273600091,27.595129268549357,111.2063438429836,161.63382910814678,6.048097324672049,139.63157021874116,5.8532139199257
7.773226595286717,27.871509610274487,110.33800204585759,162.55804395791384,5.9984657654290165,138.5302693873548,5.854522828350435
7.755068293063505,28.14471193556925,109.41544074327989,163.51863624985302,5.947790817459729,137.38061940518205,5.8554787654085505
7.7345861484924505,28.414855145453775,108.4422559812478,164.51645073885373,5.896201430004159,136.18423940033568,5.85615917094882
7.712038441149831,28.682089011250028,107.42212258314865,165.55267642895882,5.84382238703373,134.94296803823093,5.856636493435552
7.687704218963652,28.946586867843084,106.35877253472574,166.62875888151527,5.790774365307807,133.65886335154292,5.856977957338185
7.661873952189111,29.20854487015111,105.25599430362216,167.74624170945472,5.7371741318094935,132.33419067527467,5.857246074415535
7.634843220612416,29.468180361053406,104.11764824473366,168.90662209957708,5.683134715737507,130.9713951120242,5.857499349363327
7.606908431064169,29.725723963789694,102.9476706778095,170.11123712849331,5.62876623288014,129.57306146026875,5.857791915241087
7.578363037977949,29.9814143874635,101.75005244680347,171.3611585369133,5.574177090754629,128.1418681873383,5.858171628081381
7.5494931511378685,30.235500935674445,100.52880427478311,172.65709435929438,5.519474261950088,126.68054679018466,5.858677620302858
7.520572177564093,30.488239783230064,99.28791788283777,173.99930611772834,5.464762247853253,125.19184978860629,5.859338818171774
7.491855180646497,30.739873578846307,98.03132516643245,175.38752821772474,5.410141532029908,123.67852392029768,5.860174230196064
7.463573661341612,30.990605125231557,96.762865636277,176.82089766360116,5.35570732186458,122.14329649872951,5.861194550209765
7.435931335631613,31.24058054396443,95.4862730467761,178.2979846774965,5.301549091116162,120.58888688909627,5.86240359494245
7.409101770538646,31.48988636225838,94.20517558407336,179.81699805913667,5.2477514632157725,119.01803682429856,5.863798505268022
7.383228011156378,31.738557941201055,92.92309205581866,181.3760394581966,5.194397256632802,117.43354039075201,5.8653694838252335
7.358423189705631,31.986595167813373,91.64341930749337,182.9732116415615,5.1415727785572996,115.83826112150723,5.867100926500935
7.334771140710282,32.23398166521735,90.36942189552877,184.60662127404296,5.089373360359714,114.23513237988115,5.868974354533409
7.3123271737129105,32.480706003756396,89.10423610398257,186.27444394422233,5.037906809765772,112.62713672719467,5.870971548710639
7.291119801226522,32.726778607430326,87.850887349934,187.97502442995224,4.987294404392285,111.01726995650145,5.873076574106318
7.271153378069641,32.97223371974888,86.61230018011072,189.70687532584165,4.937670245735984,109.40851544947594,5.875277131523494
7.252411327210159,33.2171219568701,85.39129037387099,191.4685913919765,4.889179807058395,107.80384083541405,5.877566549390426
7.234860485683472,33.461512481918355,84.19055299155295,193.2587705188176,4.841978235520501,106.20619208588435,5.879946526678266
7.218456440196784,33.705517312069055,83.01264773594235,195.0759326243806,4.796228736276944,104.61846101679576,5.8824285346879215
7.20314877528595,33.94934388312033,81.8599760453141,196.91841356264104,4.752101441103042,103.04343674729498,5.885032463495386
7.1888868397160355,34.19335999371426,80.73477030978759,198.78427573867532,4.7097726760928555,101.48376766421221,5.8877845227706045
7.175628133477463,34.43813093728648,79.63910812958903,200.67126317528238,4.669423604542152,99.94194431454164,5.890716593753571
7.163348537607003,34.68441840245993,78.57492406962709,202.57678409155176,4.631237963353046,98.42029012839113,5.893866092449961
7.152049240527799,34.93316404475162,77.5439955232129,204.49788857509253,4.5953998998142005,96.92094604641329,5.897274891037148
7.141756618549377,35.18545924761832,76.54791535349568,206.43121692259214,4.562091783452718,95.44586191135149,5.90098734788707
7.132517286094745,35.44248905523307,75.58807072364306,208.37293370325023,4.531490810905734,93.99681570190035,5.905047776226401
7.124394004952149,35.70546021405351,74.66563737848205,210.3186895537223,4.503764683041679,92.57544886849813,5.909498445703137
7.117468165817914,35.97553343726527,73.7815885507004,212.26362871618937,4.479067551459501,91.1832908123761,5.914379679066624
7.11184877997796,36.253779283013074,72.93670658811519,214.20242575648618,4.457536940694077,89.82176827592079,5.919731115367542
7.107678598465096,36.54118175513269,72.13159037630527,216.12934078577584,4.439291938224623,88.4922049831173,5.925591464764318
7.105130287499335,36.838684343771455,71.36665974734281,218.03830358741726,4.424432058427398,87.19580997695792,5.931996359187682
7.104397087798852,37.147223438211974,70.64215668544703,219.92302059864056,4.413036150416882,85.93365631512539,5.938976042942639
7.105685198597694,37.46771235303737,69.9581485174459,221.7770918473368,4.405161919596175,84.70665655530401,5.946553926104064
7.109211064699204,37.80099790619153,69.31454053728783,223.59414650366747,4.400846112189407,83.51553996412605,5.954746009629012
7.115202960970333,38.147820178681826,68.71109300325654,225.3679777783189,4.400104173656847,82.36083642509018,5.963560633310656
7.123901292493269,38.50879448639904,68.14743395555699,227.09262584599426,4.402928962888248,81.24287128102553,5.972997552147404
7.135551995304809,38.88443193331415,67.62307231101195,228.76240741150554,4.409289418558268,80.16176707581899,5.983045949284417
7.15039481319276,39.275185201282284,67.13741377471383,230.3719461195479,4.4191301831945555,79.11744350669228,5.993682305763622
7.168652336033774,39.6814842270199,66.68976831473178,231.91622334627115,4.432372448336313,78.10961354602007,6.004870372198532
7.1905231125962015,40.10374971121947,66.27935342867436,233.3906033016091,4.448915537065973,77.13778186433935,6.016564766215033
7.216178633964941,40.54238705409202,65.90531960099425,234.7908075888823,4.468638544458633,76.20125553482637,6.028716121815074
7.245762602265078,40.99775602352432,65.5668014717471,236.11288347990697,4.491401885622793,75.29917250168677,6.041274576097033
7.279394399559885,41.47012295132824,65.26295971604581,237.3532068946733,4.517049712193943,74.4305443616817,6.054191161871954
7.31718338293795,41.95961869939575,64.99298248839457,238.5085122888592,4.545413693051662,73.59430222196404,6.067418143799483
7.359253787249955,42.46621941471958,64.75605192701141,239.57594661282923,4.5763162348823005,72.78932567105639,6.080909163472058
7.405766438293279,42.98975004293213,64.55130049696098,240.55315507066038,4.609571579419293,72.01444493992489,6.094619902894969
7.4569257790914785,43.529902993551694,64.37777289086327,241.4383450174605,4.6449863815644745,71.26843638560516,6.108508752413271
7.512975940217933,44.08626058854587,64.2344003058313,242.23025690138778,4.682361357305691,70.5500421996456,6.1225363861421345
7.574193024118784,44.6583021853738,64.11998976465168,242.92805941907358,4.721492705853355,69.85802542987366,6.136664588008655
7.640882642222067,45.24538918266857,64.0332203897693,243.53123619894552,4.762171710376512,69.19124484332814,6.150855976572823
7.713410691931727,45.846747690974674,63.97263612344145,244.039492141353,4.804183279172483,68.54872979156654,6.16507609284594
7.792281044399342,46.46146616174121,63.936637633259316,244.45267450058802,4.847305017546122,67.92974637757975,6.1792973766274315
7.87821392084084,47.08850341894439,63.923484195677226,244.77072183656668,4.891307172662509,67.33384194316321,6.193502575238392
7.972173732134003,47.72670250849252,63.93131039969806,244.9936659832011,4.935953309432768,66.76085937426039,6.207685721837989
8.075350250241968,48.374824643721624,63.958152680375086,245.1216669338214,4.981002264763259,66.2109398404705,6.2218505590596935
8.189114446341287,49.03161179335845,64.00197775418762,245.15502015988068,5.02621126050419,65.68452610430212,6.236007166196134
8.314957430944128,49.695852359744116,64.06071048550827,245.09411875603786,5.071338293926391,65.18234244197224,6.250168121357129
8.454423672142541,50.36642856014744,64.13226050389153,244.93941563507704,5.116142957960164,64.70533652571642,6.26434543298322
8.609051170099267,51.04235743074657,64.21454105763135,244.69141161556712,5.160387598395927,64.25460710842826,6.278548560827161
8.780322106748152,51.722830642262736,64.30547396161921,244.35067419745386,5.203840086290791,63.831342438047976,6.292783364213441
8.969621160621148,52.407242579798094,64.40298927341188,243.9179539631611,5.246277050864328,63.43678013885468,6.307051423779655
9.178198699134374,53.09519947087799,64.50503698976031,243.39441315110685,5.287486618475334,63.07219832729109,6.321348737677846
9.40713829100407,53.786504268338184,64.60961083982252,242.78180057258473,5.3272708317558575,62.73892750992416,6.33566380210156
9.65732926684903,54.48112221317819,64.71477045792788,242.08246334274642,5.365447758235542,62.43834348565382,6.34997672182735
9.929448929322904,55.17913580858476,64.81865683604173,241.29929897216408,5.4018537047607085,62.17182118779725,6.364260541013318
10.223965870596249,55.8806876352103,64.91949983888186,240.43572380984347,5.4363462783143515,61.940674316686966,6.378483829433138
10.541166061240883,56.58591474540703,65.01561881620682,239.49560060190362,5.468807253971085,61.74610813409376,6.392612899443563
10.881183417088609,57.2948907695617,65.10542972878314,238.48310294524975,5.499143318611821,61.58918903205022,6.4066131442688645
11.244029010502663,58.00759369911354,65.18746838865535,237.4025740805185,5.527284775043539,61.470824627635366,6.420449502404565
11.629630808715348,58.72391452763471,65.26041716103136,236.25843093748162,5.5531838016709605,61.39174736381796,6.434085932089619
12.037870397037793,59.443699986444166,65.32311469078176,235.0551454616018,5.576812766429979,61.35249422641471,6.447483819759141
12.468594284336236,60.16678949448255,65.37454620724316,233.79730009257116,5.598161919322517,61.35338544512468,6.460599281654208
12.921619040947526,60.893017227914406,65.4138317148128,232.48963953552342,5.617236601967684,61.39452040433737,6.473379754647493
13.396755422004132,61.6221921971118,65.4402258323092,231.1370600274246,5.634054774998267,61.475801954651985,6.485760757945021
13.89383075961024,62.35407809582314,65.45312540876004,229.74456341630187,5.648644701233529,61.59697607039725,6.497663546225083
14.412684875936904,63.08837812542816,65.45207226276545,228.3171937463413,5.661042516366016,61.75766248734827,6.508994229374974
14.95315242227485,63.824721391127355,65.43674540150842,226.85994369606823,5.671290555316134,61.95736117472423,6.519644803316471
15.51504582382086,64.56265620352482,65.4069553594302,225.37764663726455,5.679436724540492,62.19544450736214,6.52949587821736
