HandOpen,HandClose,Wrist Flexion,Wrist Extension,Supination,Pronation,Rest
142.89029378389253,162.29624263840782,172.06295158926017,199.20406652765854,73.39351302863608,189.92239945105578,64.16426632742723
142.6120150576874,161.96006988149912,171.73747932607074,198.7775728960322,73.25041962915739,189.94951568745145,64.21062327795887
142.33886308056918,161.68609189145508,171.47762451329675,198.32274566720622,73.09981720133554,189.95101531905416,64.2626774234308
142.07058526781043,161.47416272867173,171.28563118384966,197.84287435842694,72.94225509991344,189.92664036430386,64.32012478974238
141.80691338719657,161.32386856723318,171.16340422279038,197.34176115731086,72.77823550328765,189.87632427881144,64.38259113659764
141.54754185189253,161.23454828679928,171.11253035890093,196.8235988602781,72.60822708186558,189.80012570304737,64.44961880236352
141.29216249512592,161.20542913087408,171.13437085345535,196.29283902007543,72.4326655476036,189.6981930395505,64.52069278770465
141.04050259235666,161.2357580910732,171.23008880348567,195.7540787806052,72.25195068433207,189.57072456420022,64.59528588271992
140.79230716210606,161.32485227287816,171.40058413482072,195.21194692139824,72.06645073756377,189.41790080812126,64.67287592019142
140.547298302642,161.47214371409152,171.64643083258477,194.6709730852999,71.87651058818716,189.23983224753306,64.75292794207753
140.30518571678428,161.6772222270648,171.96784934893074,194.13547736679774,71.68244894157644,189.03658738250442,64.83488314585871
140.06572303386358,161.93978239776388,172.3646656372892,193.60953823632454,71.48453742107262,188.8082806911702,64.91818473949934
139.82872830806298,162.25949007106382,172.83627285347532,193.09701923072691,71.28297614572861,188.555115381329,65.00231519599836
139.5940408791114,162.63589016546752,173.3816518620908,192.60155994317154,71.07788644463707,188.27733900007888,65.08680286652971
139.36148052458938,163.06840154971508,173.99940691519154,192.1265091613306,70.8693200737128,187.97519596225004,65.17120398114496
139.1308562103463,163.55631577629998,174.68773188322928,191.6748878235807,70.6572674653832,187.64895449514563,65.25510236736565
138.90198404609825,164.09872562648155,175.44435041337738,191.2494310547692,70.44165969921696,187.2989625381302,65.33813606940998
138.6746650595659,164.69442008861358,176.26657816057022,190.85263960753866,70.22237729565146,186.9256498447102,65.42001142284302
138.4486536169524,165.34182930814742,177.15153071021786,190.48676401347535,69.99928370052345,186.52948172762837,65.50048086211397
138.22368258659537,166.0390443547146,178.09628884594431,190.15376011803647,69.77228659387329,186.11091893795563,65.57931463883608
137.99953316497022,166.7838664360284,179.0978860652421,189.85529875016215,69.54139287117737,185.67039221281456,65.65630190808362
137.77606459122183,167.57385148174407,180.1532143431286,189.59280945685364,69.30671486230284,185.20826574026776,65.73126844037026
137.55317518932574,168.4063485921207,181.25896786178146,189.36748537735895,69.06843666349583,184.7248030122285,65.8040729022689
137.33076217334263,169.27850724898067,182.4116043132595,189.18027138755366,68.82678742188892,184.220180836884,65.87457648544807
137.1087308435711,170.18722660861468,183.60728048454743,189.03189693450562,68.58204223676188,183.69454020246332,65.94262030512596
136.88701319247815,171.12908631363965,184.84180990806493,188.92290905615232,68.33453211998146,183.1480046311053,66.00803393920212
136.66554415776494,172.10034448344527,186.11070491740875,188.85362850331248,68.08464295831374,182.5806482933469,66.07065300592187
136.44422945899854,173.09702137424182,187.4092617447463,188.82406779923207,67.83279881213367,181.99247872150573,66.13031281040399
136.2229782352371,174.11497227540536,188.73259896612564,188.8339052967741,67.57943172814271,181.38347771923836,66.18682691990665
136.0017864788171,175.14988204027352,190.0756589313776,188.88252984421672,67.324948781889,180.75365157818223,66.23998850984235
135.78077680859244,176.1972589337748,191.43326056857686,188.96908966201065,67.06971668523317,180.10302612328454,66.2896000447988
135.56016872709273,177.25252112317662,192.80020636456652,189.09248531222667,66.81407592174104,179.43161265834814,66.3354914404355
135.3402630810352,178.31112406720038,194.17133698686447,189.25132816330867,66.55837318638132,178.73942660356684,66.37750384653002
135.12148998360934,179.36860801840248,195.54148350509683,189.44393514410257,66.3029906932831,178.0265642315803,66.41547287084366
134.90445186462028,180.42056929666217,196.9053967080618,189.66836643783063,66.04835691177358,177.2932464448613,66.44925131979156
134.68989157601638,181.46269235798437,198.25773363755152,189.92245349023298,65.79493322071168,176.53977532360284,66.4787541541427
134.4786328846529,182.4908929716353,199.59307746743542,190.20381473968578,65.54318813306625,175.76645863049646,66.5039731932331
134.27158775227034,183.50143301198005,200.90592813688977,190.50988992047596,65.2935780545786,174.97358477862028,66.52495041051516
134.06982081389356,184.4909101951661,202.1906760075301,190.83796726951124,65.04653723291945,174.16145447778518,66.54175562707447
133.87456643444008,185.4562303315052,203.44163210303398,191.18517021176163,64.80246970781992,173.33040147725288,66.5545030825173
133.6871615791267,186.3946558900207,204.6531231533408,191.54845360712082,64.56174359473565,172.48077111472318,66.56337975398662
133.50897733640144,187.30384193874178,205.81956214347758,191.9246895121198,64.32469023946828,171.61290960753976,66.56864016728827
133.34141110301505,188.18176351595756,206.93544500722453,192.310830740142,64.09160305571028,170.72719559458358,66.57057238736776
133.1858885212721,189.02659635359717,207.99534618043668,192.70403916028746,63.86272600144515,169.82406223871112,66.56947787039408
133.04381233407756,189.83667268847145,208.9939899676591,193.10168872725217,63.63823276839101,168.9039723209867,66.56567893493232
132.91650020151093,190.61052113098023,209.92635417657684,193.50128275823099,63.41821859671617,167.96738908709116,66.5595209913071
132.80519721360125,191.34689889640885,210.78771185802063,193.90040663325163,63.20272914530591,167.014786508038,66.55134578384697
132.71114738007245,192.04480202849894,211.5736129274459,194.2967658929649,62.99181736603473,166.0466714682216,66.54146013163802
132.63561701234383,192.70351521038592,212.27988806406296,194.68822955587638,62.78558212547469,165.06357531531907,66.53013542271066
132.5798362414289,193.32265888291977,212.90269975155857,195.07279982033134,62.584161535231935,164.0660466442767,66.51762966946832
132.5449482499476,193.90214068894412,213.43857781507202,195.44855047549643,62.38770698474438,163.0547154248113,66.50419158060743
132.53202948856256,194.44205285667846,213.88440020334653,195.81360221279758,62.1963715096451,162.0304056834329,66.49003594636157
132.54212049612374,194.942634470015,214.237372571168,196.1661175725567,62.01031059653171,160.9941872685084,66.4753276236648
132.57619319774085,195.40430901534336,214.495075160145,196.50429932816468,61.82967537828617,159.94733605669683,66.46020143326915
132.63509471895406,195.82769992742925,214.65554740791958,196.82644304176608,61.654594865066095,158.89128525577254,66.44479086365557
132.71955880164893,196.21358356388257,214.71731796480603,197.13107345448063,61.485159173492306,157.8276124502473,66.42922567946805
132.8302741421297,196.56282739306715,214.67937135654583,197.41710143364998,61.321410134400104,156.758016710158,66.41360758196997
132.9679049627993,196.8763310667831,214.54113462894162,197.68387904143754,61.16334341707875,155.68426492825063,66.398006321414
133.13302930927904,197.15495977296035,214.30250694911214,197.93111074736638,61.010927096718724,154.60815974664175,66.38248478091704
133.3260817509635,197.3995181347335,213.96385602256063,198.1587322686876,60.86412480441522,153.53156345569656,66.3671140946985
133.54736443659343,197.61079927694658,213.52594454677435,198.36686441850196,60.722902710945796,152.45643342037118,66.35195517648197
133.79707215485817,197.7896296575781,212.98985762657165,198.5558102572238,60.58722088579562,151.38480368779838,66.33703876029475
134.07526119665323,197.93682595104514,212.35700802018152,198.72602585229265,60.4570274948071,150.31871160101383,66.32238495022648
134.38179849596776,198.05310328169503,211.62919105358839,198.87806471364613,60.33226057267699,149.26012461712006,66.30804803399893
134.71637618144828,198.1390531215681,210.80859284059326,199.01251232873042,60.2128433678363,148.2108963463439,66.29413355671612
135.07858091277194,198.19525896002799,209.89772271572454,199.12990374424655,60.098668993689785,147.17272940577803,66.28077195226086
135.46791867627277,198.22246871453004,208.89933256180976,199.23064929123808,59.989585868853666,146.14713065311648,66.26809019092094
135.8837591641266,198.2217162038439,207.8163673219878,199.31503028454503,59.885388448306976,145.13538876460072,66.25621547582845
136.32527687145102,198.19445724595425,206.65192764155614,199.383275998999,59.78580736291749,144.13860310816062,66.2452904011474
136.79145739978418,198.14278304765799,205.40923201691422,199.43564365206683,59.690494733576315,143.15773407197813,66.23546306016561
137.28113421875528,198.06954639084046,204.09160757667016,199.47242871873104,59.59901119225957,142.1936159561875,66.22685904388777
137.79298391132696,197.9782711759483,202.70251772238336,199.49394645386474,59.51084171669394,141.2469328134549,66.21957396892225
138.325489198263,197.87297971521028,201.24557606579344,199.50058293433935,59.42546605611206,140.31822132213745,66.21369496510181
138.87694386858476,197.75809402652837,199.72450873950876,199.4929035781015,59.34245472404918,139.40792610625826,66.20931468856571
139.44551116886723,197.63837808958215,198.14311711718634,199.4716981170049,59.261521369997176,138.51644982125478,66.20651352797722
140.02926028113146,197.51884049474978,196.5053303912274,199.43794109396592,59.18251247383854,137.64415530947355,66.20533527007301
140.6261403209861,197.40464176657457,194.81532916829417,199.39279812425224,59.10538112496083,136.79136380459587,66.20579065718809
141.23394910495264,197.3010656449158,193.07760715461342,199.3377262380631,59.03017767210106,135.95838934142395,66.20787961499626
141.850358561223,197.21347204909,191.29691303031842,199.2745278022058,58.95704499242656,135.14556376288692,66.21159367798826
142.47296854436445,197.14713736017572,189.47815957134964,199.20526700863996,58.886208300337,134.35320266435653,66.21688936478881
143.09931861653837,197.10704879943998,187.6263728238071,199.13215749810644,58.817975331525744,133.5815481070994,66.2236673325707
143.72685628815978,197.09780495557607,185.74664898229994,199.0575160332796,58.752751241073206,132.8307591034478,66.23178524582761
144.35292533098578,197.12365473917936,183.84408341102542,198.9837111428779,58.6910445369237,132.10095296173918,66.24108376602537
144.974794194668,197.1885571414351,181.9237137429961,198.9130637694371,58.633462335924115,131.39222704817655,66.25138869846216
145.58967312977188,197.29622357653213,179.99052109750178,198.84783175818083,58.58072310555201,130.7046262818918,66.26249272135455
146.1946912606324,197.4502116351253,178.04944905107422,198.79035029428516,58.53367827352949,130.03811258363888,66.27415114560088
146.786884250441,197.65400236066614,176.10537297602735,198.74315204385138,58.4933021902375,129.3925894633676,66.28609940246444
147.36325685193728,197.9109246664343,174.1630301114536,198.70892408475424,58.46064990115842,128.76794657573006,66.2980615882326
147.92089776197363,198.22395731718487,172.2269779442743,198.69042768097935,58.4368124150906,128.16406143599266,66.30973236476147
148.4570482418635,198.59554442649684,170.3015964693944,198.6905134762642,58.422873078722034,127.58077372802542,66.32075765835654
148.96908152936413,199.02751224617577,168.39107925044598,198.71214433322157,58.419852333940625,127.01790324538139,66.3307449779766
149.4544597575177,199.52107189697335,166.49939223882916,198.7583258757803,58.42865348609788,126.47531516767921,66.33929209294764
149.91073897136803,200.07683727691622,164.63026068633195,198.83201974942875,58.45004744240391,125.95295126064809,66.34599582799154
150.33560385528878,200.69486414790853,162.78722247610813,198.9361173241842,58.484708170189556,125.45078672627224,66.35043393982124
150.72687030291647,201.37474642588288,160.97368545449686,199.0734016780591,58.5332556753728,124.96877732025162,66.35215747300883
151.08245166462243,202.11569604157052,159.192914015006,199.24642556753872,58.596268361614555,124.50687121754119,66.35072000651401
151.40034537805172,202.91655598741022,157.4479690117297,199.45738028174435,58.67427221940662,124.06506333903067,66.34571700422835
151.67866058903414,203.775821547329,155.74168273814666,199.70808232181355,58.76771890598452,123.64340924468794,66.33679410155682
151.9156373005346,204.69168514292193,154.07668539994975,200.00006854578734,58.87696454573034,123.24198119840966,66.32363148083826
152.10962223041648,205.66201935222858,152.45541609165892,200.33464595234915,59.00228950340123,122.86082976954604,66.30594756715526
152.2590388689908,206.68427825566232,150.88008121160024,200.71282454425761,59.1439844469356,122.49998245508968,66.28353179320317
152.36240276467677,207.7553952295474,149.35262080291707,201.13524002606948,59.302452363153286,122.15943749096658,66.25626523738127
152.41836748576134,208.87176630890076,147.87475170460746,201.60214304181088,59.47824742113863,121.8391216562641,66.22410166729836
152.42574235293696,210.02933065493315,146.44805161637981,202.1133859068529,59.67203540636652,121.5388513299489,66.187038601735
152.38347171423894,211.22365313245172,145.07399143238732,202.6683701954291,59.88451682268355,121.25835237265078,66.14512090058568
152.29062767711494,212.44992934263567,143.75391341874493,203.26606452016102,60.1163453336359,120.99732111372688,66.0984702393348
152.14643798338977,213.70296064171808,142.4890396603244,203.90514796819423,60.36805349399432,120.7554500029257,66.04729448336549
151.95030393079688,214.9771816941067,141.2805275511803,204.58414163063182,60.63999805106978,120.53239554590031,65.99186184823273
151.7017776510428,216.266724403846,140.1294910477831,205.30143729924617,60.9323405048956,120.32775078462207,65.93248231008624
151.40053928143715,217.56545263219923,139.0369494313012,206.0553251459907,61.24506158766545,120.14106333433553,65.8695316155152
151.04642418139173,218.8669841118607,138.00376576453516,206.84406854219478,61.577981150847954,119.97185662478826,65.80348733441045
150.6394772428883,220.16475972604388,137.03062861920571,207.6659213315351,61.93076102934147,119.81961009821092,65.7349246924565
150.17996791072014,221.45214052463808,136.1180485790636,208.5190758334581,62.302896033909825,119.68373339969088,65.66447546676375
149.66835938919172,222.72247065828216,135.26633085451994,209.40168625332302,62.69369899697098,119.56359495728167,65.59279826646176
149.10529415118097,223.96910681894454,134.47554963592643,210.31200133967013,63.10227753190382,119.45858826035413,65.52058023623876
148.49162124625576,225.18546694269367,133.74556039667843,211.248444877464,63.527508090781446,119.36815839354766,65.44853845900074
147.828412741665,226.36511023633722,133.07602148621135,212.20956390662653,63.9680176510786,119.29176732862211,65.37739165504911
147.1169317672534,227.5018092629452,132.46638114371945,213.1939601147854,64.4221836561805,119.22885912588819,65.30781962538431
146.3585990423385,228.58963759117046,131.91586461819958,214.20027449417506,64.8881735528694,119.1788653772952,65.24044889857252
145.55501784597234,229.62312130086173,131.42353640983043,215.2271584902386,65.36403950742947,119.14121445413494,65.17586938750709
144.7080312349524,230.59737169187147,130.98841689768577,216.27324577739944,65.84783376675264,119.11530541101114,65.11464425768395
143.81973236366375,231.50809876607318,130.60954126506647,217.3372524680259,66.33767741380761,119.10048009721005,65.05728755484769
142.8924139515385,232.35154867237603,130.28592748488492,218.41817362071774,66.8317584514437,119.0960536696126,65.00423477072556
141.92852244603014,233.124458352993,130.0165379537435,219.51537408405585,67.32829147238478,119.10138657437167,64.95584329611818
140.93065367867158,233.8240780203436,129.80028284724548,220.62854627586603,67.8254742342902,119.11591405697548,64.91241637411758
139.90154891220158,234.44823803197025,129.63601502431987,221.75770268893848,68.32145788695523,119.13911131794744,64.87421065213275
138.8440589469623,234.99536868442988,129.52247935758064,222.9032200398194,68.81434836675585,119.17047185289049,64.84141292836112
137.76111899398313,235.46446120388626,129.45827207502296,224.0657823523528,69.30224659770883,119.20954822809945,64.81411742040525
136.65577507985057,235.85504495315075,129.44188403187945,225.24619254666473,69.78329495800253,119.25599537302969,64.79233346953097
135.53121700155256,236.16716030878348,129.47179680520202,226.44517009043918,70.25569341380955,119.30954791095358,64.77600896350617
134.39075430188115,236.40126248682185,129.54652207106153,227.66321460995604,70.71770186476317,119.36996632212984,64.76503442512393
133.23776297021183,236.55811703641638,129.6645524337685,228.90054346117412,71.16766545327562,119.4370373885,64.75922766126541
132.07568587616882,236.63877401751625,129.82430211252498,230.1570836306667,71.60405624624232,119.5106318883966,64.75833458105808
130.90808967666803,236.64458422081069,130.0240931923099,231.43247554401353,72.0254970078001,119.59073194487137,64.76205979131015
129.73868568725317,236.5771941216595,130.26215197398625,232.7260550415529,72.43075832891121,119.67738940920462,64.7700936539062
128.57126989564415,236.4385347339358,130.5365739968269,234.03679805887785,72.81875224022355,119.77068060504403,64.7821068957908
127.40965614629198,236.23083038072934,130.84529613488536,235.36322264596643,73.1885443571015,119.87070611655021,64.79773348927118
126.25768393772883,235.9566083027325,131.18614152347197,236.7032970893887,73.53938040442576,119.97759305868014,64.81658140659938
125.11926916032934,235.61867116484882,131.55691219851684,238.05443617084677,73.87070313541709,120.0914554427884,64.83827029891151
123.99840125752192,235.22005781300217,131.9554307134404,239.41358042582326,74.18214197869615,120.21235706877715,64.86245284119154
122.8990749282719,234.7641059135638,132.3795045020403,240.7772599397895,74.47348193160946,120.34034784167419,64.88879838460439
121.8252471323574,234.25462809509807,132.8268861335411,242.14160546811263,74.74464164712668,120.47554568154447,64.91697293816455
120.7808621905064,233.69602420231962,133.29527208207838,243.5023705847788,74.99567972502194,120.61816258010066,64.9466522622857
119.76986833680785,233.0932423500291,133.78230156002877,244.8549845639879,75.22680156595906,120.76845133185408,64.9775514604533
118.79616128738574,232.4517446661211,134.2855291877667,246.1945958534339,75.43833230000904,120.92665542752272,65.00942781189477
117.86351690417162,231.7776014683807,134.8024131326663,247.51615756363145,75.63067105212352,121.09301412484973,65.04205301925772
116.97560516022891,231.07758908583634,135.3303547289995,248.81464372607417,75.80426577417772,121.26777265067555,65.0751940164353
116.13605495256505,230.35911390640223,135.8667487011646,250.0853021089709,75.95962203755325,121.45114157104447,65.10862318323755
115.34845811681583,229.6300127104353,136.4089839992972,251.3237436919097,76.09732875026874,121.64323993693931,65.1421311269845
114.6162970712113,228.89842996887526,136.95441742935944,252.52583993967914,76.21807234799425,121.84409533068272,65.17551316681596
113.9429004229456,228.17280479584363,137.50040136253787,253.6875792462352,76.32262279232329,122.0536958487004,65.2085435406365
113.33147413698948,227.46179654855692,138.04437508543228,254.80501237763912,76.41179697469187,122.27201291582789,65.24097122163911
112.78512066023292,226.77407540325584,138.58392943805316,255.87427843492597,76.48641279724158,122.49896281712927,65.27253943830156
112.30678702919815,226.118096263088,139.11679374974432,256.8916248433797,76.54724497973572,122.73436675186356,65.30299578127864
111.89921888396694,225.50194501325095,139.64080462400872,257.8534070380521,76.59499379351115,122.97795503711858,65.33207713115567
111.56497850556599,224.93322929679348,140.15391283364866,258.7561149821329,76.63027011739356,123.22937935422264,65.35949720962729
111.30645295058936,224.41897825653393,140.65419558198968,259.59639476607435,76.65358685985093,123.48818731539077,65.38496116745318
111.12579700879628,223.96556618416108,141.13982753835737,260.37100452391064,76.66534662732911,123.75378920608401,65.40818643087002
111.02488473761906,223.57870455924314,141.60904161380492,261.0767637758009,76.6658277526722,124.02548556830153,65.42889782818162
111.00532398127892,223.26349006789093,142.06014841506564,261.710612134978,76.6551770904956,124.30254922096712,65.44680304191338
111.06846385057698,223.0244158241334,142.4916070184229,262.26975855394124,76.63341132328809,124.58427313360819,65.4615813121951
111.21534695134582,222.86532814736168,142.90205911628678,262.7517664340979,76.60042466790784,124.86994816278326,65.47289998768072
111.4466786548599,222.78940271033179,143.29029166053775,263.1545123683951,76.55601305044824,125.15883825957815,65.48043688502617
111.76286253157237,222.7991278600626,143.6551970974946,263.4761450456865,76.4999254854706,125.45020257142743,65.48388235841612
112.16402766747335,222.89624204047905,143.99578454655492,263.71513866257544,76.43192312839037,125.743319716795,65.48293357515259
112.64998156078852,223.0816878275242,144.31119871667983,263.8703451177621,76.35181348288152,126.03746481758105,65.47731258838135
113.22014932137286,223.35565190969126,144.60069138062593,263.940953564501,76.25945650986304,126.33187874839264,65.46680118795733
113.87359141374326,223.7176217850226,144.86357949035647,263.9264429037161,76.15476281299813,126.62580244233006,65.45125181153726
114.60907472165592,224.16638827541215,145.09926648050003,263.82661440738065,76.03769820581405,126.91855922780937,65.43056173848679
115.42509141601104,224.7000703180313,145.3073174052049,263.6416260618432,75.90829335342524,127.2095899510411,65.40464359769432
116.31980515188353,225.316234172883,145.4874950322296,263.3719308668004,75.76664689613587,127.49841269645114,65.37342411331463
117.29101362214807,226.0120164452803,145.63972493820813,263.01817833869853,75.61291703760354,127.78458335762163,65.33686022285143
118.33617511054733,226.7841483887454,145.76405755019914,262.5812255005519,75.4473130116968,128.0677073978011,65.29493954896265
119.4524360610264,227.62892762786913,145.8606695406779,262.0622805242346,75.2701022469911,128.34745618563142,65.24766481840707
120.63660593668463,228.5422318487999,145.929861320162,261.4630491881879,75.08163136102702,128.62353663877815,65.19505549559851
121.88513478020589,229.5195723604197,145.972010933614,260.7858176184901,74.88233522847882,128.89565090155176,65.1371739740494
123.19417211276235,230.55610466579432,145.98753130159784,260.0335004746006,74.67272332311502,129.16351630872742,65.07413988851464
124.55967440533301,231.64656183358758,145.9769111826447,259.2096104385602,74.45337283705241,129.42693066026655,65.00610937294046
125.97745409273865,232.7851784424984,145.94082024049422,258.3181056238019,74.2249463077052,129.68579471592844,64.93324445214954
127.44314687486266,233.96566406715323,145.88016280590392,257.3632013618668,73.98820485174403,129.9400647574257,64.85570794872173
128.9521805446103,235.1812011813311,145.7960439929807,256.34923683961523,73.74398942346347,130.18969977463775,64.77368051597313
130.49979528593022,236.42445238636054,145.68973557127447,255.28058010411033,73.49318134317873,130.43464582433168,64.68736507837436
132.08106782763375,237.68763365634393,145.56268547329356,254.16153871683684,73.23667050047254,130.67482504181552,64.59696559352605
133.69089280146497,238.96267154078072,145.41650984673092,252.9963132334908,72.97534280251297,130.91009958692663,64.50266838097426
135.32396105028144,240.24136187641045,145.2529377421835,251.7890166259554,72.7100737790407,131.14024307005502,64.40464958187795
136.97479934964355,241.51545482504,145.07376397862953,250.54368567342934,72.44171295829045,131.36495701273273,64.30308987357698
138.6378523550199,242.77666757810428,144.88084011601757,249.2642300494495,72.17105936583711,131.5839031509389,64.19816654319854
140.3075243624881,244.01666989170684,144.67605717071922,247.95441404531874,71.89883755548705,131.79669956156954,64.09002993597232
141.97815898353875,245.2270822588025,144.46128267808652,246.61798207028377,71.6256805166212,132.00289377188162,63.97879940983344
143.6440227074767,246.39949015701887,144.2382913692293,245.25884047799136,71.35212047314849,132.20196815887908,63.86459141684887
145.2993366677052,247.52548513465533,144.00875905096876,243.8811025451116,71.07859138641547,132.3933784680797,63.74754852573799
146.93831649138363,248.5967707641046,143.7743148435466,242.4889642731659,70.80545323445948,132.57656756483235,63.62783779764482
148.55517458782694,249.60531191052533,143.53656456060523,241.08654792884883,70.53303774751899,132.7509307597978,63.50563254212566
150.14411665613218,250.5434691197669,143.2970427105835,239.67781281170065,70.2616943288113,132.91577671077266,63.38111209129332
151.69939107305177,251.40414571939408,143.0571574818716,238.2665047806242,69.99181847696005,133.07032561828498,63.254479380366945
153.21537386947628,252.1809693284648,142.81819766324296,236.85609522822114,69.72386764489289,133.21372706651445,63.125963609333525
154.6866134101508,252.86839565383283,142.58137503187123,235.449765079184,69.45837147511678,133.3450544523931,62.995796705672774
156.10781751540264,253.46165530482878,142.34782809192845,234.0505334536332,69.19592592113072,133.46328041462596,62.864193995529945
157.47384740457304,253.95663907446686,142.11858665932692,232.6614775901374,68.93716028372894,133.56728474108937,62.73136735977957
158.77975652938943,254.3498496441113,141.8945720664092,231.28584128900965,68.68268768223841,133.65590707132853,62.59755382772696
160.02083006662767,254.6384329533353,141.67665208263946,229.92694547118077,68.43306211083927,133.7279875343761,62.463019536714754
161.1925797137344,254.82022153165104,141.46567468024412,228.5880297173932,68.18875832997753,133.78235586590117,62.328034137266386
162.29072335829318,254.89375698918914,141.2624349148319,227.2721658781257,67.95017257811969,133.81779757316193,62.19285441617327
163.31120300302834,254.85830270870943,141.0676272285456,225.98224616438324,67.71762543920552,133.83303363723715,62.05774240149214
164.2502296524017,254.71381514655295,140.88183551719382,224.7209789603833,67.49135457393143,133.82671191193623,61.92299001136346
165.10430114416883,254.46083234061285,140.7055338479518,223.49086955770136,67.27150426136922,133.79739945253334,61.788913227399
165.87019085668513,254.10030915318202,140.539057921337,222.29419389755395,67.05811898136653,133.74358863844253,61.65582890783404
166.54496040240113,253.63347414116984,140.38258186587615,221.13294786001606,66.85113523755291,133.66373355965365,61.524053160760566
167.1260102244628,253.06178285988926,140.23616533541275,220.00875782193134,66.65036612211311,133.55629798738028,61.393921520308346
167.61111468407984,252.386972802153,140.09984911621834,218.92278279119867,66.45548498113911,133.41977682340575,61.265793353578594
167.99840518412395,251.61111132804436,139.97370008865997,217.87565031769554,66.26601977098649,133.25269381796053,61.14002554741427
168.28634087154163,250.73655814012216,139.85777300192106,216.86742585987395,66.08136183409233,133.05362062378808,61.01694500219569
168.47372568363497,249.76591790795905,139.75206285130722,215.89758800281754,65.90078036884934,132.82122770334615,60.89684651584369
168.55975967626514,248.7020678228214,139.65650328815943,214.96503391162878,65.72343265372326,132.55431873515516,60.78000115939551
168.5440568507011,247.54819969973585,139.570975752496,214.0681943411262,65.54837091788964,132.2518198746737,60.66664600741531
168.42661060116689,246.3077803389166,139.49528217979926,213.2052468068262,65.37455625346095,131.91276370963666,60.556958865283804
168.20776163993492,244.98446135322322,139.42911130518664,212.3742754095747,65.20088466514231,131.5363182570758,60.45105252951912
167.8882032583688,243.58204491229276,139.3720647692047,211.57332079123836,65.02621198286984,131.1218462856271,60.34900450801918
167.46898738664476,242.10451901329205,139.3237312492628,210.80048877868825,64.8493636884345,130.66893361116666,60.250891080336984
166.95149483390864,240.5560667847577,139.28372010410473,210.05420886691985,64.6691395149802,130.17736916884294,60.15679057925518
166.33740464299956,238.94101443862195,139.25162319545245,209.33344120632884,64.48432934624374,129.64712109706153,60.066767714075276
165.62871924998123,237.26380735411786,139.22697796615668,208.63765901303748,64.29373446287238,129.0783359528035,59.980873031499776
164.8278244738416,235.5290548801065,139.20929169831047,207.96673340515997,64.09617643714007,128.47133810155236,59.899157996251446
163.93750425130995,233.74154588395845,139.19808580080232,207.32089100058406,63.89049081606476,127.82660756175878,59.82167479390296
162.96089088841407,231.9061776634965,139.19289149054504,206.70070144812678,63.67552032346114,127.14475715222034,59.748450807643096
161.9014161905815,230.0278940543123,139.19321333789438,206.1069939011018,63.45012854964835,126.42654493252253,59.67946849263582
160.76280451285695,228.11171014958856,139.19853320389475,205.54072343628116,63.21324056702274,125.67291275031532,59.61467740399641
159.54906723714464,226.16274607781043,139.20835752962796,205.00284539497605,62.963887987846626,124.88499767355785,59.55401888134099
158.2644553140173,224.18618604448724,139.2222317382565,204.49419839758477,62.701231457014856,124.06409662561556,59.49742678899217
156.91340389824938,222.1872150190108,139.23969097397386,204.01539039888075,62.42455678471251,123.21162872371241,59.44480830652351
155.50053384881176,220.17099739202672,139.2602123234133,203.56671331463707,62.13325793309351,122.32913346890376,59.396044005709896
154.0306973474602,218.1426500183329,139.28323307471257,203.14809947187922,61.82681938121687,121.41828099357987,59.35101939366439
152.5089834266831,216.10715254181378,139.30820581753522,202.7590895396987,61.50480026616544,120.48085197823046,59.309650565472765
150.94065369810528,214.06924207777172,139.33461169783416,202.39877931347766,61.16681790922165,119.5186977393303,59.2718749139265
149.3310694051865,212.03339061963763,139.36192520271402,202.06577102508996,60.81253408141971,118.53373628175243,59.237631604883504
147.6856558463606,210.00387874001993,139.3896023153244,201.7582100749974,60.44165185230514,117.52800009379199,59.20686585574785
146.0098760023894,207.98485899211235,139.4171176359457,201.47393617122904,60.05392652588904,116.50367637681211,59.17954416120192
144.3091779263311,205.9803398786151,139.4439871970255,201.21063983891057,59.64918540405956,115.46309099243345,59.155646618030175
142.58894569960881,203.99416346074128,139.46973383073026,200.96590353166195,59.22734567508587,114.40866304056738,59.13513933158417
140.854510606075,202.03004260255167,139.49384811995088,200.73717809204666,58.78842089220712,113.3428718231279,59.11796180376335
139.1112044449664,200.09159433165638,139.5158164796323,200.52186384553906,58.33251346435989,112.2682312324344,59.10404074296696
137.36436984196948,198.18230601688649,139.53519216759685,200.31753463285077,57.859799297946815,111.18725468578018,59.09330070342804
135.6193041837195,196.3055044148902,139.5516198687465,200.1221197708581,57.37051598023526,110.10242992781869,59.08564718200077
133.8812109850058,194.464418701633,139.56479818290316,199.9338925740466,56.86496090312216,109.01623027718294,59.08093880261102
132.1552061140213,192.66228231211755,139.5744550074134,199.75134490591208,56.34349286443817,107.93113948120627,59.07898336588994
130.44632698280705,190.90236535655288,139.58036919110984,199.57308896542756,55.80652923412661,106.84964325416364,59.07956460444652
128.75948876133987,189.1879679824737,139.58238065332188,199.39780586900025,55.2545413765246,105.77419461518899,59.0824666120723
127.09943013186643,187.52244875834305,139.58034767826064,199.2242012526536,54.688055024608744,104.70720576419134,59.08746833184847
125.47073157296016,185.90922862374495,139.5741047686054,199.05098692284847,54.10765664625488,103.65107400626631,59.09432712440579
123.87789230755808,184.35170067189227,139.56349239977376,198.87692514989675,53.51400152494455,102.60818941895617,59.10278758981287
122.32535993684321,182.85311720383612,139.54843096942002,198.7008840262468,52.90782299798092,101.58089976622206,59.11261207826751
120.8174740663431,181.41654455748193,139.52894318058765,198.5218367711406,52.28994561019233,100.57146897067489,59.123593284031536
119.35840724626085,180.04485607808104,139.505105545514,198.33886828853565,51.66129757644221,99.58205826213022,59.135533695703764
117.95216646203221,178.7406855938267,139.47700972547645,198.15128230953093,51.02291350912597,98.61471182857413,59.14822313680309
116.60260363957559,177.50634608306098,139.44477845694524,197.95873175201356,50.375924935383324,97.67132625881649,59.161443191519986
115.31337101806584,176.34377560760632,139.40858062821815,197.7612271152677,49.72154330681867,96.75362956902909,59.174984303948726
114.08786036842214,175.25451405629153,139.36859972704198,197.55904114788913,49.06103894839269,95.86321480387626,59.18864381157408
112.9292065458698,174.2396593484152,139.32500566046576,197.35263450523087,48.39571546923845,95.00161315220059,59.202203992350206
111.84034140008306,173.29980426605357,139.27798533369815,197.14263903329788,47.726883685079294,94.17033259246642,59.215423053366436
110.82400433751242,172.4350271739691,139.22778892895712,196.92983916938235,47.05584543072877,93.37083326952673,59.228059481307
109.88268649785847,171.64496230521107,139.17472027600493,196.7151231128997,46.38389205098542,92.60448575641205,59.239904238683074
109.01859441382047,170.9288628291769,139.11909564486402,196.49946148511808,45.71230930299845,91.87254724423252,59.25078464850007
108.23368424431443,170.285589214061,139.06125733792436,196.28394710460753,45.04237638864191,91.17614051924355,59.260547916334716
107.5296978846909,169.7135911334236,139.00164537660424,196.06981362294107,44.37535542735021,90.51622010267302,59.269059717676456
106.90812981064107,169.21097801003793,138.94083220664763,195.8583773539174,43.712478558072746,89.89355110963278,59.27622117985754
106.37017319420575,168.77564206770595,138.87948135953096,195.65098973255115,43.05494373646911,89.30873988660825,59.2819719765165
105.91673947923763,168.40532023818383,138.8183073393199,195.44906402957173,42.403919578831385,88.76229996697084,59.28626616079591
105.54853801701209,168.09758632525353,138.75809033200832,195.25409274587463,41.76054502532022,88.25468439322317,59.289049320566946
105.26610757354155,167.8498737916578,138.6996893953918,195.0675787037781,41.12591555578097,87.78625808535791,59.29026579449397
105.06976085674215,167.6595573077719,138.6439974729932,194.8909423510176,40.501065847920245,87.35725621166189,59.28988257768648
104.9595263644099,167.524000110054,138.59188323477989,194.72550771159686,39.8869619054192,86.96776677345726,59.28789458699885
104.93516255731639,167.44050786057667,138.54419452790296,194.57255294090496,39.28450297584082,86.61772297027677,59.284308636371584
104.9962042352281,167.4062559070828,138.501805117421,194.43331712082772,38.69452278611238,86.306881632594,59.27914009091899
105.14195713769858,167.4182862449981,138.46561774505201,194.30892965508727,38.11778372892515,86.03480289653467,59.27243480467448
105.37144614384692,167.47356692821612,138.43650678058395,194.20033130399568,37.55497166289959,85.80086963097868,59.26428297241166
105.68340113159122,167.56902169431396,138.4152768907337,194.10821583369514,37.00670326065613,85.60434333870762,59.254800096194586
106.07630350560716,167.7015062091733,138.4026756208836,194.03295797458006,36.47354431247885,85.44439981810832,59.2441010536689
106.5484160271644,167.86781688275997,138.39940172176753,193.9745346845604,35.95602393574362,85.3201163678877,59.23230649079386
107.09775109541467,168.0647662039532,138.4060602027012,193.93249802644226,35.45463504038204,85.23044971255173,59.21957627582325
107.722041244778,168.28923042689556,138.42311336898314,193.9060152269099,34.969825335237005,85.17424060539123,59.20612526723353
108.41876822705868,168.53810756250934,138.45090931114305,193.89391267230565,34.50198593809289,85.15022700655614,59.19220088127335
109.1852015376788,168.80826772170218,138.48977006833513,193.8946782199166,34.05144083960666,85.15703642005603,59.178054613623914
110.01838335000431,169.09659624841964,138.54003256658368,193.90647820495062,33.61843892504776,85.19317694977043,59.163940795683224
110.91509995905487,169.40009402642323,138.60200585020164,193.9272545014691,33.20314774467056,85.25707799035389,59.15012824387211
111.87192742091541,169.71591488633936,138.67592372169682,193.95484677882502,32.80564983989691,85.34717501086794,59.13689092826954
112.88534008494739,170.04131481916605,138.7619454417866,193.98704452971808,32.42594914735562,85.46196413177219,59.12447964216652
113.95177410299573,170.37361296635507,138.86015848307093,194.02157924196928,32.063990996266995,85.59999193061884,59.11310955196815
115.06761003351056,170.71022115977186,138.97054183535403,194.056114859255,31.719683685724142,85.75982680611816,59.102977200197074
116.22915772436903,171.04867135193126,139.0929321383759,194.08822867244032,31.392905562671793,85.9400506126448,59.09427715576875
117.43268873234383,171.38658869726888,139.22704161187593,194.11535843122707,31.083497322279737,86.13925334765334,59.087190594899866
118.67445447136573,171.72168045501962,139.37249303286146,194.13476494351374,30.791252709005658,86.35600759196406,59.081862558460564
119.95064639400921,172.05179864281018,139.5288115285578,194.14360264380076,30.5159170599658,86.58884360506339,59.07840560055905
121.257352971451,172.37500442483375,139.69539764210495,194.13909456102462,30.257192054159265,86.83626799873588,59.07693319088759
122.59057722003976,172.68954869921163,139.87155857155358,194.11866864554534,30.014740074042383,87.09681906446755,59.07758240830346
123.94628651326752,172.99381308324763,140.05659212240747,194.07996634333117,29.788186998704585,87.36909580921586,59.0804998429572
125.32042063940101,173.28631499509305,140.24982800994266,194.02080308395648,29.577126552323904,87.65173129734903,59.08581841930017
126.70885907065482,173.56577244571795,140.45058623206745,193.9391641917364,29.381125342166364,87.94335880099692,59.09366242418637
128.10742168716254,173.8311212184567,140.65812756669956,193.83321169361037,29.19972610380588,88.24262809828987,59.10417085932547
129.51192274253256,174.08144560508043,140.8716750955524,193.70126961968785,29.03245040627154,88.54825782890856,59.11749984097592
130.9182075302934,174.31591553253256,141.09047929105074,193.54182130173257,28.878803606696255,88.85905959251772,59.13379686863668
132.3221319237097,174.5338111962245,141.3138355927203,193.35354944297924,28.73828090221773,89.17391900876333,59.153182108476045
133.71954118189964,174.73458108560646,141.5410348604734,193.13537814750907,28.610370400489614,89.49178581148091,59.17575849819095
135.10629854487937,174.91783132343377,141.77132345820132,192.8864541481845,28.494552638667543,89.8116939304687,59.201625440134734
136.47832257729175,175.08325318745045,142.0039216661364,192.60607816973368,28.39029926395853,90.13276732573269,59.23086742809445
137.83157697312024,175.23058547749127,142.2380503057991,192.29366345004053,28.297073919081384,90.45418560692553,59.263535428477354
139.1620439577809,175.3596423754912,142.47290907793885,191.9487535048037,28.214335745850548,90.7751491020352,59.29965749927962
140.46575641996887,175.47032854510095,142.70764085147917,191.5710434247894,28.141540921420088,91.09488851060793,59.33927241890594
141.73888348011695,175.5625921733635,142.94135141501806,191.1603607764422,28.07813879074516,91.41270047768786,59.382442488889566
142.97778047426667,175.6363805679879,143.1731717730175,190.71664760580398,28.0235646308648,91.72795396575016,59.42922959087189
144.17896337088493,175.6916582098382,143.40228096160524,190.239982681957,27.977232672974143,92.04006572965956,59.47966983713633
145.3390711217025,175.72843456893065,143.62786766554424,189.73059652654143,27.938532751647113,92.34850174855431,59.53378166052965
146.4548806064516,175.74673330683692,143.84909661909848,189.1888388559513,27.906834488189656,92.65281967698284,59.59159266893517
147.52334963264423,175.74654384659365,144.06511720918957,188.61516111761355,27.88149894372392,92.95269411545463,59.65314355237038
148.54162396375906,175.72784217521667,144.27507042033756,188.0101747520586,27.861889016032244,93.24789129233062,59.718462483723805
149.50701415000518,175.6906668467871,144.4780556489519,187.37472047853893,27.847370253495072,93.53823707503913,59.78754636587396
150.41701199455824,175.63514697564455,144.6730963217819,186.7098597923838,27.837305208756536,93.82361890244599,59.86036887819642
151.26935877678002,175.56144823235786,144.85916741461278,186.01683210414117,27.83105104146147,94.10399378328677,59.93688902206931
152.0620885701592,175.4697235206755,145.0352701122706,185.2970800679369,27.827964583368665,94.37936218719625,60.017033544286896
152.79350235517205,175.36014187612352,145.20047025606186,184.55232400264578,27.8274111262314,94.6497310436895,60.100670715534434
153.46212872413997,175.2329475020215,145.3538716085339,183.78457004458613,27.828773533152535,94.91512224716914,60.18761170213428
154.06673484945452,175.0884579358702,145.49458514159434,182.99602362963995,27.831460371925626,95.17562218614025,60.27763869360565
154.60636322219804,174.92700925124274,145.62173722536807,182.189001827741,27.83491025699475,95.43140247246754,60.3705198829182
155.08032547783228,174.74893615268527,145.7344807539162,181.36591567719395,27.838591250001112,95.68268015586851,60.46599276531667
155.4881504112987,174.55460918880812,145.83196951077093,180.52928079780062,27.84199798850605,95.92966941703548,60.56374737469615
155.82955290353823,174.34445303214662,145.91332808973854,179.6816876047407,27.844652283498434,96.17258226010466,60.66344096422326
156.1044510556956,174.1189014116211,145.97767890693058,178.82576380872496,27.84611112892397,96.41166240503517,60.764727167397915
156.3129767109755,173.87835136361568,146.02421428219193,177.96420463501212,27.845977888433065,96.64719202191597,60.86726127838051
156.45543824923533,173.6231818047456,146.05223156049948,177.0998303596933,27.843909613330023,96.87946124369955,60.97067933158421
156.53227960159134,173.35379422624672,146.06110272259102,176.23556509106106,27.83961805004376,97.10875222903472,61.07458572040428
156.54409121170906,173.07059678031106,146.05023990593926,175.37434411851882,27.832865839082462,97.33535798584654,61.17856687187131
156.49164708266088,172.77394786380282,146.01909759289833,174.51905951012952,27.823460709060623,97.55959157292679,61.282205673445624
156.37590230137874,172.4641463545967,145.9671761182201,173.6725811273304,27.81124972386127,97.78175666425965,61.385069614701294
156.19795410789803,172.14148654747748,145.8939972175075,172.83776993955397,27.7961136422224,98.00211269615761,61.48668409364044
155.95903290899827,171.80629424869608,145.79908902340912,172.0174339383733,27.777961441073934,98.22087009846496,61.586523943875285
155.6605395259898,171.45889456571382,145.68202035169145,171.21428692550617,27.75673100111893,98.43819599777694,61.68403332752935
155.30406421207678,171.0995784043988,145.5424506246236,170.43094960954795,27.7324023596005,98.65419524893507,61.7786469571485
154.89135042916672,170.72863730304968,145.38013447242326,169.66994173606923,27.705016738202918,98.86888514332698,61.86978647823297
154.42425961212132,170.34642131971214,145.19489244109027,168.9336364416254,27.67468741985456,99.08221599365703,61.95684440628407
153.90479851460864,169.95333273466082,144.9866167806641,168.22423025563262,27.641597738958666,99.29413318950407,62.03919114854183
153.33517472365423,169.549763907884,144.75532315527786,167.54375856593586,27.605993650667436,99.50461080725216,62.11621473117893
152.71779700507074,169.13606946012314,144.50117895133099,166.8940976245831,27.568178157247022,99.71362658999375,62.187357003286344
152.05521328257495,168.7126055704405,144.22447365542882,166.2769131098252,27.528503891602824,99.92112864885364,62.25211352901628
151.3500623621692,168.27976255474647,143.92558350921155,165.69362691023974,27.487358577541755,100.12703691962874,62.31001789380225
150.60507789390695,167.837934620205,143.60497399230732,165.14547561794978,27.445147321529333,100.33125566698419,62.360651588981916
149.82309219951526,167.3874808433807,143.26320704143703,164.63359568733063,27.402278828488008,100.53365988467151,62.40367686017534
149.0069957345167,166.92874549652018,142.9009107475795,164.15902761212922,27.359157754329676,100.73407719252822,62.43885081878635
148.15969610627587,166.46210573538661,142.5187401478041,163.72266399155657,27.316181650045863,100.93231692834607,62.46600456716692
147.28413432612118,165.98797019509155,142.11738961149138,163.32523810433568,27.273740480087216,101.12823332892815,62.48502060987364
146.38332919134444,165.5067361531134,141.69764731440034,162.96735167556923,27.232216210890346,101.32174970455186,62.49583995020392
145.46037446298476,165.0187898531773,141.26041581961624,162.6494647830364,27.191981643418803,101.51281793030806,62.49848185662875
144.51838451869008,164.52457154497637,140.8066749737256,162.3718370228934,27.153399860670177,101.70136781617597,62.49303793533001
143.56046024312258,164.0246187276452,140.33744795628036,162.1344884772266,27.116824315756045,101.88730289246577,62.47963863469889
142.58970550390205,163.5195322328638,139.8538075176008,161.93721810934838,27.08259821654612,102.07053093382106,62.45843138137459
141.60923575700357,163.00993670687788,139.3568808374847,161.77963304594294,27.05105252978106,102.25097274653156,62.42959646291556
140.62213500169574,162.49651987488392,138.84781450160682,161.6611305192888,27.02250492162897,102.42853613487051,62.393375250348136
139.63141119734865,161.98010848464563,138.32774025766358,161.58086014260684,26.997261103826244,102.6031014640261,62.350071095197855
138.64001384714203,161.46167585074377,137.79780885816248,161.5377524386964,26.975613514111213,102.77453863909184,62.300028783421766
137.65088325021867,160.94227659723887,137.25927201683592,161.53061457246557,26.957833784341563,102.94271465145815,62.24362955855673
136.66694974223282,160.42300640458126,136.71351617788716,161.55818677951095,26.94416366730595,103.10746136564681,62.1813067359248
135.6910783497946,159.90502812964905,136.1620160885513,161.6191142406438,26.934810438248295,103.26853680404028,62.113547313495836
134.72603642937491,159.38958801265537,135.60627801737417,161.7119136739773,26.929946868907184,103.42563456870421,62.04086337409215
133.77451621759874,158.87796393956873,135.04782390245478,161.83498769503413,26.929709953192916,103.57843611503358,61.96376407514324
132.83914963055437,158.37141147826708,134.48818338923712,161.9866376030994,26.93419420164926,103.72664037224092,61.88276000686869
131.9224679590911,157.87119199893564,133.92885353487873,162.16503760009078,26.94344458989654,103.86994321421327,61.798384118770535
131.02685656184266,157.37864256547783,133.37126016655435,162.3682232723706,26.95746049938871,104.00801497202036,61.71119001303814
130.1545711615511,156.89518037818192,132.81678612883422,162.59414316090155,26.97621334012904,104.14051158408124,61.62172593622184
129.30778857576308,156.42223733017485,132.26684992974816,162.84072261061038,26.999665032393406,104.26708758604921,61.530524447035496
128.48861016401952,155.96122646466458,131.72294115623458,163.1058641800554,27.02777535960223,104.3873769618685,61.43812792934284
127.69900927569333,155.51357629436487,131.1865824697259,163.38740680103155,27.060500107140733,104.50096819125929,61.34511606208406
126.94079502118335,155.08074819034283,130.65929113896127,163.68312308560547,27.097787267408354,104.60742001921305,61.252096563661105
126.21562420006072,154.66419459596557,130.1425872416002,163.99075717287764,27.13957404341238,104.70630846810809,61.15967176216801
125.52500717688604,154.26533893346863,129.63800196065762,164.30803270336907,27.18578294526189,104.79724896603452,61.06842080477154
124.87026723330229,153.88561859456456,129.1470372683954,164.6326192021511,27.236315609362308,104.87988042675302,60.97890469396906
124.25250030202238,153.52650396340053,128.67111423597274,164.96213255098246,27.29104868475696,104.95386038563944,60.89166454601181
123.67259749317756,153.18944450271533,128.21158419783063,165.29420281086163,27.34983773594567,105.01889292990863,60.80719891908359
123.13130480419028,152.875826478863,127.7697946601109,165.62653292977157,27.412525342236908,105.07474631119044,60.72594858615403
122.62923924186872,152.5869985901236,127.34711552037024,165.9568860394292,27.478943019630893,105.12122888049194,60.6483188274596
122.16685157636084,152.32428875798044,126.94488333442166,166.28306644177553,27.548902941285466,105.15815848894734,60.57472058531682
121.74441090839473,152.0889478446525,126.5643361148031,166.6029886824455,27.622185570850473,105.18537461823522,60.50558279501671
121.36204455389091,151.8820920164035,126.20661591871321,166.9147959759428,27.698538843228867,105.20277932965143,60.441326313615555
121.01977008948249,151.70473525413124,125.87281293750898,167.2169022312115,27.777703473511032,105.21034828512008,60.38233972217425
120.7174697594027,151.55786699914606,125.56397023864884,167.5079388103447,27.859454137188276,105.20810151148963,60.32898417593016
120.45485741233819,151.4424589433329,125.2810447968127,167.78671582500633,27.94362656988312,105.19608619229412,60.28160279734999
120.2315068279211,151.3593950178792,125.02489814890976,168.05225432121657,28.030119495729316,105.17439459757789,60.24050369760181
120.04691501369769,151.30942919687902,124.79633363102602,168.30381234144042,28.118885250684627,105.1431741808566,60.205932363240215
119.90051731488904,151.2932102871614,124.59610910988573,168.54083681850457,28.20991995179568,105.10259707318808,60.1780724589601
119.79164593984558,151.31129305214228,124.42489023442114,168.76290409418513,28.303252610824025,105.0528245793113,60.15707567764123
119.71950976122363,151.36409499902084,124.28320327972763,168.9697467157786,28.39893043066648,104.9940223845452,60.14307864136644
119.68323123145818,151.4518786008147,124.17143869331846,169.16133605772248,28.49700204072455,104.92641604866034,60.136184439953794
119.68187831820117,151.5748015517989,124.08986750381548,169.33790156090095,28.59750354365713,104.85031861663845,60.13643665237052
119.71443949629244,151.7329497101496,124.03861646280885,169.49987785814207,28.700448472701183,104.76611105373087,60.14381929617025
119.77979086089113,151.92630434318707,124.01763120651509,169.64790231193678,28.80581938532942,104.6742297902238,60.15827515423268
119.8767284686733,152.15472844245338,124.02669950836827,169.78289516902578,28.91356151938469,104.57518593094562,60.179709440898506
120.0040411182152,152.41801902836505,124.06552641678206,169.9060924612097,29.023583973482687,104.46957169040711,60.20797200624886
120.16053364536474,152.71593648500152,124.13377155068511,170.01896708425562,29.135771785067107,104.3580236962855,60.242849479808385
120.34498574392533,153.0481610507246,124.23101617655277,170.1231471629429,29.25000251693194,104.2411809218097,60.284087665566275
120.55612407454413,153.41426543504707,124.35673240034826,170.22040814383516,29.366157437540107,104.11969107389012,60.33141864431638
120.79264722579319,153.81375587441727,124.510306325993,170.31266121162923,29.48412294420701,103.99425420452066,60.38456052780149
121.05324835075706,154.24609270599547,124.69106690128896,170.4018818429783,29.603786026498682,103.86563762630108,60.4432030447964
121.3365945341133,154.71062434232437,124.89826441379729,170.49005953453437,29.72502968820411,103.73463902186094,60.50701691921668
121.64131446508416,155.20651145193426,125.13103762204194,170.5792223202436,29.84772626144845,103.60204266171131,60.575687530748155
121.96604340411137,155.73273825725667,125.3884477298116,170.67144838705994,29.971724266500324,103.46860027605796,60.64893123322432
122.3094746037183,156.28818004453404,125.66956409398205,170.76880495512853,30.096833388186674,103.33501710209606,60.72647527634316
122.67034602108495,156.87162019210498,125.97350128520894,170.8733010979956,30.222815546921503,103.20192456492798,60.80803491321003
123.04739178324593,157.48170228361855,126.2993725794921,170.98691623306215,30.349383604278255,103.06985965354016,60.893321805087716
123.4393468800191,158.11691259539805,126.64623621027087,171.1116198125846,30.476204900604568,102.93927322175409,60.98206794600719
123.84501108004868,158.77562986081463,127.01309415282361,171.24932614693117,30.60290697799848,102.81054665982369,61.07402526418001
124.26328203055587,159.45615815310072,127.39890492504345,171.401877739122,30.729083149713755,102.68398267469196,61.16893765522911
124.69311639116509,160.15669695367328,127.80255692261404,171.5711155071421,30.85430006577628,102.55978398065561,61.266525013060246
125.13348583318368,160.8753238873923,128.2228415437706,171.758929760568,30.97811020380867,102.4380683550824,61.366504172572355
125.5833789262366,161.61003540853048,128.65851298354008,171.9672095409658,31.100062640881035,102.31892157340287,61.468619035652715
126.04180485895306,162.35877086722328,129.10841612436744,172.19777751257396,31.219704133131973,102.20242876249226,61.57264094881194
126.5077525892814,163.11936683035208,129.57155528580486,172.45239257328635,31.336572427267686,102.08865333170945,61.678348566709275
126.98014690702483,163.88950978852176,130.0470570253968,172.73274891569963,31.45018893632944,101.97760709169631,61.78552679828579
127.45786730491255,164.66676066270193,130.53411755894265,173.04040763089316,31.560057161858133,101.86926195721853,61.893988922648916
127.93980756894825,165.44860995438574,131.0319945569728,173.37673952389576,31.665669668387533,101.76358878225864,62.00358416451829
128.42489081140303,166.23247940746205,131.5399937070971,173.7429406302366,31.766518971377735,101.66057067097155,62.11417455713913
128.9120209545648,167.01568140283138,132.05741061717285,174.1400407148743,31.86210359868942,101.56018613772474,62.22561638598169
129.40004204095965,167.79542563545778,132.58347579858403,174.56884429483353,31.951927958732174,101.46240938491479,62.33777995733632
129.88775066234695,168.5688938612603,133.11735089618804,175.02988173838742,32.0355031323653,101.36723875691025,62.450584707123554
130.37391629297778,169.33329429222812,133.6581413331179,175.52342927582635,32.11235410776365,101.27470825864687,62.56400066707989
130.85725812414313,170.08583719617982,134.20487038584443,176.04952571363307,32.18203134079512,101.18485658302353,62.67801251724896
131.33640872886866,170.8236963063611,134.75644079280175,176.60793902766272,32.244118325062956,101.0976885431866,62.792590825433685
131.80992369253292,171.54403991751573,135.311660145545,177.1981641357718,32.29823115535505,101.01317867841571,62.907698514427025
132.27632331879593,172.24410408302367,135.8693279010945,177.81949341499924,32.34401696628921,100.93131140561208,63.02330756189981
132.73410126590298,172.92121567447802,136.4282899606634,178.4710624381913,32.38115999522934,100.85209990766529,63.139390987767925
133.18169247848243,173.57275479614572,136.9874241098976,179.15181300389028,32.409393736296856,100.77556076904641,63.25589982875261
133.61746344020645,174.19614074077793,137.54562859604025,179.86046023203386,32.42850792923455,100.70168584025677,63.372760515460364
134.03975332063777,174.78888013332394,138.10185287955278,180.59552449002328,32.43834547694462,100.63044011969882,63.48989452428342
134.4469121740828,175.3486077400829,138.65511134787195,181.35535771017095,32.43879643394335,100.56176022745495,63.60722419032501
134.83729023776985,175.87306370380074,139.20444008652234,182.13811888256043,32.429795086842205,100.4955289273933,63.72464763735023
135.2092203599589,176.3600646644984,139.7488471019869,182.94177362301488,32.4113190307475,100.43155174242379,63.84201281225374
135.5610615626394,176.80754746128625,140.28730812047817,183.76415739555785,32.38338633287749,100.36957680060593,63.95912461422056
135.89128553494743,177.21365204029433,140.81877930383354,184.60301694809323,32.3460502013319,100.30934371666265,64.07577340812777
136.1985192753562,177.5767447460833,141.34217895428353,185.4559754835223,32.29939519961018,100.25060427979838,64.19174300975664
136.48151982388467,177.89537169439504,141.8563696510961,186.32049560383314,32.24353733139753,100.1931022994735,64.30678514765353
136.73914999583945,178.16823175918358,142.36021047424413,187.19390350892056,32.17862562539086,100.13655853748737,64.42059360640883
136.97039700778654,178.39421145073894,142.85265795626555,188.0734188860931,32.1048409549218,100.08068337788418,64.53281303268605
137.17438712345322,178.5724136507027,143.33281193977285,188.9561252632814,32.0223912331951,100.02518567044547,64.64307269039199
137.35035392778892,178.70212218843238,143.79987196060907,189.83892859741465,31.931507224705342,99.96975665301304,64.75100413494181
137.4976045964853,178.78275287622554,144.25308278705572,190.71859342139123,31.83244283137509,99.91405862912512,64.85623314629395
137.6155489902515,178.8138650808984,144.6917335323537,191.59183800330416,31.72547845331822,99.85774646908527,64.95838006089704
137.70376751240948,178.79520898539658,145.1151753206128,192.45537964630893,31.610923243569637,99.80049631181319,65.05708253969391
137.76203289246538,178.72672720047913,145.5227971755655,193.30589993399715,31.489117462661202,99.74200253274714,65.15200862287675
137.79026903340548,178.60851026605403,145.9139804350879,194.14002113180004,31.360437940829755,99.68195712175236,65.2428387351008
137.7885174370025,178.44079099215543,146.28810432072586,194.95435135450165,31.225300917847612,99.62005854063109,65.32924325516505
137.75695064149497,178.22400484160326,146.64460415439945,195.74553432615534,31.08415600314588,99.5560508430409,65.41088721684751
137.69588413088186,177.95883212415512,146.98299783628573,196.51023512574096,30.937476601397332,99.48974005149088,65.4874497801698
137.6057407547824,177.64615922664902,147.30284068834698,197.24510766609347,30.7857581403585,99.42096306568445,65.5586237374737
137.48700886660012,177.2870175568614,147.60367597839814,197.94683276131863,30.62952644419575,99.34955058423273,65.62409292106958
137.34026328370763,176.88258522089325,147.88505459220644,198.6122118956554,30.46934497743037,99.2753315719886,65.68352233177592
137.16623107625682,176.4342310203081,148.14659699707664,199.23821329812782,30.3058104162813,99.19816804010429,65.73658119735283
136.96581312370165,175.94351318421533,148.3880107319874,199.8219425183792,30.139538308718254,99.1179678892052,65.78297287566684
136.74003351861913,175.41212010266563,148.6090469996904,200.36062853825297,29.97114776270024,99.03465981646676,65.82243676088068
136.48998931332304,174.84183201743545,148.80947017999043,200.85168062136378,29.801251949879013,98.94816977826686,65.85472891116721
136.2168625168766,174.23454068820516,148.98908040524577,201.2927449673814,29.630455672839126,98.8584252767241,65.87961502986585
135.9219572348303,173.59226129359703,149.14773570532813,201.68168562923253,29.45935642294029,98.76536197690946,65.89688259182968
135.60668853932447,172.9170846683125,149.2853257229519,202.0165321552508,29.288541753420077,98.66890422431877,65.90634386873462
135.27253184865577,172.21112961496237,149.4017353365052,202.29548461117787,29.11857961845799,98.5689410127865,65.90781576216267
134.9210128800305,171.47657507608062,149.49684986118606,202.5169723056126,28.950006797852527,98.4653420293976,65.90110301137243
134.5537573070072,170.7157359071503,149.57057651325033,202.67967555901402,28.78332044548374,98.35800695334603,65.88601236683203
134.17251972166022,169.93107613026814,149.62282949349142,202.78248061625757,28.61897249626005,98.24688995003218,65.86238204414525
133.77914273637,169.1251453698862,149.65349717322144,202.82444375688843,28.45736748317952,98.13198028345107,65.83008790584749
133.37550485251748,168.3005321952293,149.66245703507337,202.8048123189133,28.298869705607146,98.01328248834214,65.78902293378364
132.96351317828328,167.4598820339778,149.6496377373733,202.72304442333174,28.14382130787155,97.8908200758919,65.73909018774837
132.54510272137304,166.60591057913828,149.61505012813623,202.57877258365403,27.992559872482776,97.76463562037532,65.68023355715842
132.12219168754436,165.74135245940388,149.55875331134337,202.3717673968056,27.845424052875448,97.63477095466499,65.61247466908755
131.69663072506253,164.86890173024048,149.48081755485595,202.10199321652541,27.702747836112117,97.50125761502333,65.53591509476405
131.27021932966193,163.9912269539578,149.38134105310078,201.76972783267436,27.564852520267067,97.36414493183723,65.45071390269736
130.84477267256094,163.1110304095883,149.26048866048552,201.37561849090272,27.432043870161134,97.22353774015,65.3570794057016
130.4221438160983,162.23105005817203,149.1184883766025,200.92064057865446,27.304611384251572,97.07959517962561,65.25528083715942
130.00417313407848,161.35399091749443,148.955596336155,200.40606037104465,27.18282185504659,96.93249770070337,65.14564812581692
129.5926421069651,160.4824768628953,148.77210207409925,199.8334539410878,27.066907586704012,96.78243876878571,65.02854483540116
129.18928211979025,159.6190670343688,148.56838249577015,199.20470785282376,26.957058745170798,96.62965755675725,64.90434184449775
128.79578667830305,158.76626750652827,148.34492657757406,198.52194897156605,26.85342723732853,96.47446031292216,64.77341956117606
128.41377093697474,157.9264814409404,148.10229189425266,197.7874723338009,26.75613819892817,96.31719493327702,64.63618456300148
128.04471915367765,157.10195649689896,147.8410539925891,197.0037487462801,26.6652991115161,96.15821698123271,64.49306707953278
127.68999937158766,156.29481073060634,147.56181577488923,196.1734737632973,26.581001957024696,95.99790007060257,64.34449770521361
127.35093356087289,155.50710478460323,147.26525372822795,195.29955853634593,26.503323719785687,95.83667857015145,64.19089680355296
127.02882700573632,154.74085725420716,146.9521264300645,194.38506508045734,26.432331222550395,95.67506155318418,64.03269394415557
126.72492216819339,153.9979861468314,146.62323617275428,193.43318748982887,26.368085353995692,95.51359924148204,63.87034913869788
126.44035144339038,153.28026743021886,146.27940654965656,192.44730172062057,26.31063768391212,95.35284749148595,63.704343847455824
126.1761452739464,152.5893621971815,145.92149751328515,191.43098497288273,26.260023231097662,95.19336052639115,63.535155559819074
125.9332509663595,151.9268461749518,145.55040695832926,190.38796679148632,26.216256459312238,95.03568679513886,63.36325379239019
125.71250701776061,151.29417403162492,145.1670308955131,189.3221021624409,26.17932891367328,94.88034280831026,63.18912012235074
125.51461049700272,150.69262730457444,144.77222869486445,188.2374025395381,26.14920162743,94.72779100654742,63.01325522829119
125.34015037138283,150.1233335187727,144.36683925661418,187.13803637286134,26.125793293917233,94.57846344650515,62.83615513065167
125.18968680696914,149.58733515892357,143.95171502792792,186.0282702895726,26.108976204606815,94.43281447144847,62.6582874802455
125.063779108041,149.08560606669255,143.52771308159336,184.91245018262907,26.098588664442154,94.29133892001768,62.48010175443762
124.96293506205159,148.6189950074892,143.09565669784035,183.79505512275276,26.094456336549907,94.15453921336443,62.30205935879184
124.88756353221112,148.18818871977223,142.6563321807043,182.68071463647814,26.096406157721965,94.02288985898198,62.124640957637375
124.83798719850019,147.79374551381125,142.2105235632028,181.57414492253193,26.104268256604286,93.89683202788453,61.94832205576367
124.81446455576825,147.43612772416256,141.75902019329286,180.48011206159458,26.11788144406046,93.77677491867908,61.77355409082539
124.81715915314611,147.11566516392165,141.30257847021292,179.40346974255067,26.137114232205477,93.66307382204965,61.60077743697983
124.84609172466266,146.83250431837007,140.84189883713833,178.34916421312602,26.16188647243188,93.55600354941673,61.430442203928436
124.90115379608142,146.58663387295834,140.37765816939606,177.32215886819364,26.192171153427843,93.45577437508261,61.263001560099276
124.98217323058671,146.37796368562377,139.9105525383486,176.3273888283907,26.22797734262771,93.36258649697307,61.09888665566185
125.0889399609532,146.20634991254025,139.44129037171933,175.36979648966337,26.269328830674578,93.27665972205942,60.93850136272935
125.22116171719775,146.071540859854,138.97055631622123,174.45433737197322,26.316249107176287,93.19821434596177,60.78224398200101
125.37842712320503,145.9731370465246,138.49901910609907,173.58590911744452,26.368753257898373,93.12745273096519,60.630520636914845
125.56023136189658,145.91062287878177,138.0273904783577,172.76932727370956,26.426841329800112,93.06457305367482,60.48372684589009
125.7660113953739,145.8834014972072,137.55645828114723,172.0093990708378,26.490487748155125,93.0097806227015,60.34221942169639
125.99512521340516,145.89076670927335,137.0870585569658,171.31095566494434,26.559625293223725,92.96326585803325,60.20631389583417
126.2468088896031,145.93187483159124,136.62004263232063,170.67877396183104,26.634129845063942,92.9251848340088,60.07630649903084
126.52019143225992,146.00581010386335,136.15627815871136,170.11752187278285,26.71381746437368,92.89569926544324,59.9524841166758
126.81436194337873,146.11170249181265,135.69664556971873,169.63179850932474,26.79845639985577,92.87505748572352,59.83510543305834
127.12839981808472,146.24876873029876,135.24199616012012,169.22614103598156,26.887782050415304,92.86363069204566,59.72438382359916
127.46133380880629,146.41625119290183,134.79311397395205,168.9049300999555,26.981507074778303,92.86187235287122,59.62050057406771
127.81209989703451,146.6133600047931,134.35074405021962,168.6723214409888,27.079331588107284,92.87026695726821,59.52362841878877
128.17955308864575,146.83928331368043,133.91566564719264,168.53227209046915,27.180957734580208,92.88933575418575,59.43392923544346
128.56249104982408,147.09320241151607,133.48872037511745,168.48853687548632,27.286105002838205,92.91967812497252,59.351530692763966
128.95963511356595,147.3742450593206,133.07076921314967,168.5445660298626,27.394517198606593,92.9619761984528,59.27651905937406
129.36960471886286,147.68142923065966,132.66264742338194,168.70342286057166,27.50595678050198,93.01695558645218,59.20895835822734
129.7909578972488,148.01368762450022,132.26516009587257,168.96779215382784,27.62019316915725,93.0853752158265,59.148901996885016
130.2222781401,148.36994882935954,131.87907816725962,169.33997269042385,27.736992304987805,93.16807240043124,59.09637409690827
130.66221000350487,148.74916231680788,131.50510173620032,169.8217955933383,27.856110268013172,93.26598937435938,59.05134635574594
131.1094121644747,149.15023614546516,131.14383312417806,170.41457546954024,27.977296572943168,93.38013045241736,59.013743133122595
131.5625039586348,149.57198300001605,130.79580852141945,171.11914524438976,28.100312488565287,93.51150789053801,58.98346357147911
132.02007303293234,150.01315061319272,130.46155186645916,171.93586406189843,28.22495343113833,93.66114953898871,58.96038449134787
132.4807136054914,150.47248325132196,130.14157847515023,172.86454258520973,28.351053675046884,93.83014262463922,58.94434012814704
132.94302382950394,150.94872086450715,129.83635906353763,173.904388173774,28.478470692314197,94.01963273859982,58.93511654458749
133.40556488365266,151.44055257628668,129.54632249352235,175.05402784259425,28.60707126679945,94.23077248757261,58.932483890018354
133.8668527430839,151.94662371956332,129.2719092974976,176.31152046089224,28.736739602086327,94.46469704841526,58.93623543217496
134.32540043154913,152.46560859334633,129.01359890286187,177.67431199775618,28.867403077967097,94.72255373472515,58.946191868527926
134.779744202663,152.99624554723746,128.77187517151984,179.13922566386543,28.99905105364802,95.00551438621906,58.962182342507646
135.2284186889217,153.53728923793034,128.54718860766656,180.702529773107,29.13172945175771,95.31471901252091,58.98404928204179
135.66993748551442,154.08746656474105,128.33995726902629,182.3599843212278,29.26551899462443,95.65120181222608,59.01168462008975
136.1028261177317,154.6454973841821,128.15056663060594,184.1068141409769,29.4005149320912,96.01587579078826,59.04504936297698
136.52566243420597,155.21011566264787,127.97933382006444,185.9376972593677,29.53681469258437,96.40956554389786,59.08414719685446
136.93706563663875,155.78002703204348,127.82648353425422,187.84681821052018,29.674507884615856,96.83301220354578,59.128985374713494
137.33566446242094,156.35385820536086,127.69218935226266,189.82790416431737,29.813662717089805,97.2868357213077,59.17956516990859
137.72011868978905,156.93018525978326,127.57663670469663,191.87419311218048,29.954312740643893,97.77152211004868,59.23589432923081
138.08918718334857,157.50761288764022,127.48002479009146,193.97841970924836,30.09645360070583,98.2874569622851,59.297982864635024
138.44175725977433,158.08479693142496,127.40251927436866,196.1329032311737,30.240050225698567,98.83493718623603,59.36581340872265
138.77680628631413,158.66038856611104,127.34424121579512,198.32967850851344,30.38504417960617,99.41412489180662,59.43931952745815
139.09336493545388,159.2329943879644,127.30530810739113,200.56055355310667,30.53135346463396,100.02500009007346,59.518394249048555
139.3905326636906,159.80120824225324,127.28585186041673,202.8170966263052,30.678867278628218,100.66736069073511,59.602905411204084
139.66750167010431,160.36364736568373,127.2859812030353,205.09065834365362,30.82744125299503,101.3408332669025,59.69268668595584
139.9235347806082,160.9189222804571,127.30574853356141,207.3724592565109,30.976893077027672,102.04484346811302,59.78751423975974
140.15793114501247,161.46558505496958,127.34516070505617,209.65365334080832,31.12699667234759,102.77857280905658,59.887105051080745
140.3700539397992,162.0021413741085,127.40418800852386,211.9253157933346,31.277477649336696,103.54097294005463,59.99114288479853
140.5594081397425,162.527114044186,127.48272688945345,214.1784304068522,31.428016318923877,104.3308373992353,60.099295826060825
140.72567357668754,163.03906576839137,127.58055624294921,216.40395841257808,31.578261210661495,105.14684623259109,60.211203225636694
140.86865663387772,163.53655717924505,127.69735799937136,218.5929498593552,31.727850023150975,105.98754086999524,60.326460161704155
140.98823612662557,164.0181213591037,127.83278760270404,220.73659842289317,31.87643114575154,106.85128307490186,60.44463378371925
141.08437817216696,164.48230259421587,127.98650221191713,222.82623444366155,32.023674975700004,107.73624858666369,60.56529784476805
141.1571881962782,164.9276945337618,128.15811599863872,224.85334753901674,32.16927060448352,108.64043443681891,60.68804329544361
141.20691488490743,165.35291426619975,128.34715568589144,226.80967094720896,32.31291779256091,109.56164305461057,60.81245602226419
141.23389954299046,165.75656143803656,128.55306821325993,228.6872488269722,32.454324315052354,110.49746453353204,60.93809567495791
141.23854641303748,166.13724815507481,128.77523814669718,230.47843545094992,32.593206931999184,111.44531353799401,61.064500173518965
141.22134304445845,166.49368142984795,129.01296855434907,232.17589006065043,32.72928786003542,112.40251435291928,61.191198140252766
141.18286988258308,166.82469725866937,129.2654613526756,233.77263316173332,32.862285345245446,113.36635649322645,61.317701485400846
141.12375706374542,167.1292171891134,129.53185360469897,235.26211863192543,32.991906650455505,114.33409065659689,61.44348522151215
141.04463863617832,167.40620776795436,129.81128348758673,236.63824559505375,33.117849528638054,115.30292021581943,61.5679876022434
140.9461670707688,167.65469560204772,130.10290973961844,237.89533825584084,33.2398087268431,116.27002485875951,61.690639902216766
140.8290616496968,167.87378611441417,130.40588237777246,239.0281837386775,33.357480678283174,117.23258271268989,61.81089281219103
140.69411397088982,168.06263542115977,130.71933715022038,240.03212518517876,33.47056583432548,118.18775672303745,61.92821212645722
140.542145267526,168.22042534254345,131.042430883875,240.90310835793113,33.57877120653419,119.13267459034216,62.04206488847782
140.37398697460037,168.34641480834085,131.3743523208387,241.6376442839716,33.681809390000126,120.0644594762239,62.15193267171009
140.19050981417473,168.44003464256826,131.71428081195674,242.23277461584664,33.779392849546774,120.98030483606773,62.25734636554034
139.99263841860815,168.50091953129586,132.06135129381815,242.68610512845365,33.87123610026726,121.8775196789075,62.3579007668882
139.781310493136,168.5288504822765,132.4146680096014,242.99584792334204,33.95707689133247,122.75351423690316,62.45323410968411
139.55743580801288,168.5236943183533,132.77332385587678,243.1607954687805,34.036705600977534,123.6057787005377,62.5430074758191
139.32192048523473,168.48541107461799,133.136375975262,243.1802658114902,34.10998153731351,124.43189407413136,62.62691452005688
139.0757248813399,168.41409074701937,133.50281702269348,243.05411603635093,34.176829667365425,125.22954484755758,62.70470193242646
138.81987263195768,168.30994201956761,133.87161837461315,242.782818681922,34.23722867798843,125.99649869246188,62.77616576866434
138.5554076642026,168.17324216788737,134.24182713118017,242.36749133388562,34.29120241126366,126.73058211619485,62.841128926896474
138.2833752403098,168.00432934446232,134.61261223767826,241.809840136782,34.338815650851316,127.42971029174878,62.899433539642345
138.00485173809267,167.80365334918835,134.9832217327775,241.11210628238416,34.38016753692998,128.09196274196677,62.950955003232515
137.72095714980048,167.57180271259952,135.35292584815377,240.27707134403815,34.41537933851939,128.71562719961457,62.99560699304958
137.43281012375138,167.3094624090709,135.7210067119124,239.3080552455835,34.44458133680454,129.29917936375065,63.03332181216993
137.1414841231119,167.0173660981236,136.0867620617585,238.20885389419752,34.467904758678365,129.84124985248326,63.064037075700256
136.8480287671919,166.6963042506839,136.44947351352894,236.98368008713462,34.48547743431561,130.34061831018377,63.08772285985866
136.55351932554262,166.34714828857034,136.80836954169726,235.63716729571286,34.49741946281407,130.79621265071785,63.10442970981708
136.2590526968993,165.97082526625996,137.1626552854559,234.17437566569473,34.503838836030454,131.20708644049085,63.11430426245206
135.9656932249281,165.56826908562263,137.51159803243974,232.60072996026275,34.50482698605767,131.57239922848845,63.11755978185675
135.67444594727996,165.14043313018604,137.85457021094746,230.92194056829243,34.50045572385526,131.89144831443488,63.114444598507276
135.38627885380265,164.68836871458865,138.19100907354357,229.143995142442,34.490778775508296,132.16374034147125,63.105242520867925
135.10213695617975,164.21327150458688,138.52036132854585,227.27319575670123,34.47583598231018,132.38902651941203,63.09028561262087
134.82293451507076,163.71644649731027,138.84207267508017,225.3161411743444,34.455654609697795,132.56726806356096,63.069942796240184
134.5495870906539,163.1992653487331,139.1555937655119,223.27964068531438,34.430244231070944,132.69858518143892,63.044589967374826
134.28309860176063,162.66318009345338,139.46035320699715,221.1706520960797,34.39958675643069,132.7832405111839,63.014602353951666
134.02462563667288,162.1097425696795,139.75572126661777,218.99628723445167,34.36362961856606,132.8216390668335,62.98037990422284
133.7754515689203,161.54056478188977,140.04103292748385,216.7638103033192,34.322289148368576,132.81430619466096,62.942364479011275
133.5368991105789,160.9572633302764,140.31566485351422,214.48056489253204,34.27546157003124,132.76185910026757,62.90101993781629
133.31026528821315,160.361475280934,140.57907455121548,212.15388419407108,34.223035039586016,132.66502227351137,62.8568058131603
133.09680833386423,159.75493128124128,140.83076122893806,209.79107398703124,34.16490125302109,132.52468009889324,62.810184651186994
132.89773195092556,159.13947969793432,141.0702159662096,207.39945112419886,34.10096636336694,132.34189696293197,62.76164881916879
132.71412157078166,158.517024404632,141.29692162150283,204.98633711510303,34.03115720446402,132.1178779185113,62.71172138205912
132.5468597136053,157.88946928714216,141.51037117628817,202.55898428982752,33.95542085077995,131.85392225208403,62.66092424436359
132.39656850188697,157.2587563092164,141.71005141723109,200.12452248981148,33.87372279223415,131.55141297781518,62.60975694753909
132.26358563769037,156.6269460847079,141.89541545377455,197.68996931558334,33.78604995254343,131.2118179876055,62.558717570471
132.14794635288425,155.996227921465,142.06591179278527,195.26223029025647,33.69241785739652,130.83666470046197,62.50833823351056
132.04936520111036,155.36885822206926,142.22106178502284,192.8480309253314,33.59287683592561,130.42751022496316,62.45918810082729
131.96725264906271,154.74713068135827,142.3604963284298,190.4538442819571,33.48751444273892,129.9859650324729,62.41184540900635
131.90077459800062,154.1334096307176,142.48391688545087,188.085903573757,33.37645809463352,129.51376179196615,62.366881230530964
131.84889594836582,153.53013792152169,142.5910477695196,185.75026834178206,33.259881578342224,129.01278586538334,62.32487040992275
131.81036933857203,152.9397688750725,142.6816356285279,183.45283168026492,33.13800791262713,128.48503015921838,62.28639642812511
131.78371725645863,152.3647015206116,142.75546390235453,181.19925002729025,33.011100461762304,127.93253638579725,62.25202506672354
131.76726825101386,151.80729920595056,142.81233117729084,178.99489370762734,32.87944835993596,127.35738964611825,62.222270133772504
131.75922893203747,151.26993982293254,142.85201874991796,176.8448643365679,32.74335997034411,126.76174797286056,62.19758692707795
131.75772629068388,150.75499713123187,142.87431795447907,174.75400370132115,32.603167859393594,126.1478390766707,62.17838984379085
131.76081018104685,150.2647686493814,142.87911172856317,172.72684291026607,32.45923356523021,125.51791195917505,62.16505705262733
131.76647308502484,149.8014567586643,142.8664203832548,170.76756052110375,32.311942052118084,124.87420253806462,62.1579062741331
131.7727109747577,149.36722075746673,142.83637943766647,168.8800072350045,32.16168875597999,124.21894468329604,62.15717075031463
131.77757027266827,148.96419403919504,142.78922211674424,167.06773100479325,32.008868371050326,123.55437958734015,62.16300470913688
131.77913663477523,148.5944142153777,142.72530781839833,165.33393285472678,31.853872418596275,122.8827193890809,62.17550299457344
131.77550208733484,148.25975653746892,142.64513735864242,163.68141275023825,31.697096043792943,122.20609978291684,62.19470001858764
131.76476200222538,147.96195640913868,142.54930501703103,162.11260088228605,31.53894678614031,121.52658106328019,62.220548807477684
131.74502884786347,147.70266661284873,142.4384352202481,160.6296441073138,31.379846379967812,120.84618528562063,62.25291810623699
131.71442710754906,147.48344437323695,142.31317937978312,159.2344319059977,31.220226124501394,120.16690547496097,62.291627236480224
131.67109465502892,147.3056812715334,142.17426047134458,157.9285408468962,31.060524775156885,119.49068219409827,62.336485880091416
131.61324493839507,147.17058613674757,142.02248420712326,156.7131940141066,30.901193103774546,118.81941165955458,62.387298064480134
131.5392685948207,147.07924461053838,141.85869799816547,155.58928588305284,30.742701077435605,118.15500025538415,62.44384201733931
131.44778868673825,147.03264754729247,141.68376509397322,154.55740518521642,30.58554158741742,117.49939681245071,62.505868081749135
131.33764740508636,147.03162948184718,141.49858400814574,153.61779668038835,30.430228675377066,116.85456244130135,62.57311956343858
131.20790890856773,147.0768066541372,141.30409670199748,152.77031980941567,30.277291929902585,116.22242489731377,62.64533998897781
131.0579496534907,147.1686010968575,141.10124527617475,152.01449238708128,30.127266598607235,115.6048683230082,62.72225074578366
130.88757702922044,147.30729556081016,140.8909261009407,151.34958846902015,29.98067805007311,115.00373792165227,62.80352975830292
130.69705967436397,147.4930174380891,140.67400698842528,150.77467521345397,29.838023786436597,114.42081269491368,62.88882001041024
130.48705894917285,147.72566598064898,140.45138439701748,150.28856728271194,29.699757443186172,113.85775990325531,62.97775054512882
130.25855240053008,148.0048873550274,140.22399776545623,149.88980003228502,29.566274725981497,113.31613407078672,63.06993549121276
130.01279770835094,148.33012219266456,139.99278794977224,149.57667443991804,29.43790082054876,112.7974260633303,63.16495520885443
129.75129680421426,148.7006304509302,139.75867220296348,149.3472964173567,29.314881052744266,112.30308689181011,63.26235653229603
129.4757251308387,149.1154402614957,139.52256503324915,149.19954136073395,29.197374444526364,111.83448549005644,63.36168245026471
129.18786907343326,149.57330117622968,139.2853856061313,149.13100517581628,29.085450241247084,111.39285372026,63.462495113244536
128.88962445503276,150.072723920402,139.0480139294048,149.1390434861146,28.979091350392068,110.97927859772992,63.56436360831643
128.58301938060762,150.61205810365541,138.8112450209316,149.22087888779916,28.878207781539125,110.59472461583424,63.666835261447055
128.2701855253231,151.1895062015341,138.5757915816224,149.3736588714438,28.782655919731276,110.24002711236398,63.76942437680181
127.95328252622186,151.80307764478218,138.3423052830608,149.59443929640278,28.69225171594085,109.91584881126225,63.87162128625112
127.63445464325355,152.45058175593581,138.11136268905588,149.88019149617213,28.606770333755072,109.62265284891923,63.97289552793478
127.31585492471494,153.12968893877127,137.883433863936,150.22786511341778,28.52594143394528,109.36071833726113,64.07268082671473
126.99967072627578,153.8379708984943,137.65890004217346,150.63441444735224,28.44945904336686,109.1301575009343,64.17036572872038
126.68807909155353,154.57286705355074,137.4381209703476,151.09674685625703,28.37701023267042,108.93089835209871,64.2653131880955
126.38316362003842,155.33165598695007,137.22147038125428,151.6116802244326,28.308302400345923,108.76266031250776,64.35689089692085
126.08688532852399,156.11151273598693,137.00929796126843,152.17597090853369,28.24307348412546,108.62496520700572,64.44447791926457
125.80112615545556,156.90960039402503,136.80187858863422,152.7863467540605,28.181091143113026,108.51716982953285,64.52745134660961
125.52771962914046,157.72309114096535,136.59942213917185,153.43947530954514,28.122148071520105,108.43847213354528,64.60519116563498
125.26843095214831,158.54911885360696,136.4021284003789,154.1319191633427,28.06605354235088,108.38789002301446,64.6771164378518
125.02497600313774,159.38476189245156,136.21020891238916,154.8601727604579,28.012623909873195,108.364262645654,64.74271618133542
124.79911962293023,160.22709079458647,136.02385446798613,155.6207606373098,27.96167852224682,108.36628960579759,64.80154378700286
124.5927382790376,161.0732010727117,135.84321124371726,156.41028285579213,27.913043914462776,108.39256054281748,64.85319878587008
124.40776217145847,161.92017679553646,135.66839895455695,157.22537461694648,27.866560213441378,108.44154562182825,64.89733838465727
124.24607141036034,162.76504991439228,135.49952063067133,158.0626709623829,27.822082049418253,108.51158940002118,64.93371439264077
124.10944356926598,163.6048356753491,135.336625196589,158.91883364133955,27.779473332381034,108.60095620361598,64.96218923909967
123.99954195940258,164.43661122421562,135.1796739518986,159.79057783913314,27.73860008835203,108.70789873007088,64.98270989683219
123.91788689732283,165.2575399977546,135.02858252838936,160.67463653324802,27.69932671627882,108.83068326383157,64.9952709860035
123.86582288774784,166.06483171518292,134.88331181494502,161.56771544921457,27.661520523551893,108.96756960705822,64.99990485747885
123.84455125229347,166.8557272266735,134.7439084950725,162.4665301081514,27.625063071126608,109.1168076794592,64.99669451010281
123.8552184924788,167.62754583796956,134.61047088068938,163.36790268598546,27.589858060983723,109.27667316595908,64.9857748084685
123.89895594592383,168.37772028061664,134.48311618678568,164.26880647223553,27.555829064898926,109.44549422509778,64.96731230056687
123.9768438673489,169.1037637273919,134.3619902774807,165.16633979855854,27.522911962290674,109.62164011193092,64.94149456286047
124.0898977009779,169.80322868572037,134.2472697588752,166.05773070872766,27.49104859901706,109.80351318825085,64.90854724535768
124.23911425304257,170.47373412212815,134.13911727696268,166.94040166068095,27.460182364230466,109.98958690508952,64.8687502220994
124.42548505699706,171.11302874450362,134.03763909669027,167.81199654935287,27.430255006358735,110.17845988722503,64.82242247264739
124.649922433413,171.71900277713155,133.94291181163499,168.67032682736965,27.401208716741042,110.36886322573963,64.76989195538636
124.91316966298308,172.28964879558367,133.85505146971198,169.51332423260413,27.372995723013652,110.55962286661241,64.71148827062095
125.21576301175604,172.82305993120528,133.77423520842495,170.33905900762994,27.34558692460287,110.74964553040314,64.64756040186684
125.55801541231496,173.3174927081101,133.70066038695234,171.14575798813257,27.31897090842489,110.93795205923185,64.57848357563877
125.93997311415212,173.7714103585977,133.63451621320985,171.9317592462333,27.293145654040572,111.12369761993712,64.50463731786276
126.36136486017222,174.18344799006016,133.57600180226402,172.69545797552212,27.268110908544962,111.30613996942424,64.42638366451305
126.82160414302245,174.55235836634057,133.5253352138021,173.4353301416104,27.243865709349397,111.4846018329551,64.34407743266311
127.3198565977417,174.87701453934014,133.48271148571115,174.15000805920806,27.220408393253916,111.65847418579145,64.25809312416749
127.85510479718445,175.1564470008634,133.44825649504548,174.83830106251736,27.197734303686605,111.82723399449412,64.16882698544775
128.4261672085573,175.38984083931098,133.42204354512793,175.4991408311686,27.175832476125706,111.99042924814981,64.07666978686599
129.03171493035617,175.5764910125204,133.40415114016346,176.13154641223437,27.1546898119193,112.14764617607946,63.98199056871274
129.67030559132766,175.7157901095329,133.39467819560525,176.7346576139647,27.1343072437127,112.29851311835758,63.88515481221885
130.34038505990816,175.80727284636575,133.39370282428158,177.30776193619909,27.114719421698968,112.44273975712142,63.78654721947116
131.04025246815613,175.8506451879557,133.40125849921043,177.85024931800473,27.09600550793072,112.58012784909157,63.686564512711016
131.768057319235,175.84575018746287,133.41736100207308,178.3615551627841,27.078285021655386,112.71053000059523,63.58559605048199
132.52185079581918,175.7925312860856,133.44202829251185,178.84118902209173,27.061700292175615,112.83381655055798,63.48403314445929
133.29961815225147,175.6910641037523,133.47525065353528,179.2888230127274,27.046393546550753,112.94990582386056,63.38230269017956
134.09924542520383,175.54161988321272,133.51695858581232,179.70432343303668,27.032488147171623,113.05882317141631,63.28087950503635
134.9184964035478,175.3446714118915,133.56704404834485,180.08771131964966,27.020078036041863,113.16070991198637,63.18025961060472
135.75509983412164,175.1008399193125,133.62540187829313,180.43915883174577,27.009224365223897,113.25576917830497,63.080928879475614
136.60690617569918,174.8108706765329,133.69192412649377,180.75904848263073,26.999960385664966,113.34421437216498,62.983360124013245
137.4719662588048,174.4756723836034,133.76646297849635,181.04799032830311,26.992304232698153,113.4262703336311,62.888024100225955
138.34848807707777,174.09634491450456,133.84883858924817,181.30675204405026,26.986271036338326,113.5021979976889,62.79537943737907
139.2347806112745,173.67413661145838,133.93889631794843,181.53619708738486,26.981877089931025,113.5722857553194,62.705841755717444
140.12925733173614,173.21039082985504,134.03653256398871,181.73729961340126,26.97913705358445,113.6368167413673,62.619768868619985
141.03044334872817,172.70656331314277,134.14166048610383,181.91116720191798,26.97805917848758,113.6960737739791,62.53747999410634
141.93695083366043,172.1642798408568,134.254184376742,182.05899128542325,26.978643609508335,113.75038709963123,62.45927790026966
142.84749986728514,171.58533885216596,134.37402338820283,182.18197400112737,26.98088418534859,113.80015537394496,62.385441242220665
143.76101515465868,170.97164952863855,134.5011297431852,182.28133290208805,26.984769547329158,113.84580535712594,62.31620395835596
144.67668337403285,170.32519245301825,134.63545267728105,182.35836811643205,26.990281503563093,113.8877435612364,62.25175956747787
145.5938895438185,169.64804175694522,134.77689393865174,182.4144796464858,26.99739281428667,113.92636148963163,62.19228804003229
146.51211923153312,168.94237921956625,134.92532668138963,182.4511178005972,27.006065231664028,113.96207842407638,62.13796514860402
147.43094297099097,168.21044884140233,135.0806575208327,182.46977134089985,27.016246036199284,113.99535258694476,62.08893934583909
148.3500587618735,167.45451454391696,135.24284158054814,182.47202076646252,27.02786342652297,114.02664173894028,62.045311274239474
149.26928362389853,166.67689483994528,135.41182934792852,182.45955186640313,27.04082419317208,114.05636746658811,62.00714710101244
150.18847424050833,165.88003017035305,135.58752096850696,182.43408337833444,27.055019550553244,114.08491617194633,61.974505033167674
151.10744919776766,165.06648274494148,135.76977269418438,182.39730222977613,27.07034011272454,114.11264349134585,61.947435027767916
152.02593645016802,164.23886672993592,135.95840684581125,182.3508735065936,27.08668845498316,114.13985154365831,61.92595176555589
152.94350468045812,163.3998039014964,136.1531782202342,182.2964575847323,27.103978505992423,114.16675637701974,61.91001799953831
153.85946956322698,162.55194515645937,136.3537363675822,182.23565762678064,27.12212622506742,114.19346907182468,61.899557026057764
154.77282392519356,161.6979837884973,136.5596516237666,182.1699478832048,27.14104524707603,114.21998384191255,61.89446884262626
155.6822426728522,160.84060331506802,136.770487925887,182.10068623546377,27.160655191331507,114.24615866107993,61.89462171042118
156.58614648927517,159.98242240640477,136.98583279421132,182.02919667902168,27.180894736396922,114.27170559438002,61.89983303999621
157.48274529817743,159.12601703300953,137.20525635071996,181.95680261652532,27.201725877023293,114.29622756496757,61.909874045826236
158.3700334933496,158.27398133465044,137.4282699144869,181.8847832194339,27.223127364992564,114.31928991554108,61.92449769396209
159.2458071356845,157.42892668256752,137.65433488871392,181.81435495215516,27.24508646184857,114.34046107067026,61.94345188598083
160.1077421307409,156.59341435073998,137.88288215161916,181.74671471315548,27.26759500263683,114.35929722319072,61.966461965240214
160.9534716035383,155.76991772029237,138.1132900578856,181.68305110507222,27.29064579541834,114.37532712977436,61.99321872069749
161.78062863368294,154.96085241679077,138.3448506687515,181.6244778867271,27.31422421617126,114.38808536793414,62.02340863007169
162.5869032428758,154.16859577838275,138.57679694745607,181.57197282943983,27.338296720774366,114.39715924385163,62.056765045253876
163.37011910306487,153.39544481537186,138.80838336852503,181.5263848542344,27.36280302655006,114.40219330721082,62.09308636952557
164.12826279514462,152.6435766811882,139.03892678465107,181.48845016798185,27.38766012342716,114.40287308627332,62.13221107058063
164.85943450121394,151.91506146011886,139.26777091432052,181.45874963183772,27.41278063073763,114.39895303230514,62.173993747454716
165.56176009186373,151.21187019064922,139.49424355251116,181.43765603691443,27.438095498450625,114.39032105118297,62.21831035513143
166.23332305171618,150.53582486088834,139.71765887658574,181.42536322322073,27.463567373744567,114.37702080024725,62.26506626461771
166.87214754813928,149.88854546552835,139.93732745934128,181.4219759550263,27.48919214961758,114.3591976688717,62.31417682196528
167.47621506074347,149.27147519464395,140.15253236944164,181.42754470939263,27.51499432335064,114.33702313551814,62.36553853085365
168.04346982878982,148.68595536044,140.36250773727025,181.44201149467239,27.541019790462702,114.31066967145897,62.41903129360147
168.57180658012166,148.13324660667067,140.5664711051703,181.46516983503437,27.567327326913993,114.28033965421207,62.47455166060877
169.05907032711866,147.61447667638595,140.7636772134028,181.49672341422507,27.593979949877063,114.24627986684891,62.53203165279896
169.50306268215067,147.13060491956634,140.95342185200863,181.53637974361658,27.621039440691103,114.20874588719253,62.59141944855889
169.90152960950854,146.68245305181895,141.13500502457558,181.58386339596817,27.64856611691694,114.16797669388195,62.6526556748452
170.25215637851818,146.27073347545968,141.3077311725374,181.6388576689762,27.676618830305582,114.12423884393965,62.715681601244746
170.55261579274926,145.89601114648374,141.4709617285255,181.70098369194125,27.70524986981963,114.0778963994213,62.780462391435755
170.80065430703905,145.55865166824356,141.62414497150678,181.76984397117528,27.734496616226266,114.02943186086816,62.84698470613517
170.99414964103406,145.25883843150865,141.76678439636657,181.84503872625965,27.764373824521304,113.9794348460374,62.91522730576223
171.13111688309993,144.9966349868222,141.89840224936913,181.92611034713292,27.794867124164224,113.92861593467791,62.98514385993703
171.20972142559393,144.77200006585397,142.01854634342521,182.0124953804819,27.825926581140703,113.8778261495397,63.05667784616489
171.22834213303287,144.58474320989296,142.12680418831374,182.10354673392806,27.857459792361652,113.82803122657893,63.12977996290829
171.18563282703403,144.43450636773474,142.22278032372785,182.19856701576566,27.889326940534545,113.78026133164562,63.20439817529215
171.08051897010571,144.32081036039511,142.30607855596867,182.2967793923654,27.921346394312145,113.73559444742065,63.28046374844785
170.91215120848392,144.24309320176096,142.37636338540557,182.3972797782849,27.953316986668156,113.69518353539762,63.35791893978672
170.67988461633155,144.20068107910575,142.43347258138328,182.49906781476452,27.985047304424988,113.66028860675907,63.43677844176826
170.38330945613214,144.19275131954075,142.47746628863348,182.60114348759421,28.016374873258496,113.63228808246099,63.51716222283601
170.02229629629565,144.21836896621966,142.50857774160056,182.702555047181,28.04716955233156,113.61268340284003,63.599269799854945
169.59704270537526,144.27656300049222,142.52714894460777,182.80236882556773,28.07732990711401,113.60309729122982,63.68333645280148
169.10815633411937,144.3663418335536,142.53361060877518,182.89965722635682,28.106781063458822,113.60523674496278,63.76961590955346
168.55674951018207,144.48663870223177,142.5284693602519,182.99354713325943,28.13547121188584,113.62083598934872,63.858379360812876
167.9444620508847,144.63628080802172,142.51226014559595,183.08324607903646,28.163362314139704,113.65163839914959,63.94989503385496
167.27339023690814,144.81402766012732,142.48550231683686,183.16799506724928,28.190419211455275,113.69942587091849,64.04438630732888
166.54599448447635,145.0186061594546,142.44872542496134,183.24701896782702,28.21660439160594,113.76603766060279,64.14200410395004
165.76508110434327,145.2486795281185,142.40254409249206,183.31953895362477,28.241879097273138,113.85333505556106,64.24283545984584
164.93385966919755,145.50280758920465,142.34768674458184,183.3847968107404,28.26620390873164,113.96314550481723,64.34692325371647
164.05597265334399,145.77948274278964,142.28494866464018,183.44202233692408,28.289533477127943,114.09726496346404,64.45426306230154
163.13546557374977,146.0772097217132,142.21514115708425,183.49038323088962,28.31180807844205,114.25752630614089,64.56478822572262
162.17678579990726,146.39452573936907,142.1390852315215,183.52900819397837,28.332950324597945,114.44584420962096,64.67837973681695
161.18482134827164,146.72994890882774,142.05760934393797,183.55707228600778,28.35287279788479,114.66419746079728,64.79489856938642
160.16487239449796,147.0819502021069,141.97150592505108,183.57383625294406,28.371494476489897,114.91462380938152,64.91419786379245
159.12252753233258,147.4489958458225,141.88148282021308,183.57860246477827,28.388761597297773,115.19926502275169,65.0360985750479
158.06356143501654,147.82958612541822,141.78818216761448,183.57067329764087,28.404669298186864,115.52039730712225,65.16036475122957
156.99393366502238,148.2222235828586,141.69225563515172,183.5493729348934,28.419276819176012,115.8804156603039,65.286715299539
155.9198028585138,148.625364694357,141.5944006095065,183.51407669149938,28.432707895903597,116.28179972418859,65.41485779529229
154.84744985300307,149.03744228344235,141.49532020999118,183.46418286393128,28.445135602695668,116.7270455657822,65.54449976633083
153.7831657885893,149.45693518467326,141.39567542426738,183.3990720387037,28.456760267565798,117.21857289019722,65.675328548662
152.73323867513253,149.8823868381635,141.29608177428284,183.3181424948663,28.467790891822315,117.75872804543665,65.80699851234465
151.7040289222415,150.3123596678764,141.19711547143518,183.2209032873044,28.47843624339258,118.34992231745618,65.93914907949885
150.70198579265332,150.74541763580163,141.09928378028388,183.10701585896217,28.488903319769783,118.9947309182,66.07142375566153
149.7335621631832,151.18017790411372,141.00298760967075,182.9762579773859,28.499393725384117,119.69581999267551,66.20345934008796
148.80515390203854,151.6153506918538,140.9085378154339,182.82850116324755,28.510093538063874,120.45580661228207,66.33486915650232
147.9231180983321,152.04970255120307,140.81621512144528,182.6637438404071,28.521163062726206,121.27718276007516,66.4652623520247
147.0937566383834,152.48200599091288,140.72629432935224,182.48212670163744,28.532733872943428,122.1622658197147,66.59428905217423
146.32320996440018,152.91106445078626,140.63900605701625,182.28388251852712,28.544911337714538,123.11309137484916,66.72165948283518
145.61738001373178,153.3357829015171,140.55449979359517,182.06928618362792,28.557775783417185,124.13126997943601,66.84711871418469
144.98195450716787,153.75518149508233,140.47285411685962,181.838667918999,28.5713799738789,125.21789528897379,66.97041417927711
144.42241815029013,154.1683381921191,140.39409578059463,181.5924399674449,28.5857433892631,126.37353683984591,67.09129186399247
143.94396815520741,154.57435335479656,140.3181804128439,181.3310646857941,28.600842814615735,127.59826599673002,67.20950961566072
143.55143078809982,154.97238448656742,140.2449646486522,181.05500402826127,28.616601624966318,128.89167150591464,67.3248322405473
143.24925171455652,155.36167950350114,140.1742360411794,180.7647465073226,28.632886654668262,130.252894530853,67.43700317424779
143.0414784126607,155.74154088396645,140.10579033852093,180.4608973881621,28.64952383178147,131.68073424251756,67.54572587193032
142.93167626151762,156.11127180122793,140.03946819203,180.1442150357219,28.666330924564964,133.17382108645992,67.65067856454093
142.92285228249122,156.47019098621874,139.9751186696694,179.81556471241075,28.68314689377725,134.73076978889685,67.75154032116588
143.01743793457226,156.81769652351613,139.912560268891,179.47589110003045,28.699839927690775,136.35021293542363,67.84799299616677
143.21726916274065,157.1532809430013,139.8515959869925,179.12625275953536,28.716297639369685,138.03072632651575,67.9397052377236
143.52353109645344,157.47647685599802,139.79204248004797,178.76783488475385,28.7324131547938,139.77072537275535,68.02633398524368
143.93673206228476,157.78681861421958,139.73371550715314,178.40190075504856,28.74807418879765,141.56836334740936,68.1075472802789
144.4567338958684,158.0838682461975,139.67639851668767,178.02976171073828,28.763155580417866,143.4214399563154,68.18303334226106
145.08277320560094,158.36724140548372,139.61986575675735,177.65280382045225,28.777514400907894,145.3273449258303,68.25248026926604
145.8134305841606,158.63657233389566,139.5639520483136,177.27249238221236,28.79098727667519,147.28302508762204,68.31555665151956
146.64660056839278,158.89146854496175,139.50858108666998,176.89031818173262,28.803390546485833,149.28494475802023,68.3719220134898
147.57954012893083,159.1315377107389,139.4537199115194,176.5077688320174,28.814523031178723,151.3290727446482,68.42125034032678
148.60897651167417,159.35646231688997,139.3993273649569,176.12636461264702,28.824168884799832,153.4109453370363,68.46323151475804
149.7311709996755,159.5660216199982,139.3453501495714,175.7476713466171,28.83209872865321,155.52575778908457,68.49755213439302
150.94192153127344,159.76004156610446,139.2917327779915,175.37324099875826,28.838073179936554,157.6683912142508,68.52389357330487
152.23660830568647,159.9383611002008,139.23839077469796,175.00456468826158,28.84185275992,159.8333712855584,68.54196420572951
153.6103088858566,160.10086281031965,139.18516903012087,174.64309906741593,28.843208374882703,162.014843440569,68.5515315742444
155.05787327595317,160.2475001314255,139.13185316274206,174.29029075058162,28.841926797144787,164.20662357646725,68.55241869468914
156.57391708526958,160.37825988040646,139.07823672625486,173.94752746505674,28.83781399079768,166.4022847548492,68.54448059049062
158.1528223096872,160.49311706712288,139.0241618542018,173.61608036248924,28.83069769056562,168.59521340504259,68.5276016372888
159.78878293509476,160.59206896744868,138.96948967441384,173.29712873464334,28.820427550905034,170.77866083232578,68.50171654750051
161.47582066560724,160.6752191694789,138.9140571091417,172.99182882620806,28.806874783104973,172.9458544332016,68.46681800951612
163.20774216472927,160.74280115946914,138.85767372737897,172.7013172006789,28.78993420739509,175.09013308542376,68.42293429544618
164.97812845198942,160.79511519291424,138.80013121173977,172.42664571446832,28.769526866139284,177.2050240794806,68.3701088550454
166.78041998306847,160.83247139770597,138.74118116016982,172.1687558179648,28.74559991184518,179.2842802576319,68.30841423302579
168.60801534990813,160.85520840665336,138.68050388443447,171.92852756821858,28.718123708155865,181.32196079638757,68.2379824805784
170.45428435019053,160.86373494966855,138.61772790411152,171.70680929190482,28.6870870934606,183.31254406115903,68.15900929874425
172.31253778190074,160.85851085019092,138.5524949964384,171.50438083128068,28.652493649806093,185.25098252361553,68.07172793832444
174.17605931716668,160.83999008780083,138.4844937128733,171.32193460655503,28.614362770653194,187.13271536784768,67.97639362944022
176.0381998216771,160.80862027887645,138.41342984661975,171.16011965206476,28.572734068121612,188.9537317100785,67.87330243373522
177.89244034637065,160.76490755354348,138.3389944334938,171.019564922232,28.527670073232542,190.7106475989529,67.76281491974697
179.73238661106697,160.709447606149,138.2608783957206,170.9008365166812,28.47925435612009,192.40068179825315,67.64534726454693
181.55174857673205,160.6428736552878,138.1787984721351,170.804409993419,28.427587136586336,194.02153227312903,67.5213411400562
183.3443341125232,160.5658005505775,138.09248626832493,170.730701839859,28.372783236597645,195.5712457794672,67.39125468391877
185.10402306919033,160.47884497218553,138.00167204099736,170.68008249632143,28.314973992014323,197.04812887405922,67.2555844734144
186.82471427941917,160.38267986143663,137.90612918508486,170.6528337773204,28.254309090569315,198.4506782126881,67.11488026504924
188.50030137735135,160.27803221248723,137.80575793908068,170.649134704594,28.190953690279795,199.77751856491588,66.96972506455928
190.12471443492907,160.16563284291905,137.70061377568325,170.66911376740234,28.125085235214993,201.02741197285388,66.82070520805512
191.69198098905213,160.04621068314825,137.59085545951467,170.7128777367188,28.056897505704157,202.1993774074841,66.66840542308223
193.1962414974721,159.9205490492481,137.47669347081361,170.78047169941655,27.98660614271556,203.29281433726425,66.51342068709417
194.6317285999669,159.78951207857065,137.3584040160267,170.8718565483927,27.91444522814878,204.307499975878,66.35635055100366
195.99276682929857,159.65399749593237,137.23636915288705,170.98695046044665,27.840657546700452,205.24347639135772,66.1977735437316
197.27380479054023,159.51489324896946,137.1110633380171,171.12565081720174,27.76548851053733,206.10092534428526,66.03824016063389
198.4694379706221,159.37309544164714,136.98298433337072,171.28778997612213,27.689185606164788,206.88008982326832,65.87830524003532
199.57439670729246,159.22952638302726,136.8526028457588,171.47310586244262,27.61199544312224,207.58125769580639,65.71856479755397
200.58353006195804,159.0850887286029,136.7203682990657,171.68127305707645,27.53415347691962,208.20479593978376,65.55965407540988
201.4918390590881,158.94060888790816,136.586728778505,171.91191697938623,27.45587078524795,208.75120410816191,65.4022166128491
202.2945615181434,158.7968603078248,136.45213725954872,172.16457049440456,27.377323434512505,209.22115358967693,65.2468867311032
202.9872417272464,158.6546440924184,136.31706775481737,172.43865114994148,27.298645537986744,209.61549519489296,65.09429490058798
203.56575192480827,158.51481473420273,136.18203109701648,172.7334974786833,27.219926305584817,209.93527956096327,64.94506350738176
204.02632892619621,158.37821975646344,136.04754446812393,173.04838540815308,27.141211262957235,210.18185781230898,64.79977562404557
204.36566736924422,158.24564554952354,135.91406803875947,173.38248478559402,27.062505950578235,210.3570056272007,64.65894574584446
204.58100510400274,158.11783030751096,135.7819797023494,173.73483346556978,26.98378351896907,210.46293712549246,64.52302464979527
204.67015355446895,157.9954829168732,135.65161133469846,174.10437455124327,26.904997568539265,210.50221101761096,64.3924240722367
204.63152211200588,157.87924234443744,135.52328672842918,174.4899833264525,26.826091752577227,210.47765430314988,64.26752045715045
204.4641689336804,157.76962714832806,135.39731323982937,174.8904253129454,26.746999000342612,210.39234568896083,64.1486325097567
204.16783281348856,157.66706145062548,135.27394745879926,175.30431061398522,26.667640284258788,210.24957567448826,64.03601558567499
203.74290927830333,157.57195316821299,135.15336457223776,175.73013126808482,26.587938753074503,210.05273047164917,63.929901235332856
203.19040694372023,157.48471845882258,135.035634355346,176.1663466328009,26.50784844907697,209.80516316985933,63.830545822131825
202.51194639204508,157.40573243543463,134.92070190168263,176.61140934107655,26.427379892256152,209.51015189943132,63.73823730508944
201.70979501083775,157.33530156079732,134.8083748752019,177.06372016984747,26.346608776693845,209.17095922538095,63.65326824840026
200.7868636448134,157.27370354950344,134.69832594969972,177.52160771872173,26.265668893330094,208.79091086197548,63.57591990069082
199.7466450106731,157.2212147904799,134.59012982054418,177.98337337583513,26.18473886987389,208.37344090729908,63.5064664154254
198.59315845542258,157.1780686077341,134.48332653049042,178.44732537404235,26.10403094923238,207.92212304297672,63.44516740491545
197.33092647345862,157.1444166067285,134.37747459318143,178.91174493025503,26.023782805069263,207.4406769800298,63.392235815049695
195.96492763078334,157.12036084630486,134.27220930744494,179.37484478117872,25.94424977893642,206.93290177792548,63.347813481820026
194.5004944492101,157.10599494943793,134.16733354619933,179.8348003743495,25.86569851748,206.40254952024708,63.31198526821907
192.94320638541402,157.10137475641017,134.06288463403612,180.28982204104497,25.788407119826722,205.85321138764346,63.28481135154093
191.29884539713296,157.10646358170362,133.95914396630354,180.73817124543348,25.712673004041328,205.288268053008,63.266332206882595
189.5734082543925,157.1211466147296,133.85664274939006,181.178114286241,25.638821480009277,204.71092617760752,63.25654270798928
187.77310115895034,157.14530007557042,133.7561828408281,181.6079055887754,25.567208199933003,204.1243290337168,63.255378893257884
185.90428926590118,157.17881245524168,133.65886282924998,182.02583573775885,25.49821502804788,203.5316597779899,63.26274243386298
183.97346824804134,157.2215316112208,133.5661348675765,182.43026547064804,25.43224394984587,202.93614492161768,63.278530963286315
181.98729214501085,157.27322639176123,133.4798745466883,182.81958792343534,25.36971202002579,202.3409589241211,63.30263461366702
179.9525792214813,157.33361706461957,133.4023781073222,183.19218218935617,25.311042609770507,201.7491074040211,63.33491100100255
177.87624046162506,157.40240861769388,133.3362528676747,183.5464454503135,25.25665092170354,201.16334636272254,63.37518005953725
175.765209193233,157.47925937504056,133.2842695271949,183.88087463195515,25.20693265546008,200.58612984125705,63.4232441415314
173.62646679759447,157.56373386516938,133.24924269305117,184.19409249974672,25.162266682303336,200.01954947147,63.478896317050335
171.46712192940217,157.65532663463762,133.23392477278557,184.48480163075527,25.123035189977177,199.4652634027068,63.54189603684622
169.2944224469877,157.7535372544261,133.24089205674824,184.7517581702856,25.08964970781905,198.92445316776244,63.611939623699726
167.115681439015,157.85789399553212,133.27247784732387,184.9938085068415,25.062562590891105,198.39783220987505,63.68866450847607
164.93820434083574,157.9678955218874,133.33080650789003,185.20991704800954,25.042258915976625,197.88567781236168,63.7716841136007
162.76925069471235,158.08295473065456,133.4178752577914,185.39913014011086,25.029241814339304,197.38783708342467,63.86060898735279
160.61598196505633,158.20241788283252,133.5355890279942,185.56053993571152,25.02402024420633,196.90370659360667,63.955032668533654
158.48538503177306,158.32561920979373,133.6857207844465,185.69333211495362,25.027098804212496,196.43224716328197,64.05451490863734
156.38422215672017,158.45188489034734,133.869827899986,185.79687960307274,25.038967612723216,195.97206237090782,64.15859192050183
154.31901340087992,158.58049134890138,134.0891980635976,185.8707683001943,25.060089975206914,195.5214807229242,64.26679310956155
152.29599220107664,158.7106662911442,134.34492970005405,185.91473459909818,25.09089456164118,195.07859842285117,64.3786338556302
150.32101171195706,158.84165283046795,134.63816074523888,185.92861190499528,25.13178792768717,194.64133123711932,64.49359960849989
148.3994639535681,158.97274735105546,134.97029484061565,185.9123434512395,25.183182189075204,194.20750615572217,64.61116113050814
146.53628743449718,159.10326271708638,135.3430866779774,185.86599948810988,25.245506647175283,193.77493222532436,64.73081829911102
144.73604626075527,159.23248930208658,135.7586282210212,185.7897365742395,25.319187519997037,193.34141248564688,64.85212310153892
143.00297536452103,159.35971522597777,136.21931373447427,185.68374885420357,25.404614575565912,192.90476173318885,64.9746588039874
141.34095868804403,159.48425343276608,136.72775681135988,185.54829417706213,25.502123814935782,192.46287671147306,65.09801227457457
139.75353955850667,159.60540904061705,137.28665728505922,185.38376843770922,25.612004832739732,192.0137913804568,65.22177912761907
138.24400913546788,159.72242511469778,137.89869043267808,185.19072385241807,25.734511834250767,191.5556646801285,65.34558825592653
136.81546703601973,159.83449393396145,138.56643761972722,184.96981310088438,25.86985566568514,191.08676534811565,65.46910301285946
135.470782381064,159.9408298480219,139.29233423072168,184.72175222813988,26.01818417837172,190.6055118157287,65.5919904395567
134.21253768729088,160.0407056910297,140.0786281877982,184.44734951952458,26.17958068406615,190.11052754552577,65.71389516529077
133.0430351551503,160.13340680385735,140.92731814644338,184.14752842862737,26.35409498620199,189.6006823653662,65.83444497271076
131.96431491731008,160.21817741723302,141.84007095266875,183.82328202442162,26.541781372411837,189.0751579512153,65.95326752102264
130.97811490503676,160.2942484718904,142.81821174774197,183.4756169433233,26.742708017629855,188.53353287936676,66.06998530412277
130.0858111873511,160.36092386356648,143.8628234667788,183.10557514778768,26.956937038838962,187.97580766422138,66.18419540069759
129.2884262740153,160.41761802360224,144.9748704937665,182.7143055856241,27.184499766966375,187.4023291604758,66.29546876274665
128.58669664891727,160.4638120141913,146.15529921918406,182.30307848940956,27.425380765525247,186.81367009491498,66.4033753901744
127.98110113961181,160.49902535530072,147.40511473376068,181.87322252872335,27.679508235050005,186.21055645273208,66.50750028660227
127.47182655122778,160.52288387355438,148.72539710655516,181.42607636920565,27.946757571042955,185.59388037119987,66.60742873759806
127.05876118984422,160.53521843204575,150.11726787531413,180.9630043708441,28.226982289660317,184.96474121590796,66.70272822753432
126.74155387587471,160.5360802145459,151.581860611689,180.4854120248243,28.520055782353865,184.32443988913258,66.79296127610012
126.51965217821083,160.52568077088512,153.12027221031033,179.99470193252122,28.8258905370576,183.6744368344212,66.87771748217024
126.39226105063565,160.50435588623583,154.73343673617532,179.49222505394516,29.14444479793534,183.01632303071617,66.9566231655514
126.35829555038998,160.47257430020255,156.42195887865313,178.97931397633502,29.47574423572144,182.35179026203215,67.02931940755632
126.41640904603244,160.43091990906282,158.18603818637055,178.4573690796577,29.819896980074635,181.68257097280204,67.09544624050514
126.56504556933155,160.3800271992881,160.02553476746175,177.9278834566108,30.17706861503892,181.01038256133404,67.1546605835482
126.80242277356534,160.3205338794886,161.94004277845,177.39238164994822,30.54742934057075,180.33691265167207,67.2066635282555
127.12647886209264,160.25307801740846,163.9288499622058,176.85236770641285,30.931103173481738,179.66380974560983,67.2511999486484
127.53490968863015,160.17828591573866,165.99083610510624,176.3093374909713,31.32813966152161,178.99264010636844,67.28803929341082
128.0253172276666,160.0967140734427,168.12439647668793,175.76479159738707,31.738526203250053,178.32483832617072,67.31697654656686
128.59534094679995,160.0088016183326,170.32738231881117,175.22019457926746,32.16223590827115,177.66168132548648,67.33785814083495
129.24268906873095,159.91491901177656,172.59702638860225,174.67694170828378,32.59927043977854,177.004261354923,67.35059429130087
129.96511487125048,159.8154893505552,174.929883994534,174.13640489407857,33.049671011469194,176.35343392676742,67.35513871707936
130.7603742639328,159.71105322765084,177.32184043658472,173.60000362475185,33.5135113967395,175.70977149313214,67.3514721234196
131.62614682871651,159.60222950723994,179.76817040523483,173.06920032147627,33.9908871615182,175.07357815564671,67.33963233510515
132.5599415969249,159.4896689055741,182.26360802011234,172.54544020797286,34.48189655669664,174.44496637176914,67.31977336538812
133.55905525053387,159.37407231204307,184.80241980369402,172.03014343513829,34.98661127781857,173.8239319086472,67.29219127330768
134.6205925645557,159.25621686048757,187.3784578184182,171.5247614629094,35.50504667375189,173.21039649665286,67.25729657294926
135.74147435645114,159.13691844411701,189.98515522164226,171.03079393736937,36.03714305819208,172.60424914705072,67.21558087596259
136.91838721130705,159.01696651807507,192.61549026809294,170.5497304021872,36.582761502006285,172.0053849896209,67.16761965428273
138.14773189997487,158.8971095976463,195.26198326742076,170.08300948213696,37.14168713561723,171.41370158685345,67.11408901894762
139.4256462625626,158.77808063940924,197.916756237149,169.63204419922965,37.71363170119818,170.8290612888854,67.0557518110538
140.74807912047817,158.6605904788672,200.57166643045363,169.19823443299,38.29823079403643,170.25128073263096,66.9934170173627
142.11082107092128,158.5452935546621,203.2184891816355,168.78291419947135,38.89502946811379,169.68017913793014,66.92791528643986
143.50946441320218,158.4327960906887,205.8490486906886,168.3873048904478,39.50345317104146,169.11563716536722,66.86010190674179
144.93936252419334,158.32370096503485,208.45524784584174,168.01253274192982,40.1227740162343,168.55759680821348,66.7908517612462
146.3956514086755,158.21860480755927,211.0291001315451,167.6596483624711,40.75208813175549,168.0060091744739,66.72102516667127
147.87330876761533,158.11802312608017,213.56284452196712,167.32958102503602,41.390314597016,167.46079197126087,66.65143342399413
149.36718439389853,158.02232552194639,216.0490602252052,167.02308312531045,42.03621414854261,166.9218161471412,66.58283969224736
150.872008603353,157.93176936878606,218.4806721661335,166.7407620937707,42.68841619098879,166.38889239751788,66.5159844938923
152.38245575702794,157.84660508028077,220.85085500658485,166.48317427331796,43.345453787703974,165.8617450174242,66.45159214340026
153.8932621648662,157.76713299593766,223.15293224414708,166.25086211129167,44.005812276451394,165.340005916732,66.39034483146828
155.39930004856126,157.6936751588624,225.38039104942592,166.04432152175485,44.667971729679294,164.82326672301403,66.33286219795416
156.8955893510821,157.62655809526962,227.52704679437974,165.86401071180393,45.330415139538495,164.31116291720963,66.27971570164499
158.37734177207602,157.56615817844772,229.58721858910536,165.710425836767,45.9916062497901,163.80342096966424,66.23145071334828
159.84005263884788,157.51292935843045,231.55576950014978,165.58413093520244,46.649964359829845,163.2998687881136,66.18857702501688
161.2795347683163,157.4673532277005,233.42806224840862,165.4856935913262,47.30385902559823,162.80046992612307,66.15153945580765
162.6918561862607,157.42988204608358,235.19998829618385,165.41562273583796,47.951627314160135,162.30537017911595,66.1207121801615
164.0732831220328,157.40094729560062,236.86809615791407,165.37437673209607,48.59159207764455,161.8148819085013,66.09642434679911
165.42030152376302,157.38097918942958,238.42967957343777,165.36237427521243,49.222073381880776,161.32940179762846,66.07897628724861
166.72964914278157,157.37036139071282,239.88272649985646,165.37993634053328,49.841438210853326,160.84933791492722,66.06861948096942
167.9982759797029,157.36936199609426,241.22578206147713,165.4272169744747,50.44822410841848,160.37508585068838,66.06552466986827
169.22326776438814,157.37813312439266,242.45782951324102,165.50422680605618,51.04127356342295,159.90701960774228,66.06977289608382
170.4018096921737,157.39677459306688,243.57822492417435,165.61092637695788,51.619781202020086,159.44547602270555,66.08136617491067
171.53119562796917,157.42536068045374,244.58664735348495,165.74726381133823,52.183252929925345,158.99076357871832,66.1002274186203
172.60884532412072,157.46388960948713,245.48306326699367,165.91313497889013,52.731461452604776,158.54320139417823,66.12618247447365
173.63233126651264,157.51223971462838,246.26777620823484,166.10837766448938,53.26444686929157,158.10313878950842,66.15895628905515
174.5994400751204,157.57019586473876,246.94155295993028,166.33283234350733,53.78252749087421,157.6709370776428,66.19820514855512
175.50824438330594,157.6374907530464,247.50568703559236,166.5863619923243,54.28627910771831,157.24696602393124,66.24355607074715
176.35712155670097,157.7138086428293,247.96192041588262,166.86878339473216,54.77648777338696,156.83164356833066,66.29461198165662
177.144711694926,157.79880949043553,248.31236490065118,167.17980654376885,55.25408793373762,156.42546268240645,66.35092661865328
177.86988093598586,157.89222762108898,248.55969292221684,167.5190457316414,55.72008695016812,156.0289580021521,66.4119884125308
178.5317195107817,157.99397198997036,248.70761908818326,167.88602989506825,56.175488974261526,155.64266295523063,66.47723346280787
