HandOpen,HandClose,Wrist Flexion,Wrist Extension,Supination,Pronation,Rest
158.8157298405821,222.54803145416076,187.56377745119522,283.8871930280362,77.96389192276239,142.56510256893247,67.22004632295469
158.46526104062178,221.96246784581217,187.60002729313334,282.7004580921144,77.5434149300489,142.4494442651453,67.2476476659724
158.08850943857087,221.36651461367723,187.66075502014039,281.42162349849826,77.11986437376228,142.32873502556612,67.26263714314783
157.6870386904147,220.76676018935936,187.74565364137382,280.05584218179445,76.69567485478917,142.20194402312293,67.26500014023219
157.2624615792449,220.16977861682332,187.8543390518038,278.60828014776905,76.27329456640949,142.0679634149796,67.25479068072687
156.81644345984031,219.5818859650193,187.9862564161175,277.08410629869667,75.85512567681111,141.9256265820111,67.23213878658167
156.3506991143657,219.00896141846613,188.1405916037118,275.488422354865,75.44351715753781,141.77377853466763,67.19727515449851
155.86694316908557,218.45631607945037,188.31626755713503,273.8262002941072,75.04077639788026,141.61136167252477,67.15052988445966
155.3668467625112,217.928599949064,188.5120099498652,272.1023141979282,74.6491558166611,141.4374606325307,67.09230006297099
154.8520636948958,217.4297919320523,188.7263859024585,270.3216263092265,74.27081182435633,141.25132893634523,67.02302708152136
154.32429164677635,216.96327469958453,188.95779127864773,268.4890066729563,73.90776199752001,141.05246876921805,66.9432094514549
153.7852816218827,216.5318891555795,189.2044599737162,266.6092703047835,73.56185312755592,140.84074308193655,66.85342343265003
153.23679428758334,216.13790040870853,189.46452275952757,264.68714025406354,73.23473205106576,140.61642165117,66.75431261441491
152.68058988691124,215.7829631761141,189.73605547997377,262.7272792220702,72.92781278353812,140.380131627793,66.64655414924388
152.1184780004675,215.4681984973526,190.01706179339067,260.7343044458023,72.64224588059862,140.13277974995984,66.530840996856
151.55234433399377,215.19433631352533,190.30539851518435,258.7127422502072,72.37890190295339,139.8754985111236,66.40788942161755
150.9841001864277,214.9617814221167,190.59870201387562,256.6669923146342,72.13837560846841,139.60959035951763,66.27843835381317
150.41561997411097,214.7705590515181,190.89437534205658,254.60133729302896,71.92099885563117,139.33643560373093,66.14322217735698
149.84875143393447,214.6202112217655,191.18966356329594,252.51993089991623,71.72684562152325,139.05739049908735,66.00294828845388
149.28537284833692,214.50970393968632,191.48181676180914,250.42673058849726,71.5557399644605,138.77372569466118,65.85831238427208
148.72740141083082,214.43736276454283,191.76827994707878,248.32545477144276,71.40728464917045,138.48661041197093,65.71003098522425
148.1767332892534,214.40086376887092,192.04678795366883,246.21963660562776,71.28089377515437,138.197101812762,65.5588446135493
147.63518933292946,214.39730869716487,192.31532634131852,244.11271478306557,71.17580569957732,137.90612277112757,65.40548662803228
147.10450385196398,214.42334426053557,192.5720676535651,242.00805944991274,71.09108500274976,137.6144637194955,65.25065989857256
146.58630856374126,214.47523133812675,192.81537278052997,239.908954121161,71.02563342505175,137.32281883583073,65.09504926598623
146.08207868069692,214.54884393806307,193.04383703703556,237.8186219446624,70.9782097656592,137.03180312087454,64.93934442633852
145.59309424744922,214.63970741281403,193.2563685903746,235.74027500915315,70.94744150606635,136.74192521480109,64.78423392548032
145.12048040741894,214.7431849741577,193.45229779779254,233.6770934566559,70.93182411642036,136.4535773311982,64.63037579461329
144.66529007278615,214.85474269817328,193.63142964185798,231.63215786233596,70.92973691576324,136.16710603641087,64.4783847125052
144.22853026234267,214.97009765085,193.79397614085008,229.6084741785819,70.93949724438394,135.88292541922144,64.32884698020501
143.81111573311918,215.0851816557466,193.94045600932978,227.60911645425833,70.95942245011476,135.6015710836881,64.18232828519949
143.41383170235142,215.19604995589043,194.0716778646905,225.63732412078252,70.98785469900638,135.32367548171277,64.03935040056355
143.03734887405258,215.29888437167367,194.1888031982588,223.6964608906242,71.02314854395308,135.04994067208594,63.90036368700519
142.68223670064032,215.39009384093825,194.2933861066313,221.7899370834283,71.06365517826758,134.7811441398533,63.76575218233981
142.3489280744864,215.46638411153094,194.38730568560092,219.92117081342923,71.10772626539907,134.51813725926758,63.63586267207266
142.0376839829729,215.52474384964168,194.47260891676325,218.0935324066106,71.15373117095947,134.26181586733804,63.51101560776588
141.74862985073676,215.56245059187273,194.5513449387385,216.31025733350248,71.20006944125305,134.01310356838312,63.391486005128726
141.48183644861592,215.5771432078077,194.62544338193413,214.57443839173789,71.24517122891814,133.77297650575235,63.277495277546784
141.23735115892737,215.5668686807169,194.69666068919264,212.88914181799038,71.28748899467803,133.54248690133647,63.169246560554186
141.01516705906226,215.5300875153794,194.76661534852093,211.25749641106444,71.32548634670249,133.32274902395912,63.06697174878253
140.8152134584604,215.46572367575627,194.8368667033549,209.68263479783985,71.35762859510875,133.11493508985603,62.97093928248524
140.63739854204786,215.37322703670986,194.90893302350017,208.16758570021793,71.38237603101591,132.9203107459601,62.88142862418534
140.48163029671832,215.25254409020394,194.9842367933651,206.71525761414327,71.39818964546294,132.74023897135365,62.79871669177678
140.34776830308468,215.10403855201352,195.06407636210727,205.32848487546278,71.40357214218362,132.57610693500206,62.72308659335182
140.23557010239577,214.92848059969626,195.149683843774,204.0100119140499,71.3971420418661,132.4292534623196,62.65482487348407
140.14471054223242,214.7270873718579,195.24234762482058,202.76240927679234,71.37769481700064,132.30097759679845,62.594190736251164
140.0748456584723,214.50149900882852,195.34354044844434,201.58803593260296,71.34421715048026,132.1925839176374,62.54138854981506
140.02562798827373,214.2536910399234,195.4549691962478,200.48906919132887,71.29587633097469,132.10537128209532,62.49657889423555
139.99665991652972,213.9859355754673,195.57851473098097,199.46749510350492,71.23202783266942,132.04056241079854,62.459914263528965
139.98746773287456,213.7008166820052,195.71613452760025,198.52502597692984,71.15224486857987,131.99924671248874,62.431551739328675
139.9975367241002,213.4011844934972,195.86980973314618,197.66303072295636,71.05633061593373,131.9823803652778,62.41162862574654
140.02634203048171,213.0900037230661,196.04155800024074,196.88251548832042,70.94429500309954,131.9908165571892,62.40023997916785
140.0733169062291,212.77016262044592,196.233481476815,196.18409670232788,70.81632132081823,132.02530652374668,62.397449118176425
140.13780572066273,212.44431546948408,196.44778069556702,195.56794805810924,70.67273969655395,132.08646813546656,62.40330742179119
140.21908004109295,212.11478617972168,196.68670104763893,195.03380460826267,70.5140016110595,132.17477820682,62.417844406196274
140.31639963654976,211.7835302456929,196.9524442615563,194.58106700994693,70.34065206487166,132.29059267008608,62.44103374492755
140.42902826978977,211.4521599690759,197.2470621971804,194.20891028280556,70.15329859074495,132.43413373147885,62.47277429985667
140.5561820118339,211.12201601862972,197.57233114923193,193.9163364415883,69.95258128141987,132.60543270661486,62.512901554128746
140.6969902269056,210.79420280700103,197.92963803708406,193.70224875404517,69.73916917192113,132.80430098107703,62.56120206371611
140.8505316037068,210.46954371002667,198.31992986089247,193.56555862926484,69.51380331257151,133.0303831419498,62.617405131481796
141.0158972945505,210.14856088147232,198.74376984962794,193.5052013219911,69.27735635082796,133.28323821291698,62.68116964896975
141.19219709484037,209.8316198088697,199.2014728561159,193.5200273697931,69.03085682563686,133.5623570478431,62.75209736502412
141.3785216127948,209.51918769772283,199.69318722039378,193.6086956352185,68.77546574537739,133.86712725694716,62.82976159893539
141.57394775875716,209.21198503884872,200.21884000141762,193.7696531700476,68.51242542335869,134.19683524597704,62.913712894666375
141.7775996954157,208.91094896692584,200.77802593312703,194.00113686676252,68.24300162021724,134.55071973724176,63.003456323978085
141.98867826651775,208.61715641865618,201.36994134314048,194.30111976157875,67.9684389247584,134.92799927083144,63.09843644928331
142.20641850717274,208.33181080636285,201.99335736129237,194.66725326189518,67.68994923653922,135.32784187926308,63.19805244503814
142.43004376806243,208.05622141689258,202.6465859867814,195.09688978497783,67.40873882193148,135.74934125014173,63.3016793578903
142.65877167673207,207.79170763681745,203.32745463709443,195.58714393267732,67.1260449280391,136.19154743891028,63.40866440457265
142.89182781591228,207.53948490472737,204.0333460785122,196.1348867712638,66.8431383030565,136.65350290503883,63.51830979218422
143.1284133699615,207.300615687832,204.76128900767242,196.73668436903236,66.56129044959873,137.1342188023036,63.629878087833326
143.36766332862155,207.07601438378447,205.5080074999863,197.38881177390635,66.28175079956132,137.63262412159057,63.742623409674344
143.6086634893622,206.8664345386166,206.26989072905826,198.08738815447072,66.00575753742258,138.1475774979778,63.855811631833824
143.85050778122334,206.67241845408344,207.04293808391543,198.8284948522305,65.73454924895623,138.67794101363546,63.968709489365715
144.09231196685815,206.49424793972287,207.82273358536028,199.60819064682275,65.46934489939495,139.22261599492262,64.08057059448394
144.33316783353743,206.33190771492156,208.60445480530262,200.42256470116976,65.21131169258646,139.78051114259546,64.19065144342731
144.57211386962783,206.18504942736917,209.38292736549477,201.2679226588914,64.96155217897754,140.35053183852688,64.29824541095776
144.80816198126587,206.05300199898102,210.1527595760089,202.14094325604208,64.72110407272957,140.93162797249755,64.40269439417148
145.04032202760538,205.93486773948067,210.9085279323552,203.0386729468687,64.49092975589824,141.52282097430538,64.50336831637533
145.26757613860715,205.82961796742745,211.64490806705163,203.95847502616908,64.27189231314993,142.12317341901752,64.59964746667518
145.48885211931503,205.73609005246948,212.35671227224705,204.89803918012214,64.06473203585307,142.73177348052303,64.69093455927289
145.70306315230118,205.65292172332698,213.03891123800742,205.85536613300852,63.87005181484945,143.34776792018255,64.77667499665738
145.9091851156446,205.57849709336762,213.68670132072822,206.82865984100712,63.68830407843051,143.97037206469875,64.85635258560384
146.10628157041953,205.51090668842454,214.29557484704188,207.81621424265646,63.51977043448275,144.598804886682,64.92947286424838
146.2934586145049,205.44789946428696,214.8613303508819,208.81636957713843,63.36454036300417,145.23220368906598,64.99557384138089
146.4698253089142,205.38685467512738,215.38005500790752,209.82747809202715,63.22250934411958,145.86960880659043,65.05426607141133
146.63450664445176,205.3248358050814,215.8481527976221,210.84781759077674,63.09341068404292,146.51001926304983,65.10525717760031
146.78666277217673,205.25871990366937,216.2623906384931,211.87552990823292,62.97686240018307,147.1524242080322,65.14833608499559
146.9254642859575,205.18529565088522,216.6198772056475,212.9086868998429,62.872391441892184,147.795768874263,65.18335030052951
147.05005933073653,205.10127686233383,216.9179871305519,213.94541762568883,62.779435843924084,148.43892858124562,65.21021658382811
147.15959899465233,205.00334375184352,217.1543326827076,214.98393837441455,62.69737658610441,149.08073578170166,65.2289515661693
147.25330429836305,204.88833594022083,217.3268256204979,216.02247442210515,62.62562500026136,149.7199987105115,65.23967549156859
147.33049117969483,204.753516773173,217.43374986769743,217.05919386252847,62.56371194864522,150.35546163552988,65.24257882134759
147.3905338929066,204.5967199087691,217.4737599509986,218.09219255631305,62.51131986993649,150.98575376511374,65.23789289321584
147.43284104820017,204.41636146850297,217.4458227840566,219.11946940218309,62.46827233217068,151.60938888983895,65.22589671480681
147.45688895649266,204.21143494728332,217.34915408953506,220.13889517452796,62.43452629305334,152.22479553359074,65.20693668420853
147.4622567040704,203.98150171127713,217.183150735845,221.14825568453583,62.41017602583453,152.83031614076734,65.18141784665647
147.44860318868106,203.72662536539067,216.94731110612722,222.14535744445328,62.39544589027534,153.42417970317473,65.14977078747152
147.4156247629419,203.44727070471606,216.64117472169187,223.12807207284052,62.39065569736826,154.00451175490835,65.11243547085469
147.36307210623787,203.14421019695834,216.26432945600166,224.0942911027538,62.396169891901,154.56939207644476,65.06987473697004
147.29081562830316,202.8184468755986,215.81648313436213,225.04191021874632,62.41235264556961,155.11689440612975,65.02258234639943
147.1988697370657,202.47115647284443,215.2975231142315,225.96889013546925,62.439535057298315,155.64507607802136,64.97106012280062
147.0873468217239,202.1036684018814,214.7075204550205,226.87328989827046,62.47799717063712,156.15196743888714,64.91578623606694
146.95641078296057,201.71748912507894,214.04673425746262,227.75324229220726,62.527977464412494,156.6356025539616,64.85720498876599
146.80627997723312,201.31430584348354,213.3156721992172,228.60701645717882,62.58969974321064,157.09405689624387,64.79573178404728
146.63723775950615,200.8959206131878,212.5151723104188,229.43321556662858,62.66337963131512,157.52544437016982,64.73174510117599
146.4496002467335,200.4641979788399,211.64642554726743,230.23090910695163,62.74919670193874,157.9278995407973,64.66556154628744
146.24367665492971,200.02114204696738,210.7109167787689,230.99957468705196,62.84725600906986,158.29961369814603,64.59742507500688
146.01979467756658,199.56904817938752,209.71034174847628,231.73902013148344,62.95756109015981,158.63892181807358,64.52753213617598
145.7783776448511,199.1105819444295,208.6465692869482,232.44944212919174,63.08000260551968,158.94435620387802,64.45606690627277
145.51997919706065,198.64878497720005,207.52165904449984,233.13149955043798,63.21436439495646,159.214639090165,64.38320772221759
145.2452419060824,198.18707927018926,206.33788064737735,233.78624774322444,63.360342809088365,159.44869121939257,64.30911165540512
144.95485266811642,197.72921674493523,205.09769711403726,234.41500896684784,63.51755930182677,159.64569145065693,64.2339168685512
144.64954830581166,197.27911688031864,203.8037318525393,235.01930369694452,63.68555574890187,159.80511350752784,64.15777014755555
144.33012610009413,196.8406871602152,202.45873086399055,235.60080131399138,63.86378776583168,159.92670198889928,64.08084211720809
143.99740839610794,196.4177570903067,201.06550472319455,236.1612132538073,64.05163422007445,160.0104489305274,64.0033073321267
143.65220726844856,196.0141150522291,199.62685969118158,236.702185699119,64.24842503316108,160.0565994144911,63.92531662613277
143.29536862436606,195.63350754914623,198.14555333746057,237.22529752264472,64.45347075917823,160.06563233821655,63.84699871696712
142.927870247474,195.27953144691037,196.62427959761985,237.7321411948855,64.6660714688892,160.03818812487688,63.76848513185194
142.55086215732436,194.95553340724595,195.06564847074912,238.22434345252213,64.88549820242037,159.97499717049897,63.68991892178015
142.16561454311767,194.66464784931725,193.47214331827982,238.7034717877029,65.11096028284628,159.87687274468004,63.611434001519
141.77346168157115,194.40991403953655,191.84608142946627,239.1709370324933,65.34157856531353,159.74474934136146,63.53314134902911
141.3758176301667,194.1942999367213,190.18960663558283,239.62796461318877,65.57637524560405,159.5796883891987,63.45515206369112
140.97422190634137,194.0205971964008,188.5047100962056,240.07558138232108,65.81427575724003,159.38283689911808,63.37761099564745
140.57032875511362,193.89130365666747,186.79324849917708,240.51460706163485,66.05411388578344,159.1554031487572,63.30069774732833
140.1658471318846,193.80855489491546,185.05693650136442,240.94570854149345,66.29463483250146,158.89866934918223,63.22460017353857
139.7625182885102,193.77406580677808,183.29732218327032,241.36947635170765,66.53449196770435,158.61398556059524,63.149501900865914
139.36214964117477,193.78908705597163,181.51576939268153,241.78641870706988,66.77223825180864,158.3027152854729,63.07559747749151
138.9666235550239,193.85444362088077,179.71345986512884,242.19690661454194,67.00632582001606,157.96617355625386,63.00310270604221
138.57784270069862,193.9706327235661,177.8914135097506,242.60119887209945,67.2351271726074,157.60560090947172,62.93223456966034
138.1976838069491,194.13785966538404,176.05052208726244,242.99953706768179,67.45697255968877,157.2221603979411,62.863182261267674
137.82801466183608,194.3559867592521,174.19159901118547,243.39216525950243,67.67018825686355,156.8169214384413,62.7961043850285
137.4707175387737,194.62451141622074,172.31543524609913,243.77922436273298,67.87312887068737,156.3908435730353,62.731147996200505
137.12765047642148,194.94262578250968,170.42282710019975,244.1606426841018,68.06419977123468,155.94480954406066,62.66845264081749
136.80058446640464,195.3092745103904,168.51456458487263,244.53617292058254,68.24186269541431,155.47969766794841,62.60812719627825
136.49120210687252,195.72318628924987,166.59141080105067,244.90557094908942,68.40462631483052,154.99641850004042,62.55023284366378
136.20115009874502,196.18296255056595,164.65409779921623,245.26874498976014,68.5510404306006,154.4958929465043,62.49479995579668
135.93205009373435,196.68720434595832,162.7033347537506,245.62576811131032,68.67971748937063,153.97903451895985,62.44185614530103
135.68543483577045,197.23454508166654,160.73981521725545,245.97680655894217,68.78938047524072,153.4467699181019,62.39142745370312
135.46268717158074,197.8235799784877,158.76422037832353,246.32201198360124,68.87890623298242,152.90005109630948,62.34351990172041
135.26503848620032,198.4528337299206,156.77722129430813,246.6613735975662,68.94734522571282,152.33982273950323,62.29812123187144
135.09357772251235,199.12082701340012,154.77947726180426,246.9945848875485,68.99392766012349,151.76697992326814,62.25522912943126
134.94921225947982,199.82613344610866,152.77162496883233,247.32105556904068,69.01806215197075,151.18236347614257,62.21486601498387
134.83261918349228,200.5673420175454,150.75426005730688,247.64009483394346,69.01932208342289,150.58678447026318,62.17705903290335
134.74426545925533,201.3429892352397,148.72791894487577,247.95107732846037,68.99742499477183,149.98103103760167,62.14182081982882
134.68448252328966,202.15152756117652,146.69307111805085,248.2534371740102,68.95221858041043,149.36585617488572,62.10917241224068
134.65349716398867,202.99129669469235,144.65012950950796,248.54655882979375,68.88367816242406,148.74200129116747,62.07919104358037
134.65138525034865,203.86048609783876,142.59947454905986,248.8296721908543,68.79190587448545,148.1102618795793,62.05202724283981
134.678031423147,204.75713417760502,140.54147948975358,249.10176313979096,68.67712057309764,147.4715236238793,62.02787523511255
134.7331710393871,205.67914964276528,138.47653441897006,249.36150014809064,68.53964606345164,146.82673596929826,62.00693859877457
134.81647169770068,206.62430274188205,136.4050767158197,249.60721524870135,68.37991307234189,146.17687888312835,61.98942607880099
134.9275549781999,207.59021085881434,134.32762574365216,249.83694980840005,68.19847850769476,145.522964239187,61.97555920809358
135.06594956125352,208.57438647241585,132.2448033430078,250.0485016200334,67.99606076256165,144.86603774468824,61.9655566481894
135.23105981161552,209.5743239796098,130.15732977772825,250.23941576822014,67.77357617851656,144.20714803684012,61.959600348736615
135.42218423368627,210.58751338139885,128.06600811176165,250.40696903349823,67.53214185054745,143.5473119676052,61.95782202392952
135.63852339387526,211.61134691663005,125.97171432482273,250.54824583597662,67.2730350940372,142.88751014894115,61.96032328041107
135.8791394412094,212.64300832341965,123.87539393070034,250.66028854334047,66.99764377446277,142.2286888630745,61.96719471614532
136.14291655976663,213.6794226871588,121.77805193509525,250.74021621479196,66.70743616360564,141.57173085918288,61.978503117972785
136.42856494527243,214.71725854732844,119.68072863331203,250.78532511569617,66.40394307249056,140.91741675003541,61.99426790216389
136.73463190380286,215.75293907613843,117.58446826612625,250.79324921926852,66.08873544785338,140.2664329721123,62.01447255902345
137.05948089843923,216.78264181284695,115.49029021359966,250.7620939668099,65.76339315513572,139.61942348846284,62.039113963153966
137.4012798654545,217.80228965200217,113.39916695812742,250.69040963275881,65.4294697711024,138.97701631207303,62.068236603577695
137.7580618751434,218.80754345538728,111.31200933084561,250.57707706183257,65.0884656886706,138.33979380282227,62.10191593615959
138.12782947078472,219.79383370436724,109.22966097150088,250.42130516616137,64.74182161866035,137.70825350711618,62.14022037396203
138.5086046329555,220.75650389477914,107.15291316206627,250.22278066828392,64.39093197392793,137.08280279351683,62.183198082826365
138.89839549793123,221.69106286719293,105.0825476736703,249.98178459453624,64.0371657029892,136.46377014361607,62.23088955121431
139.29515661190374,222.5933876483278,103.01938569675083,249.69915992456035,63.68187493174024,135.85139565875255,62.283328892741466
139.69680946393464,223.45975942058465,100.96430882296202,249.37625206428953,63.32637911566658,135.2458110878929,62.3405183397072
140.10129152298097,224.2868300817203,98.91825050210025,249.01491397185404,62.971937188862,134.6470618499313,62.40240760919958
140.50656059165135,225.07164675730115,96.88218713713873,248.61747982530167,62.6197258627959,134.0551755986399,62.46890663721131
140.91055280818745,225.81169080541426,94.85714599640514,248.1866576682765,62.27082107452798,133.47020623076205,62.53990992664349
141.31116419744419,226.50483043300676,92.84421590091489,247.7254581977557,61.92617699098027,132.8922116848128,62.615293815528716
141.7062842571992,227.1492469554708,90.84454374963735,247.23721261855945,61.58661458811865,132.3212176202595,62.69488901378187
142.09382508267953,227.74354108109065,88.85932375424755,246.72555396500482,61.25282675010109,131.75723048496596,62.77846680401327
142.47170417303698,228.28705146377325,86.8897964993043,246.1942875420179,60.92539537619049,131.20028308219744,62.86575918061582
142.8378316668808,228.78009254516328,84.93726457672258,245.64725219611904,60.604833632772625,130.6504477363798,62.95648674673879
143.1901675759087,229.22388581696896,83.00311549915456,245.08825410363127,60.29166221615678,130.10780784107513,63.05036106143295
143.52681538617804,229.62031353381522,81.08883101758737,244.52100911352866,59.98648379852563,129.5724422239893,63.14707274762096
143.84605926307802,229.9717062077482,79.19597280679052,243.94903121395632,59.69001540537215,129.04444041322188,63.24629908701744
144.1463332044231,230.28071697575479,77.32616085755,243.3755473413313,59.403075966840184,128.52390357302602,63.34772659347403
144.42620064084454,230.55024351415864,75.48106699226885,242.80356045654497,59.126545477615124,128.01090921012306,63.45105183876245
144.6843789994381,230.78333823439414,73.6624213605379,242.23601336239705,58.861316769973996,127.50548229515434,63.55595328581676
144.91975196485672,230.98306736630977,71.87200907809246,241.67586360774985,58.608257902892746,127.00761035688878,63.66207086388651
145.13132792022793,231.15235485539247,70.11165073320677,241.12600989700826,58.368186309840404,126.51727337885036,63.76901962626555
145.31819561321814,231.29389592394082,68.3831837389455,240.5891938668487,58.141844628794495,126.03444071148901,63.87641423450167
145.479546133501,231.4101668282859,66.68845081009833,240.0679473283625,57.92987310440498,125.55905195895319,63.98386652883611
145.61473798755785,231.50345544202602,65.0292844658376,239.56453518108327,57.732786534319125,125.0910413278779,64.09095876602908
145.72331847855136,231.57583709105296,63.40748021392779,239.08089466187883,57.55097750584327,124.63040336198672,64.19722934229209
145.80498519218466,231.62910983851037,61.82476064377431,238.61864645554073,57.384758320420644,124.17722838741,64.30218892685126
145.85956305201213,231.66473450903032,60.28273678331752,238.1791616664276,57.23441362552055,123.73168189676478,64.40534141336826
145.88703214006867,231.6837969151557,58.78287240804806,237.7635679361108,57.1002226710594,123.29398312235251,64.50618233532865
145.887543913243,231.68701485246592,57.32646554419238,237.3726708125921,56.98245364965364,122.86441384338049,64.60419411216915
145.86138038541264,231.67481748818923,55.91468394499211,237.00690554216817,56.88136092409988,122.44331805143553,64.69887483378321
145.808909056196,231.64746984693215,54.54866783908325,236.6663804359618,56.797188710513886,122.03106781533813,64.7897876722332
145.7305950478231,231.60519751660792,53.229636795080374,236.350919406915,56.7301628963503,121.62803420141982,64.87657962474549
145.62703821230025,231.54834924475608,51.958926909780935,236.06002961060915,56.68047210255055,121.23459584312513,64.95895559971552
145.49896279613657,231.47760631092657,50.737955754169036,235.79287319899996,56.64825819438032,120.8511531415852,65.03664828755664
145.3471685648802,231.39410827724944,49.56815614461625,235.54832197512738,56.63362214837531,120.47810493516815,65.109416654745
145.1725247503878,231.29944392916946,48.45091396973205,235.32503318346934,56.63662572363831,120.11581131728035,65.1770558972447
144.97602547826426,231.19561152064722,47.387529073857955,235.12149409032168,56.65727603681115,119.76460593045041,65.23938649337704
144.75882260149973,231.08499623787733,46.3792026921665,234.93610779076346,56.695518706402844,119.4248563989398,65.29622922673283
144.52218326527026,230.97037795959244,45.42704448771102,234.76734467718597,56.751270514131136,119.09699683988649,65.34740332941459
144.26743740302823,230.8549937527424,44.53209735486142,234.61383726569264,56.82446790641926,118.78150022250705,65.39275504248664
143.9959924217125,230.74256853667916,43.69538829325197,234.4743393903392,56.91507905889066,118.47884321039498,65.43217730400848
143.70938214624454,230.63726436685394,42.917996847059854,234.34765101984343,57.02307349019715,118.1894987620218,65.46559364903521
143.40926143603627,230.54366856528796,42.201106975170035,234.232637902255,57.1483873449394,117.91392536793256,65.49293076632253
143.0973440555084,230.46684636164713,41.54601324664301,234.12830491972244,57.29091624639936,117.65252638556903,65.51411396896127
142.77537020836445,230.41229774176284,40.95408576345335,234.03379976364303,57.45053947143264,117.40561077940245,65.52907996599163
142.44513584773662,230.3857785081339,40.42673919062097,233.94838161293757,57.627149225142595,117.17340181180532,65.53777536638722
142.1085086634667,230.39317317544717,39.96543854959665,233.87149624103822,57.820650771420084,116.95607976977675,65.54013355034019
141.7673778060837,230.44052286540847,39.57170806413862,233.80292626164402,58.030928334177275,116.7537944722886,65.53605923227246
141.4236004210162,230.53404011315743,39.24710316708892,233.74283339879705,58.257800481214296,116.56663220150963,65.52544344038895
141.07902404972978,230.67994724740674,38.99315265382236,233.6916674598786,58.500983906500146,116.39459630653077,65.50818926631194
140.7355493486914,230.88422983938574,38.81128391993436,233.65010966430543,58.76006889474435,116.23763309254166,65.4842144006939
140.39513348269506,231.15249605577463,38.70273776819852,233.61911158596672,59.03451492438037,116.09565418826035,65.4534344032305
140.05972446015875,231.48999871668602,38.66849528520832,233.59988898316357,59.32367552657317,115.96851425293305,65.41576453579229
139.7312176374791,231.90170835566266,38.70923651068979,233.5937903311025,59.62683289752972,115.85598071657265,65.3711528239899
139.41147667692232,232.39229749952312,38.825319274788654,233.60217448762577,59.94321422918542,115.75774624753245,65.31960698198039
139.10234792919442,232.96604161786505,39.01675066190708,233.6264340863757,60.2719900692924,115.67346471160097,65.26118330088173
138.80561092615346,233.62672618867182,39.283145049017435,233.66808222265573,60.61226747521338,115.60275481040323,65.19596007817836
138.52292092956532,234.3775589880392,39.623685470805476,233.7287470332088,60.963084016550404,115.54517529556307,65.12403610811234
138.25581592420662,235.22105252928523,40.037099683734816,233.81009817141944,61.32340458549569,115.50023015784936,65.04555192764228
138.00575433160736,236.15889988864984,40.52164740459807,233.91380348572844,61.69211648028044,115.46741097492637,64.96069536512667
137.77410187390785,237.19186317350673,41.07511324594413,234.04147977507472,62.06802208012362,115.44621538237496,64.86967734271788
137.5620765346896,238.31968446370425,41.69480919705572,234.19459396194043,62.44983700277168,115.43611934273055,64.77270885120137
137.3707417547027,239.54107597618972,42.37759572834251,234.374402277208,62.83619061812446,115.43655759100146,64.67000473681462
137.20107237467136,240.85382680350472,43.11992033276556,234.58197125360405,63.22562023866049,115.44695163256786,64.56179589084427
137.05400340149043,242.25493866997823,43.91785771775535,234.81817605199464,63.61656881211884,115.46674764762977,64.44832017316419
136.93039673446088,243.74068803538924,44.767138440193165,235.08360536551243,64.0074015216881,115.49541021955908,64.3298000584905
136.8309908358521,245.30668296347253,45.66317272595527,235.37843539408394,64.39643564387245,115.53239081644499,64.20644248049565
136.75642422885127,246.9480116516453,46.60109535317377,235.70235478156974,64.78197228767068,115.57714028624015,64.07846884881496
136.70730452867656,248.65938003096014,47.575850676156094,236.0545552304297,65.16233582156455,115.62916977881245,63.94613853564854
136.68422133723467,250.4350974083297,48.58229424714893,236.43375330830298,65.53592053564748,115.68808371421049,63.80973854410157
136.6876897923265,252.26896513690554,49.61526137502253,236.83822570119773,65.9012208424431,115.75355095129406,63.66956372752267
136.71811559657627,254.1542328306503,50.66959361664529,237.26587159056706,66.25682986632685,115.82526794039843,63.525925907221726
136.7758234893094,256.08368430689546,51.7401628735321,237.71427311926297,66.60141926094154,115.90295306026042,63.37918529281833
136.86107693643882,258.0497573138419,52.821913169924265,238.1806936976288,66.93372015907664,115.98634226136276,63.22976089448227
136.97403119117902,260.0445931294073,53.90989349842407,238.66204462492647,67.2525124289098,116.0751563388713,63.07810471076777
137.11467799349336,262.06004385254073,54.99925878806316,239.15493078182345,67.55661983103236,116.16907206322003,62.924675325424694
137.28286215418413,264.08772920893716,56.08525292169501,239.65578580824925,67.84491266494537,116.26774941417762,62.76994165300634
137.47834080939933,266.119160825024,57.16319972120953,240.16096424543932,68.1163265047983,116.37089709315654,62.614397111618096
137.70079219392505,268.14589489645925,58.228510194757,240.6667290676335,68.36990589222584,116.47829725838736,62.45854924824862
137.94976785109574,270.1596912422086,59.276694376842364,241.16924502027533,68.60486496560478,116.58976844808497,62.30289124310341
138.22467886236075,272.15262205433004,60.30336489459471,241.66465234461495,68.82062507809383,116.7051360819588,62.14789432424287
138.524848275398,274.1170841910646,61.30423787558055,242.14913188604615,69.01679812124101,116.8242543367172,61.9940330837231
138.8495467396324,276.0458288916096,62.275150170610324,242.61889527146315,69.19314366609929,116.94703270579247,61.84180684189987
139.19795973104172,277.9321151445757,63.212096553553096,243.0701804455665,69.34955260854703,117.0734163071578,61.691726899035714
139.56915040970094,279.7698625528826,64.11126376593933,243.49930865309693,69.48606560368914,117.20334757748898,61.54429685030215
139.96207117202326,281.5536468478832,64.96904105594975,243.9027336411111,69.60289084512011,117.33676422367346,61.400031834646384
140.37557563370078,283.27857597490254,65.7820138855212,244.27705117216198,69.70039536418669,117.47362260634236,61.25950740602638
140.80838230726152,284.94021070833907,66.54695995538505,244.61904014273182,69.77907713723552,117.61389081565747,61.12338057342369
141.25903503538717,286.5346333468703,67.26085785276318,244.92574129594567,69.8395458383266,117.75751320269723,60.99236028811228
141.7259265634923,288.0585640476431,67.92090254633318,245.19447559681942,69.88252912784493,117.90440872129686,60.86716878868831
142.20736057637203,289.50936806647326,68.5245131233758,245.42278486281066,69.90888232680716,118.0545130222404,60.74853456851324
142.7015704039937,290.88501687801323,69.06932801309686,245.60839897527333,69.91957087367555,118.2077964624417,60.63720270274914
143.20668363742845,292.1841297124405,69.5531991969279,245.7492683356173,69.91562627102297,118.36422487826376,60.53392323238267
143.72070366488018,293.40601047126535,69.97419629617508,245.84357320281634,69.89809489519982,118.52371118036048,60.43941544722884
144.24153913161413,294.5505915643785,70.3306155633509,245.88967014773237,69.86799742191099,118.68609828981276,60.35434630145895
144.7670268285919,295.6183803974662,70.62098149139513,245.88606102620574,69.82630901210761,118.85115153030495,60.279342020233805
145.2949118965117,296.6104423558154,70.8440396648604,245.8314294192347,69.77396479987114,119.01853474551389,60.21500141698784
145.82283598345876,297.52830418949225,70.9987517975576,245.72467844824217,69.7118868872485,119.18779629714174,60.16187923412757
146.34838185956107,298.3737433324052,71.08430008514524,245.5649653553095,69.6410082172983,119.35840006719509,60.12045927977005
146.86913112239634,299.1485852395497,71.10009378548312,245.3518163841433,69.56226824991724,119.52977541653675,60.09115577142671
147.38266912829317,299.8546280632661,71.04576758518986,245.0852794474904,69.47658918434738,119.70132817858017,60.07433704442636
147.88655973736576,300.49366083841534,70.92117189920573,244.7659576181578,69.38486284276047,119.87241592282993,60.07032934695936
148.37836639771183,301.067445034209,70.72636362604749,244.3949118168276,69.28795853533543,120.04234926877506,60.07938701688268
148.85572363476513,301.5776503195926,70.46160552403838,243.97358400557948,69.18672867774842,120.21043495202244,60.101664786447365
149.31637952849263,302.0258681666546,70.12737353379279,243.50380355577062,69.08199202308292,120.37600146653533,60.13722503392107
149.75817475859444,302.41370963529437,69.72436077846145,242.98777130403695,68.97450583822123,120.53837065082097,60.18606322430458
150.17901750862583,302.74284011824346,69.25347193430625,242.4279553843337,68.86495071334568,120.69681211043078,60.24811206758494
150.57689621541374,303.01491172671575,68.71581639333327,241.82699318367844,68.75394550098463,120.85052163668486,60.32322315523652
150.94988969569314,303.2315037718534,68.11270738014227,241.18768248694377,68.64208783096196,120.99861308879262,60.41116487761682
151.29613489619564,303.394099817587,67.44566070560577,240.51299007213134,68.52998525665802,121.14009813341364,60.51165229714957
151.61378477929844,303.50402768620427,66.71638624090814,239.8060007487498,68.41825230614654,121.27387352473606,60.62437284431101
151.90100935480925,303.56238401819314,65.92678026812362,239.06987586157263,68.30749163963954,121.39876516122088,60.748977047602274
152.15603090539886,303.5700669452526,65.07893630721482,238.30788421606223,68.19828692490802,121.51361930101847,60.88506002834535
152.37713834535626,303.5279387063776,64.1751751604917,237.52341645653718,68.09120526229133,121.61736121712747,61.032175923425974
152.5626718725518,303.43696864913284,63.21806704806115,236.71991490630552,67.98679584659232,121.7089847782097,61.189876806104095
152.7110289061008,303.2982183936008,62.21042218071244,235.9008080414654,67.88559491397749,121.7875261615844,61.35772813963011
152.8207076239927,303.11271189776136,61.15525742847811,235.06951558148913,67.78814437688301,121.85206894849331,61.53528449763644
152.89033572024874,302.881344727899,60.055762573833306,234.22945806403698,67.69499527306466,121.90175768198019,61.72206391132402
152.91864972041088,302.6048897676822,58.915277637279395,233.3840548742406,67.60667287410702,121.93578369251428,61.91755734280888
152.90446691297285,302.28400289719144,57.73727381870284,232.53679204734763,67.52362305187864,121.95336735942628,62.121256273856005
152.8467084666765,301.9191683294053,56.525327451294345,231.69132497785475,67.44617077857296,121.95379369344609,62.33265466846446
152.74445899251597,301.510663981987,55.28309064405048,230.8514688166978,67.37450198246347,121.93649035111682,62.55122161181687
152.59699294890908,301.05859483341777,54.01427266078915,230.0210679479497,67.30866493386799,121.90106687816815,62.776390350184315
152.40375185331013,300.5629082989442,52.72263587593003,229.20389589110061,67.24858809638829,121.84728773599255,63.00759155676222
152.1643310383323,300.02333587116834,51.411991040994785,228.40365455295702,67.19411514796441,121.77504225091721,63.24429409131848
151.87850598847507,299.43935565642244,50.08617901141548,227.62396663221438,67.14504535538677,121.68435375322701,63.48600591101453
151.54625163936993,298.8102909977638,48.74904995622396,226.86828128664487,67.10115219756108,121.57539048429675,63.73224824142749
151.1677161558569,298.13549302159987,47.4044573652459,226.1397777447706,67.06216796832895,121.44843618258682,63.98254886270589
150.74318927653405,297.4144435899963,46.05626122954463,225.4413495134893,67.02775218490184,121.30384942138316,64.23645883866426
150.2731253999035,296.64674940400414,44.708319798609395,224.7756052731147,66.99746964202207,121.1420762664851,64.49355382328424
149.7582027697438,295.8321373084148,43.36446495944449,224.1448214330881,66.97079282614642,120.96371246955684,64.75340339493165
149.19934097021923,294.970469796877,42.02847741053464,223.55090831426858,66.94712509952579,120.7695339955955,65.01554059397517
148.59765958702133,294.0616992043182,40.70407445214319,222.99544154432266,66.92582440939597,120.56045830542487,65.27946228176496
147.9544452645403,293.1057662814829,39.394902099307465,222.47968601322202,66.90621462322501,120.33749052014878,65.54464401304435
147.27116443602102,292.1025586747799,38.10451561345183,222.0045471362016,66.887593530539,120.1017013998215,65.810535266222
146.5494725299621,291.05198045159716,36.83634856442099,221.57052342471272,66.86924426466665,119.85421519555068,66.07654000373472
145.791174004409,289.9540287227616,35.593687404998015,221.1777642367777,66.85044042431569,119.59617509356083,66.34202182543876
144.9981737570962,288.8087739184473,34.37966507665237,220.8261869431969,66.83044600490051,119.32870947865202,66.60634256796857
144.17248893002292,287.6162876091309,33.197265803553144,220.5155431082408,66.8085277862014,119.0529483071519,66.8688901757354
143.31630553346986,286.37661466964914,32.04932026121344,220.24547802821496,66.78398039728512,118.77007732027388,67.12906334392075
142.43199484035986,285.0897912677405,30.93848474097417,220.01567440756327,66.75614909391669,118.48135762523329,67.38623769366596
141.52207011349626,283.75583487416117,29.867218370622304,219.82597689874305,66.7244495547478,118.18809054309304,67.63975070334035
140.58915973378322,282.37469152187293,28.83777114950487,219.67635930353325,66.68838727189517,117.89159368383044,67.88890391702809
139.6360353833727,280.9462190928224,27.852179229729884,219.5668178008675,66.64756630433764,117.59322768279519,68.1329566859251
138.66563078387304,279.4702440296204,26.91225642888612,219.49734913897274,66.60168125421797,117.29442240805712,68.37110575597939
137.68099552215386,277.946614224326,26.019580515967505,219.46799174901,66.55049926848343,116.99664812292727,68.60247544075537
136.68523411449155,276.3751981877467,25.175485244266635,219.47880382920087,66.49384092717428,116.7013610903959,68.82613676526155
135.68150959003083,274.7559047070229,24.381066188077014,219.5297888463212,66.43156444658676,116.40999164511747,69.0411366129246
134.6730930958806,273.08876920905385,23.63719222984094,219.62088005790523,66.36355000033078,116.12397589304354,69.24650670572991
133.6633674765215,271.37402143242235,22.944508901485516,219.7519705438868,66.2896761510912,115.84476132666326,69.44125752315901
132.6557618314981,269.6120777001288,22.303433302148754,219.92287942780936,66.20979272031722,115.57375416121882,69.62439043309344
131.65369569168587,267.803528189306,21.714153119525207,220.13327035250325,66.123712940349,115.31226051190858,69.79493562539857
130.6605825238591,265.94916428591586,21.176638018865944,220.38264698397785,66.03123994287459,115.06147562525291,69.9519805259322
129.67983622945928,264.04998163274905,20.690656247178424,220.67043097049702,65.93221011970297,114.82250215900022,70.09466325545661
128.7148201251991,262.1071128455847,20.255783475048702,220.9959898761287,65.82652467516318,114.59634207722647,70.22215540651924
127.76878242367425,260.1217500410766,19.8714045233971,221.35857701959478,65.71416535989644,114.38386058971273,70.33367202051214
126.84486127602551,258.09514414256034,19.536724473054253,221.75729186242197,65.5952069421561,114.18577553874508,70.4285045258115
125.94614401402647,256.0286717693853,19.250797979222945,222.19110231752273,65.46982885376009,114.00268586367432,70.5060361826082
125.07568174803463,253.92386860466678,19.01256008634613,222.65884710561926,65.33831825252494,113.83508741284516,70.56572559028527
124.23642912459916,251.78238966195988,18.82083768461788,223.15920436275755,65.20105696443535,113.68334818205561,70.60709510823715
123.43118874635513,249.60598203760622,18.67434496052048,223.6907126580041,65.05849281861862,113.54768267621978,70.62975634654283
122.66261550055407,247.39652584536756,18.57168103522406,224.2518372971912,64.91111112738034,113.42816027320926,70.63344845946386
121.93323005803343,245.1560721892298,18.511336486098237,224.84096518462454,64.75942880077277,113.32472116337932,70.61804425887404
121.24538210004437,242.88682553705726,18.49169943657309,225.45630007145596,64.60401185419575,113.23716096484084,70.58352522904036
120.60120355694582,240.59113479771005,18.51105334996661,226.09576624238937,64.44548697945814,113.16510401970359,70.52996737606821
120.00263044234524,238.27153282917152,18.567570824915048,226.75700837248172,64.28452956353453,113.10802578550812,70.4575559749678
119.45147332183856,235.93075043901544,18.659314563701273,227.43744454709773,64.12184128470847,113.06532791603793,70.36659820745867
118.94943675528518,233.57166027258455,18.7842545045127,228.13427693116614,63.95812401674719,113.03639160186745,70.25750502461713
118.49806521899725,231.1972356914458,18.940296779959723,228.84446871788364,63.79404385511205,113.02057083187414,70.13076272275403
118.09870370474185,228.81059601685752,19.125307322326087,229.56477854840583,63.63019234732417,113.0171749648116,69.98693308892433
117.75252444872984,226.41505942211597,19.337121584702953,230.29184725239918,63.467060818056204,113.02547950330421,69.82667852023592
117.46055499516046,224.01410127581778,19.57355003594929,231.02222787036632,63.30503270181759,113.04473592685085,69.65076863892715
117.22364235725695,221.61126228827567,19.832388195538734,231.7523308014516,63.14438945895888,113.07414855597463,69.46005016492204
117.04240152977036,219.2101287819621,20.111425549099014,232.47838315581015,62.98532905829182,113.11284734290734,69.2554120073516
116.91723706832823,216.8143963186794,20.40844576202915,233.19646698869866,62.8279936510257,113.15991261948538,69.03777489089525
116.84842136210291,214.42790056614487,20.721223260757256,233.90257256204174,62.67248954730077,113.21444350582541,68.80809097491225
116.83612445753653,212.0545666753336,21.047529322189803,234.5925905221308,62.518882990973104,113.2755929168467,68.56732531214445
116.88036421447704,209.69837061050308,21.385151991455608,235.26228865291395,62.367176168213966,113.34253350936058,68.31642399539597
116.98096298706588,207.3633665760401,21.731917518132892,235.9073743824267,62.21728586235538,113.4144097217969,68.05630191574035
117.13756770207449,205.05370073957644,22.085699290345243,236.5236265445926,62.069042346367134,113.49033989323394,67.78786379969846
117.34967464393168,202.7735486616732,22.444416575573996,237.1069717779974,61.922202206003575,113.56945724255054,67.51202872193709
117.61659646957251,200.52703818585596,22.806037047215966,237.65347462065628,61.77645452678576,113.65092742969107,67.22972488593774
117.93741859855159,198.31822801532923,23.16858861242093,238.1593474084635,61.63141284646072,113.7339293661241,66.94186668879269
118.31102660057796,196.15110099106928,23.53017119050616,238.62102287959834,61.486607784534584,113.81765255311593,66.64935115261957
118.73618136821149,194.02949939396046,23.888963910688947,239.03519957478008,61.341506590960485,113.90132949546407,66.35307683859088
119.21154275060634,191.95702948824575,24.24324047975848,239.39882607694912,61.19556631057008,113.98425201620512,66.05394946386885
119.73562106062542,189.93703749133792,24.59140241451224,239.7091182156177,61.04828530129524,114.06574311350144,65.75285770996757
120.30674347147358,187.9726773811238,24.93201684324086,239.96363953656646,60.89921848426353,114.14512579707022,65.4506511115427
120.92308754340743,186.06696745217693,25.26383530992775,240.16033899927635,60.74796931222783,114.22172646054823,65.14815428973857
121.58271959803841,184.22278656170317,25.585785223330998,240.2974956871267,60.59418734580977,114.29488759073958,64.84620137330838
122.28357061957972,182.4428700617097,25.896946169994948,240.37365674222778,60.437576369748726,114.36395188120204,64.5456446739967
123.02339240900884,180.72980756283576,26.19652893528587,240.3876307988722,60.27790306765697,114.4282406551772,64.24732941616382
123.79978150957243,179.08597929510955,26.483863777807503,240.3384860347344,60.11499781744932,114.4870847981627,63.952075703347916
124.61026122530893,177.5134485953959,26.758390147156476,240.22550013293227,59.94875033474667,114.53990138355317,63.660693501642825
125.45232242967732,176.01392075640226,27.019640641343607,240.04811330966635,59.779111146594445,114.58623534998861,63.37400125840986
126.32338749894168,174.5888444588905,27.26722481244153,239.80596227266707,59.60610260429273,114.62573051201947,63.09281286124375
127.22077634807198,173.2395786097674,27.500823234126262,239.49895590587815,59.42983604791295,114.65808678507683,62.817907895701296
128.14173428377,171.96747498178428,27.720190943808543,239.1272799915319,59.25053208821015,114.68305425880791,62.550024946167575
129.08347059821986,170.77387266799434,27.92515744937177,238.6913202668417,59.06853697966386,114.70043981312209,62.289880459375205
130.0431414973528,169.66011028948114,28.115615748914475,238.1916099116274,58.88431924801797,114.71008496004443,62.038175902292615
131.01781082234953,168.62755166198465,28.29150997340021,237.62885814646853,58.698437118383616,114.71183316854459,61.79557897744846
132.00446869245462,167.67755685991344,28.452842251479215,237.00398558889506,58.51149638667239,114.70554104327738,61.562715272063144
133.0001010676512,166.81144430710748,28.599704149226625,236.31808915009523,58.32413135556217,114.69113157905323,61.34019673232739
134.00172110321375,166.03050907579419,28.732304900205804,235.57238736742005,58.13701137199447,114.66862063179808,61.12865407177014
135.00633028611,165.33602814911347,28.850968632574638,234.76823953760734,57.950845196080785,114.63808455267963,60.92872979104674
136.01088036757992,164.72917431621525,28.956109194230027,233.90721210509702,57.766369370144425,114.59962364052406,60.74104495121286
137.01229772534307,164.2109202615863,29.04820802324725,232.99108403849482,57.5843385639035,114.55337803486434,60.56619045427017
138.0075348454612,163.78207047313703,29.12780320860023,232.02177607177225,57.405537950662044,114.49957104528308,60.404755797966
138.99357896442564,163.44339126049155,29.19547873618894,231.00130199814566,57.23080514407665,114.43851376357247,60.257348740605806
139.96742651270156,163.1956602003547,29.251849006540844,229.9317940423754,57.06102601194157,114.37056720233872,60.12456991632859
140.92609656176649,163.03956423069127,29.297558128309078,228.81552997781682,56.89709602484734,114.29612249837396,60.00696884782809
141.86669559631252,162.9755690555669,29.33331355824478,227.65488963249007,56.73987875701523,114.21561931117498,59.90502592546143
142.7864582147872,163.00386955847296,29.359934071679167,226.45229417228825,56.59018527212423,114.12955249158576,59.8191612217204
143.6827234641717,163.12437427464926,29.37836888656889,225.2102296171365,56.448765257169114,114.03843920615157,59.74973327552466
144.55290159722068,163.3366471331966,29.389676345799675,223.93133540214654,56.316292910158225,113.94278858506003,59.69701148354157
145.39448117556452,163.6398606451497,29.394988227431313,222.6184379168433,56.1933477676261,113.84311091515806,59.66115215993198
146.20504451858935,164.03284804878788,29.39548436423669,221.27450710767414,56.08041239369464,113.73993563698457,59.64220857859566
146.9822455930947,164.5141909530367,29.392378604299385,219.902641629185,55.977902624615396,113.63379488163473,59.64015783495189
147.72377773765746,165.08221269395884,29.38690119928026,218.50611289346477,55.886203171874804,113.52519553831233,59.654905154724766
148.42739588339535,165.73488772172334,29.38026945878297,217.08836660905655,55.805669339161305,113.41463823393192,59.6862641085356
149.09098750457764,166.46979007930827,29.37365771412741,215.65293500595973,55.73660160683697,113.30267639987586,59.733950371881726
149.71261070589827,167.28412364812039,29.368181063159508,214.20335737982182,55.67922875472887,113.18994126019798,59.79760557062249
150.29046372903875,168.1747512362611,29.364889588485607,212.74320100766403,55.6337111747527,113.07710528849414,59.87681961594364
150.8228470542853,169.1381812407019,29.36475880109643,211.27612551254012,55.60015104909197,112.96483921309381,59.971121692042104
151.30817441439072,170.17059201302183,29.368679245359537,209.8058719075196,55.57860163616081,112.85380375464645,60.07995727235232
151.74500293382093,171.26792708780306,29.37746771996574,208.33617875566404,55.569073943239,112.74464845290922,60.202686737537086
152.13202589955054,172.42596258395227,29.391902743029302,206.87073291595192,55.571533874500936,112.63798136622545,60.33860608779169
152.46804026183355,173.64030052241776,29.412750876805887,205.4131847510911,55.585889400080006,112.53433559955728,60.486956981000276
152.7519521424724,174.90637753541404,29.44075829540401,203.96714191167305,55.61197975317187,112.43419399654157,60.646911858719115
152.9828301441645,176.21952705466424,29.476621029903924,202.5361000234938,55.64957886721068,112.33806561347767,60.817562260084145
153.15993989945767,177.575003093389,29.520962191009723,201.12338467931576,55.69841220321427,112.2465277607105,60.99793849039783
153.28272248525374,178.96792380202035,29.574326307009706,199.7321590848256,55.75816977482956,112.16019293141358,61.187043389037505
153.35076519141077,180.39323550229852,29.637177366202273,198.365436037502,55.82850288709421,112.07965651462297,61.38386078895922
153.3638097876646,181.8457710695212,29.709885905157968,197.02602787388687,55.90901608538528,112.00547618245412,61.58733497630009
153.3217663585989,183.32031921081781,29.792708555673993,195.7164860311569,55.99926988360908,111.93816262209229,61.796357664596066
153.2246893413771,184.81160988579686,29.8857754502534,194.43912595100227,56.09878864520381,111.8781450724416,62.00978404060985
153.072748075521,186.31427420903756,29.989098605984,193.1961158918632,56.20705904651034,111.82573025541393,62.22645324756033
152.8662593611117,187.82289137243646,30.102597127532665,191.98951116724066,56.32352229428288,111.78111077670724,62.44518498314907
152.6057696215132,189.33210182169123,30.226116559991233,190.82120737414803,56.44757769631429,111.74442413893678,62.66476946298805
152.2920946190955,190.8366625874142,30.359430477408328,189.69291328196215,56.57859861105863,111.71578964549033,62.88399161965417
151.9262791337156,192.3314243389856,30.50223777974517,188.6061878560488,56.715938907784924,111.69528343258762,63.1016894900456
151.50954539558467,193.81135161821004,30.65416691141856,187.5624589049032,56.85891740176953,111.6828969327591,63.3167953165337
151.04329694312244,195.27162960866923,30.814778702011214,186.5629725797235,57.00679264897145,111.67852488353188,63.52832669066186
150.5291499556035,196.70773305744353,30.98355918752448,185.60874702270095,57.15874937390368,111.68196680658633,63.73535734311261
149.96892283259638,198.11538324997164,31.159909222668432,184.70059361240448,57.31391017947755,111.69290951774471,63.93701270634114
149.36458539921054,199.49049095204177,31.343144094113295,183.8391478027889,57.47136710370441,111.71090746646902,64.13249144052563
148.71823703773143,200.82916688172602,31.5325053467863,183.0248361766874,57.630216556744905,111.73540864806496,64.32107523373476
148.03213446487325,202.12773835393364,31.727172052416304,182.25782659816954,57.78959898831062,111.76582075483248,64.50210931302098
147.30870446386862,203.38271025598362,31.926261235855442,181.53806329375763,57.94875115715454,111.80154934815526,64.67498589823568
146.55050310820286,204.5907159432795,32.12882537118611,180.8653728411369,58.10704519670892,111.84197612863777,64.83916362933444
145.7601758167618,205.74850794057636,32.33386334241085,180.23951860694928,58.263981835717416,111.88642679957192,64.99420241874043
144.9404657167474,206.8529548210125,32.54034594893944,179.66016954495146,58.419155143145716,111.93418118313731,65.13976767792677
144.0942253398578,207.90100033755405,32.7472367887709,179.12688312359413,58.572237625741685,111.98450850883286,65.27560017901912
143.22437579093557,208.88962060775313,32.95349470016814,178.63914593882603,58.722999994354986,112.03667243669386,65.40149367784464
142.33384810423192,209.81584803071652,33.15806617054527,178.19639170443608,58.871330478088886,112.08989766262798,65.51730481125475
141.42558083588193,210.6768454211609,33.359883156258704,177.7979623386367,59.01722500969591,112.14334916409632,65.62296771211818
140.50256657712674,211.46993996697813,33.557873001768925,177.44309284198022,59.16075952033238,112.1961516071571,65.71848060124753
139.56786333634105,212.19259346712585,33.75097661933698,177.13095590116333,59.30206496271983,112.24741148465506,65.80387930128725
138.6245403102399,212.8423894799463,33.93816404843967,176.86068371061256,59.441312390431904,112.29620690454986,65.87923557477812
137.67563172348832,213.41708528601833,34.1184432825203,176.63131618227433,59.57870835669256,112.34157262392154,65.94468017932714
136.72416606991885,213.91466149848856,34.290874275758284,176.4417461658917,59.71449525081474,112.38252446942155,66.00041015322901
135.77322753428828,214.33330704941213,34.4545946265624,176.29072727864627,59.84894329263276,112.41810699667525,66.04666137353952
134.82595764246923,214.6713954785254,34.60883980139715,176.17689645500857,59.98232905634608,112.44740905536099,66.08367894149319
133.88549531659217,214.92752851556315,34.75294114652407,176.0987423523815,60.114922455008966,112.46954367740446,66.11171961002935
132.9549401515587,215.1006076760409,34.886313861376046,176.05455728252062,60.24700400242029,112.48364470761659,66.13107122919007
132.03736984818394,215.1898450557324,35.00846644161438,176.04246480384955,60.378898730065906,112.48889612513203,66.14205252908476
131.1358437469192,215.19472448142892,35.11903916994658,176.06051353321104,60.51100203879361,112.48454933248424,66.14499966306697
130.25334597249108,215.11500344076487,35.21783517495962,176.106729921928,60.643793125881444,112.46990280658065,66.1402854698484
129.39272506317823,214.95077712455506,35.30481289525225,176.17910298146506,60.77783980875402,112.44427832447458,66.12837843106696
128.5567013932996,214.7025244207142,35.380057986415885,176.27558572725022,60.91379313750454,112.40702961854676,66.10988316221221
127.7479135416714,214.3710910076182,35.44377374118942,176.39414012073578,61.05237716699902,112.35756461820888,66.08552135020119
126.96891692297766,213.95768316723857,35.49629951428428,176.53275328103078,61.19438323829403,112.29534154066937,66.05608580083194
126.22212612359937,213.4639289382838,35.53812619879712,176.68939725228023,61.340658861906086,112.2198518123294,66.02241643681343
125.5097819302066,212.89192374829116,35.56988054873158,176.86200267337728,61.49208078985268,112.13064532958715,65.98539563784864
124.83397841706532,212.24418432260697,35.59228933501701,177.04849852543214,61.64952412346717,112.02739924908474,65.94592864361971
124.19668175063528,211.5235865273164,35.60615056500262,177.24686455891944,61.813833575957226,111.90995732789621,65.90490434593829
123.59968575587014,210.73336708709013,35.61231832205236,177.45511978938282,61.98578969687369,111.77830172234533,65.86317203129732
123.04455723017796,209.8771234473027,35.611686448729,177.67127300874216,62.166072982083314,111.63251226595199,65.82155470935591
122.532647246658,208.95873975535784,35.60516067708411,177.89332760289534,62.355240246641074,111.47277787809612,65.78086728074216
122.06514419933744,207.98231327368336,35.59362990859553,178.11934705904758,62.55372859091659,111.29944219963578,65.74190121598355
121.64308263019667,206.95216926072354,35.57795706304953,178.3474873525594,62.76188137659998,111.11301335847732,65.70538853636302
121.2673019638458,205.87289716079397,35.5589917397477,178.57596163874535,62.979961594882546,110.91412392803767,65.67198721287404
120.93843996067052,204.74929372010976,35.5375806696542,178.80301491400175,63.208133257436174,110.70349993741169,65.6422954553107
120.65699131542199,203.58624147129032,35.51455679118457,179.02695170239429,63.44642930733591,110.48196950450668,65.61685782172736
120.42335105402641,202.38865860759017,35.490719451972346,179.24615130367408,63.69472508338756,110.250469263088,65.59614156926301
120.23778335221618,201.161557998042,35.46683357986609,179.45902253446397,63.95272008404921,110.01001339663196,65.58051127253336
120.10037346454871,199.9100892760214,35.44365369028074,179.66395989724467,64.21993042069877,109.76165560299472,65.5702314091568
120.01104254863326,198.63948587655136,35.42194496653408,179.85937325767438,64.49569346295014,109.50648392369604,65.56548139509586
119.96960218489627,197.3550143328013,35.40247621569253,180.04375158452476,64.7791766173472,109.2456295462675,65.56635068141632
119.97576284412622,196.0619952305575,35.38599442892306,180.21567049372942,65.06937925660809,108.98024953897536,65.57281695117914
120.02908684522613,194.76580469111352,35.37320318644753,180.3737524241328,65.36512559916878,108.71150235510476,65.58474365856235
120.12896549310977,193.47179184008905,35.364747447468744,180.51667443298126,65.66505639766564,108.44057088108951,65.60191355461423
120.27465307955366,192.18519924663184,35.36119452167337,180.64323880599324,65.96763089637021,108.16872256563893,65.62406589434805
120.4652890276891,190.91115545178116,35.36301097472927,180.75240844609107,66.27114430519975,107.89732954690042,65.65090057308257
120.69985825701133,189.65466788287043,35.37055093263027,180.84326133522902,66.57375192367176,107.62781905544547,65.68206364699175
120.97714547777237,188.42055900113883,35.38407065113336,180.9149456201601,66.87348563804042,107.36161370807356,65.71715697395182
121.29575556833858,187.21341897243565,35.40375961022548,180.9667037974406,67.16826020072631,107.1001239842169,65.75577486857681
121.65417379469943,186.03762468030936,35.429758877883,180.9979135422071,67.45588252009149,106.84477605765053,65.79752480802532
122.05078237197473,184.8973439349272,35.4621545862142,181.0080696810432,67.73407956793348,106.59700915301713,65.84201079457517
122.48382217447273,183.79647409026435,35.50096466844191,180.9967477419576,68.00054049558315,106.35822810435741,65.88881322770469
122.95137162162939,182.73860048163218,35.546140030770786,180.96365430642058,68.2529507898743,106.12976376440885,65.9375035519438
123.45137606241094,181.72702918984146,35.59757823045606,180.90875149229572,68.48901280280175,105.91286761902231,65.98767973507226
123.98167135621965,180.76480921039013,35.655131336323024,180.83231665734556,68.70647018001945,105.70870357826556,66.03897640511336
124.53995958377293,179.85468695370085,35.71860245650175,180.73489462800828,68.90314227036242,105.5183086877913,66.09104002516779
125.12379224257307,178.9990729750597,35.7877482976447,180.61727457261745,69.07695458249017,105.3425563431594,66.14351117743617
125.73063048214789,178.2000751319318,35.86230032591235,180.48056600784525,69.2259578778678,105.1821701181171,66.19604371152094
126.35794443366255,177.45952220718354,35.94198817296262,180.32625689188018,69.34833910075567,105.03777240514712,66.24833278546929
127.00325178110543,176.778932547283,36.02654307689368,180.1561692291677,69.44242567004522,104.90990205489835,66.30011159402878
127.66408309011369,176.15951076399824,36.11569201281,179.9724180191681,69.50668881846012,104.79898412605279,66.35112839421501
128.33795696551385,175.60221500772025,36.20917411834189,179.77745243367315,69.5397576640587,104.70530870243103,66.4011480583523
129.02240439016057,175.107798506288,36.30677933825826,179.57407395608786,69.54044954326031,104.62905402097005,66.44998321384449
129.71498642102463,174.67676683655384,36.40837034394529,179.36535814625628,69.50780738312994,104.57031296084384,66.49751034684571
130.4132624992345,174.30933534742874,36.513867728503904,179.15458819628245,69.4411209811238,104.52908194936954,66.54364594265876
131.1147597406458,174.0054471502947,36.62322479082811,178.9452739067182,69.33991614583445,104.50524101313842,66.58831422737225
131.8170089556702,173.76478010113163,36.736420091368686,178.74115096541817,69.20392233139187,104.49856768602105,66.6314440934569
132.51761751875523,173.58668511523692,36.85346001182822,178.54608930964125,69.03304328673202,104.5087650042345,66.67298515715827
133.21429197356022,173.47012688566613,36.97436787870856,178.36401253681296,68.82734582744708,104.53545794195537,66.71290514818325
133.9047994487365,173.41371264672824,37.09915864282119,178.19889778190225,68.58706087109002,104.57817182845298,66.75116275884048
134.58694402653617,173.41577020625286,37.22782253661655,178.05476224162692,68.31257764974379,104.6363500287715,66.78769264160384
135.2585945083629,173.47437077829426,37.36033112933615,177.93558264285372,68.00442349797535,104.70941156557438,66.82242565916266
135.91770763396386,173.58728395013347,37.49664803438466,177.845252920811,67.66324047787654,104.79677956436623,66.85531561806339
136.56229858861127,173.75195372386946,37.63672076107037,177.78762976501716,67.28976837920787,104.89784776206926,66.88633465278463
137.19040032913327,173.96553958350506,37.78045842807521,177.7665441340326,66.88482973169076,105.01193840746805,66.9154478317099
137.8000765866424,174.22496332120517,37.92772207132698,177.78571248853424,66.44931053883626,105.13831259801566,66.94260646606666
138.3894717333564,174.52692421592832,38.07834021265611,177.84866314275828,65.98414049252521,105.2762176232041,66.96776588789675
138.95682555291302,174.86793529766746,38.2321292368475,177.95875100687684,65.49028374929894,105.42490481630735,66.99089242178646
139.50044366709108,175.2444084282811,38.388894065102335,178.1191581222224,64.96874493156275,105.58360151958044,67.01193934455574
140.01868931110207,175.65272229459816,38.54842033611339,178.33281331442302,64.42057898702055,105.7514889321434,67.03081639912351
140.5100220745594,176.08921300836542,38.710489736203705,178.60233077756322,63.84689053993455,105.92771284716324,67.04738524104211
140.97302485077282,176.5501301950887,38.87491692993708,178.93003050282817,63.248821890667685,106.1113918703322,67.06147632582105
141.40637569467992,177.03165230161005,39.04156904181978,179.3179439643038,62.62753974758455,106.30159588984988,67.07289434021862
141.80881121280763,177.5299654712219,39.21034924477792,179.76774411364934,61.98423139148212,106.49732484181372,67.08140150628101
142.1791474650375,178.0413096406463,39.38117067198921,180.28068755923005,61.320111256557006,106.69752814248444,67.08670809457132
142.51633928718167,178.56195059590127,39.55394644389546,180.85762330896705,60.63642716457199,106.90114811944864,67.08849207245085
142.81949970655674,179.08815152161174,39.7285877497631,181.498990535168,59.93445850889472,107.1071327590323,67.0864250366951
143.0878631917009,179.61619881308428,39.904990406443204,182.20476666787448,59.2155135104969,107.31440793121247,67.08017292108747
143.32075982788356,180.14243502441076,40.08301106079423,182.97444687096967,58.48093557011201,107.52185772310514,67.06938303494091
143.51763658617193,180.6632497766946,40.26245260898891,183.80709047227413,57.73211643616163,107.72834053185686,67.05369622155669
143.67807528276649,181.17507290769814,40.44306856611879,184.7013476373951,56.97050579543279,107.93270746500951,67.0327877117211
143.80176464614135,181.67442504558787,40.62457165281166,185.65540941407014,56.19760736754176,108.13379000718515,67.00639328022913
143.88847204363614,182.15797899953682,40.80662989154084,186.66695326794553,55.41496096265339,108.33038320876206,66.97429419406376
143.93807710764315,182.622555639615,40.988858871799266,187.73317235830908,54.62412765541322,108.52127177158586,66.93628920659684
143.95063825611967,183.06508289686187,41.17083113440106,188.8508559137984,53.826694736081464,108.70528802893257,66.89219234621387
143.9264074030263,183.4826113830323,41.352100504983554,190.01641891725038,53.024290390394164,108.88134063610987,66.84185246569149
143.8657795996453,183.87239177555463,41.53221522004199,191.22586985891738,52.21858793891315,109.04839756395505,66.78515890503705
143.76925056885915,184.2319164023961,41.71070924698256,192.47480302703303,51.41130189949178,109.20547229269235,66.72202215232322
143.63742519275036,184.5588837664066,41.887096441456315,193.75844893937756,50.6041868010382,109.35163898738195,66.65236001723449
143.47103090026906,184.85116799026204,42.060892614056364,195.0717158671139,49.799032727471214,109.48604233864314,66.57611196680378
143.27088716946264,185.1068536555948,42.23165106023954,196.409180189099,48.997648950643274,109.60787401519032,66.49325938408438
143.03787146523896,185.32427331335302,42.39897566215349,197.76508678130713,48.20184196016262,109.71634935913467,66.40382007322887
142.7729554833057,185.5019800095912,42.56250377723176,199.1334239714996,47.413401687960864,109.8107407485255,66.30782682095564
142.47729162378633,185.63871057463342,42.721884523488846,200.50802766879613,46.63409906801869,109.89045616878123,66.2053270217094
142.1522490671323,185.73343232629367,42.87677238370762,201.8826250295224,45.86568010335447,109.95508303438375,66.09640868676658
141.79936841217315,185.78544016762652,43.026828296026565,203.25082365893368,45.10984427527674,110.00436290318589,65.98121539320162
141.42031012848074,185.79438299161322,43.17171195909363,204.60613196434315,44.36821513490569,110.03814840846191,65.85992792000961
141.0168464814819,185.76019936854817,43.311067264329665,205.94203230611413,43.64232020684468,110.05638506088566,65.73273969548755
140.59085316610472,185.68307319698107,43.44451947427264,207.25203195804693,42.933589438196066,110.05909815708355,65.59986145475824
140.1442575036671,185.5634657464595,43.57169263526543,208.52965052515532,42.24336423868536,110.0463596551846,65.4615473232246
139.67898408207992,185.40213986800225,43.69222872854975,209.7684077383531,41.57290135485594,110.01826023822116,65.31810280427187
139.1969613461735,185.20012358168873,43.8057875946698,210.96188247125426,40.92336788000039,109.9749299525848,65.16986303841993
138.70016920170758,184.95870669405502,43.91203672035694,212.10381268581568,40.29583524241667,109.91659279398135,65.0171757093794
138.1906468235249,184.6795287985888,44.01065703997632,213.18814793861227,39.69127792329496,109.84358876225912,64.86041400953567
137.6704432088351,184.3646449468104,44.101367659620955,214.20903889398878,39.11057637376718,109.75634312596695,64.69999531621136
137.14157973711502,184.0164762427256,44.18394227304115,215.16083390672745,38.554518750354354,109.65533393562544,64.53637002081129
136.60606348352172,183.6377328475979,44.25819910408437,216.03811589747372,38.02379764239686,109.54109002483509,64.36998764007379
136.06589954997807,183.23139989439682,44.323979950562304,216.83573196224688,37.51900607513642,109.41419030831929,64.2012786850532
135.5230526223384,182.80072152218227,44.381142355706444,217.54878687950375,37.04063860597488,109.27523944971962,64.03066717873986
134.9793961743323,182.34912208140796,44.429565742056006,218.1726490940095,36.58909445740467,109.12485008559563,63.85858439807943
134.4367180329672,181.88014807665616,44.46915257586965,218.70301060660114,36.1646746074295,108.96366723459356,63.68545667987352
133.89677049611322,181.39749330315618,44.49981569774999,219.13595543409207,35.767575564419765,108.7924078198404,63.51168661707821
133.36128656614187,180.90501233152702,44.521471105216996,219.46797138637177,35.39789146092622,108.61185987141305,63.33766006756819
132.8319443637368,180.40664784096353,44.53406130640569,219.69592653488905,35.05562406746632,108.42284697683947,63.163768822405366
132.310349565948,179.9063600219754,44.53759952260817,219.81708746997379,34.7406898295022,108.22621664625211,62.990412054891
131.79806887172612,179.40813318562553,44.532194031543675,219.82918597795145,34.4529227997994,108.02286553138634,62.817972688617566
131.2966534449056,178.91597846333883,44.5180335662903,219.73045629623743,34.192084800545985,107.8137485636786,62.646806343571086
130.80760226768405,178.4338630883491,44.495357078684,219.51961170244184,33.95788962412032,107.59984777125808,62.477265254797636
130.33231215883185,177.96564736339886,44.46443667483489,219.19582347258594,33.750028414711885,107.3821430640977,62.30972713964367
129.8720895830748,177.51509651005702,44.425574543077566,218.7587402071286,33.56817472853273,107.16161407770528,62.1445907225249
129.42820972021792,177.08588471717704,44.37909521037369,218.208497234798,33.41196643593746,106.9392422496482,61.982250180483064
129.00193517585103,176.68152622437438,44.32532624510165,217.54567710088364,33.28098302773612,106.71597984848187,61.82309208282955
128.59446983205444,176.30532349893005,44.26458259166285,216.77126710098563,33.17473723789864,106.49271085905707,61.66752250334032
128.20691988140587,175.96040331098152,44.197166880028405,215.88666619710537,33.092682499572206,106.2702579366697,61.51598316735317
127.84030599606834,175.6497469069346,44.12337492207911,214.89370975027026,33.03421999293696,106.0494328129855,61.36893001143202
127.49557616430864,175.37613389449135,44.043489777842765,213.79464953696746,32.99869514712657,105.83106207954937,61.2268009085027
127.17356905796088,175.14208325453802,43.95776999309673,212.59210663735718,32.985393521140246,105.61595554718228,61.09000734251195
126.87496780777032,174.94986779265474,43.86645564509751,211.28907297168087,32.99354648207195,105.404866871498,60.958942129118576
126.60031525624117,174.80152641256285,43.76979843346169,209.88896300403397,33.02234133247748,105.19849827418786,60.83397139812394
126.35007596358116,174.69880631817483,43.668088902917106,208.39562789879426,33.07092412563019,104.99752873224381,60.71540820375898
126.12465841776086,174.64311155028648,43.56165533795044,206.8132976021977,33.1383949061657,104.80261153661009,60.60350143514403
125.92437462005353,174.635525979995,43.450841945382265,205.14652241194597,33.22380450989271,104.61434378334815,60.49845830880926
125.74941068058043,174.6768376365131,43.33599147865869,203.4001642303641,33.32615304623035,104.43326253616544,60.40047101670791
125.59985237798772,174.7675003334161,43.21744356516376,201.57938674390255,33.44438418380812,104.25987720443446,60.30971285760819
125.47571188654908,174.90760834049465,43.09553639573844,199.68958999779022,33.57738054215245,104.09468257421666,60.226316582205875
125.37690089926275,175.09694639385756,42.970596094951546,197.7363322770388,33.72397018928001,103.93812454236051,60.15037573152518
125.30318928348699,175.3350337361824,42.84291812827236,195.72531954453976,33.88294137321332,103.79056647546794,60.081974625759386
125.25422320090082,175.62109415290504,42.71275975945287,193.66244901520247,34.05305499641518,103.65231373181882,60.02120600174895
125.22959033614174,175.9540288789832,42.58035049176814,191.5538101538097,34.23305036177229,103.52367806978937,59.96815211318752
125.22884530718012,176.33245929325201,42.44590334923019,189.40561609314724,34.421645125020454,103.40500519926077,59.92286058534023
125.25146927496873,176.75476671079454,42.309609327406534,187.22415072966206,34.6175331655409,103.29663854075181,59.8853532672367
125.29683784796639,177.21906659675247,42.17162134225471,185.01578161456482,34.81938493535203,103.19887852632225,59.855655779990414
125.36424883648438,177.7231882757041,42.032050914477736,182.78696951319824,35.02585085131015,103.11199410570111,59.83380402362691
125.45295932898472,178.2647210466582,41.890992942097796,180.54421055236034,35.23556461605984,103.03626312308761,59.81981767011435
125.56216967612976,178.84105837161212,41.74856389219453,178.29397903834163,35.447142707919696,102.97197837820947,59.81367887615394
125.69098753061793,179.44937774506872,41.604920719866904,176.04278067967627,35.65917975038625,102.91941552221262,59.81534531459865
125.83845001152093,180.08662237718616,41.460254328793,173.79727769402976,35.8702492157848,102.87882113928396,59.824774349848965
126.00359624898326,180.74956017181503,41.3147860138429,171.5643335487045,36.07892533768024,102.85043809694155,59.84192108371257
126.18549949695308,181.43486618510025,41.16878259773057,169.35095842678862,36.283825244434176,102.83451603540958,59.86672160917361
126.3832250608415,182.13913352807177,41.02256821483222,167.16429922815817,36.4836426211709,102.8312814975062,59.89910660305754
126.5957876302411,182.858835654131,40.876511007787,165.0117128269183,36.677152307414254,102.84091126424381,59.93904836253665
126.82217326920582,183.590343858479,40.730998324927796,162.90078571092107,36.86320134892698,102.86354089980472,59.9865887550291
127.06138784857608,184.33001197204325,40.5864304169368,160.8392570503748,37.040712005676745,102.89927605253388,60.0418175734889
127.31245595031153,185.07422534076036,40.44323878268278,158.83498302841832,37.20869862680963,102.94816981946926,60.104836057819455
127.57437817157363,185.81936941704242,40.30190204587729,156.89598651706405,37.36627924334861,103.01019114470414,60.17575036014727
127.84612487948854,186.56180412769473,40.162935499591214,155.03044294367322,37.51267052731879,103.08523636079559,60.254687514787065
128.12668425260037,187.29790356381258,40.0268659186862,153.24653268374433,37.64717610466279,103.17317701781586,60.34179182379945
128.4150904304704,188.02409399985797,39.894221158281724,151.55229571815593,37.76918245636337,103.27387936819426,60.43719162606236
128.71038970527522,188.7368334002417,39.765541721956225,149.95558563251407,37.878162654260315,103.38717289869142,60.540975121892714
129.0116051052933,189.43259578783582,39.64138957040456,148.46402882520616,37.97367580334776,103.5128184934459,60.65320329034493
129.31776221852266,190.10792077962228,39.52233470729752,147.08490516662653,38.05535629382013,103.65051186540893,60.773933101451625
129.62794019520118,190.759467725049,39.408938316488566,145.82503557974343,38.12290231947161,103.7998931799358,60.903209998104366
129.94127116417707,191.38400106277987,39.30176557962153,144.6907552313785,38.17607437980488,103.96052955154494,61.041036389660164
130.25689307663436,191.97835397052225,39.20142325691819,143.68789131631004,38.21470136739158,104.1318961143435,61.18735812886207
130.57393526245727,192.53946315098972,39.108578279282796,142.82167522477312,38.238681986376044,104.3134070030306,61.342080311608576
130.8915607609214,193.06445756253714,39.02393550414053,142.09667737686405,38.24797902625493,104.5044846896193,61.505076310523734
131.20899344574036,193.5506943638813,38.948202906549845,141.5168352312659,38.24261962554607,104.70459332730847,61.676165174345826
131.52548336249623,193.99571205370697,38.882079855856055,141.08547805793603,38.22270482330318,104.91320785074186,61.85508425660712
131.84026612862675,194.3971870698102,38.826266171572485,140.8052666128486,38.18841317872574,105.12977438900342,62.04149670781421
132.15257876888373,194.7529514989021,38.78146018704727,140.67813439611464,38.139992906257405,105.3537064452881,62.235027101113374
132.46170050730132,195.06101752648624,38.74833254742459,140.7053103587545,38.077757155391616,105.58439130521188,62.43527909395226
132.7669494301321,195.31954881331353,38.72749989036703,140.88734438675306,38.00209174619327,105.82117184068042,62.641817982413045
133.06764400270845,195.52682435931357,38.71952085444624,141.22406522897492,37.913463909099725,106.06332772236675,62.85415516072567
133.36310335720577,195.68127551090834,38.724901070271045,141.71455484980245,37.81241683357414,106.31010652572212,63.07176494382015
133.6526999510206,195.78157204605895,38.74408213960407,142.35721047544374,37.699552095707595,106.56079261482623,63.2941100953395
133.93588915338674,195.82665388156238,38.77742036058366,143.1498061915404,37.57551596470818,106.81473995504116,63.52063830180612
134.21217555876115,195.81568568743123,38.825185282397264,144.08947767215236,37.44099866188636,107.07134060620213,63.75075639451315
134.48107602541793,195.74802476508992,38.887583742295035,145.1727160936087,37.29673722918958,107.32998350833768,63.98382118915958
134.74213282814603,195.62325851932346,38.96477629525026,146.39544633020697,37.1435080870621,107.59004942781854,64.21915807263008
134.99493552496068,195.44124885723133,39.05686362296445,147.75310079956705,36.982112054947564,107.85091821418595,64.45607502650917
135.23909443039537,195.20211338086776,39.16386511801585,149.24061083787294,36.81336669955525,108.11194905315101,64.69384971561625
135.47419700664761,194.9061935363502,39.28572145706504,150.85240212062266,36.63811111299999,108.37245032697057,64.93171506197746
135.69982098918038,194.5541069402282,39.42231623900833,152.58247158469769,36.45721243594781,108.63169156643747,65.16887816752256
135.91559658384725,194.14685524567645,39.57348401867601,154.424460409722,36.2715613062367,108.8889577292889,65.40456143400412
136.12123108204767,193.68586058935264,39.73899334010034,156.37164658381434,36.082058562297625,109.14357966811237,65.63802114606385
136.31646575934988,193.17291500343083,39.918530319876204,158.41693931974487,35.88960718341148,109.39490859945008,65.86853257358199
136.50103552728802,192.61016104360144,40.11170472439913,160.55294839859963,35.695111586628755,109.64228270180612,66.0953848477761
136.67468328761035,192.00013852748222,40.31806463908239,162.7720492930124,35.49947274960283,109.88503084373285,66.31791694511962
136.83718430032454,191.3457868189977,40.53709427771182,165.06637395856222,35.30357727421619,110.12249048159825,66.5355617734765
136.98832332011943,190.6503494920532,40.76819788735096,167.42780110619717,35.10829210188812,110.35399743819065,66.74784889876665
137.12785581032952,189.91728370780868,41.01069652345794,169.8480108253141,34.91447109209511,110.57886432629311,66.95437230760581
137.2555279703145,189.150258759713,41.263847678969405,172.3185348334606,34.72296477690009,110.79640537536645,67.15477307449446
137.37114902378065,188.35317425258089,41.5268648962452,174.83074861263182,34.53461950254203,111.00600574446844,67.34875856188543
137.47462616157412,187.53010316584783,41.798915161779064,177.37588391456728,34.35026328985919,111.20716087421825,67.53612274191067
137.5659249765164,186.68520799996153,42.07910682670613,179.9451186745591,34.17068840216868,111.3994535028196,67.7167304429146
137.6450218671738,185.82274515396043,42.36650543536074,182.52965865294323,33.99663898665183,111.58252238486101,67.89048225601776
137.71190813089578,184.94713999198063,42.66019079836584,185.12073581237058,33.82880323137489,111.75606550211006,68.05730053539264
137.76661396002166,184.06299727494374,42.95931476708269,187.70958771957933,33.66780707568222,111.91984803877516,68.21713799176885
137.8091920469602,183.17501942369208,43.26311409627703,190.2874906980435,33.51421448118769,112.07367858636964,68.36997381963005
137.83967270638612,182.28795819341266,43.57088879644959,192.84580289423255,33.36853972084337,112.21738337169262,68.51578467784131
137.85805696152764,181.40664875794226,43.881986778223336,195.37595419684942,33.231260346293396,112.35083671578751,68.65452356540041
137.8643594529793,180.53600887995924,44.19580416612839,197.86942577491368,33.10281546487754,112.47403421317438,68.78613384144823
137.8586338383626,179.68093323055186,44.51177684481275,200.31780658488987,32.98359261834968,112.58712488406132,68.91057382415717
137.84094145628626,178.84618479150103,44.82935266734434,202.7129104609138,32.8739213299295,112.6903679552826,69.02781370459591
137.8113178388929,178.0363794137666,45.1479678849949,205.0468426938333,32.774086326390645,112.78407832705463,69.13781303308181
137.76979982477104,177.2559993782335,45.46705022150747,207.31197865594973,32.68435078497985,112.86863071621137,69.24051593740091
137.7164825548253,176.5093374651586,45.78603541231165,209.50094218673348,32.604965689909996,112.94450448973775,69.33586823069932
137.65152789880455,175.80041821330505,46.104366839638985,211.60664721755143,32.53615685205762,113.0122940383199,69.4238232523512
137.57512260496668,175.13301711584268,46.42147233031834,213.62234889233875,32.478102472477985,113.07266660537057,69.50432068112397
137.4874627399351,174.5107602718506,46.73674200027655,215.5416376272324,32.430914665281286,113.12632621296933,69.57726454395754
137.38879206222245,173.93715712046264,47.04952813146496,217.35841187949092,32.394628801386894,113.1740123811202,69.6425309262295
137.27942857441565,173.4155295989502,47.3591585013365,219.06691118885797,32.369199367161826,113.21649187181096,69.69999630327834
137.1597333586446,172.94896851751986,47.66493939637805,220.66180087949022,32.35450089187091,113.25451830608432,69.74954809355913
137.03007274839558,172.54037661377646,47.96614818191508,222.13821414361766,32.350338358633984,113.2887976801794,69.7910652210777
136.89083541601823,172.19248780379223,48.26204191301511,223.49171791516477,32.35647038549638,113.31999060733543,69.82440299988758
136.74247484489874,171.90780198896874,48.55188935956397,224.71827342440912,32.37263298734639,113.34872069275202,69.84941176765443
136.58550426528942,171.68853749584954,48.834995462093595,225.8142422336576,32.39854798182743,113.37555353894233,69.86596758259027
136.42044685619683,171.5366602326037,49.11069615776788,226.776399326808,32.43391548456551,113.40097765097362,69.8739753814832
136.2478178506738,171.45389399132458,49.37834482221149,227.6019155138689,32.478400488938895,113.42544576765343,69.87334809991958
136.0681637107946,171.44166009996857,49.637319333336016,228.2883538905789,32.531622081125704,113.44945827525977,69.86400282773083
135.8820889147318,171.50104206891123,49.887042864516225,228.8337349991479,32.59314912182101,113.4736015572835,69.84588907550254
135.6902234797725,171.6328229690802,50.1269889615263,229.23662503056613,32.66250148665846,113.49851370414814,69.81901320199765
135.49318813531332,171.83749551480028,50.356663934643024,229.49615432692374,32.739155077610306,113.52484142148396,69.78342740683172
135.29162545643328,172.115184027036,50.57559202976553,229.61196778265813,32.82255502960478,113.55323231509723,69.73920417204748
135.0862628241948,172.46557352707293,50.78332371648887,229.58419389282568,32.912138666239386,113.58433192652714,69.68643662633048
134.87792010970847,172.88794259941494,50.97945308059911,229.41346230907854,33.007354113707606,113.61874934864802,69.62526477160175
134.66745587230398,173.38124273176797,51.16361849114591,229.10090592360774,33.107661508793655,113.65701773128451,69.55588696438956
134.45572869923313,173.94410555325902,51.33549012578895,228.648109468878,33.21252337124844,113.6996049826678,69.47853838432749
134.24360526151378,174.57478429589767,51.49477527258423,228.05705690312354,33.32139918252707,113.74696650274365,69.39347092363117
134.03195987739662,175.27114147481385,51.64125331545377,227.33012421927816,33.433748526114684,113.79956628882091,69.30096651537728
133.82163192032516,176.0307104397389,51.77480948101308,226.4700796541518,33.54903373454471,113.85783784837311,69.20136163199861
133.61339344912653,176.85073423223204,51.89543451606212,225.48004130665942,33.66671371351209,113.92214096759143,69.09504262693662
133.40797263036137,177.72814109342605,52.00320092972342,224.36342565954166,33.78623273428929,113.99276033224712,68.98241648990407
133.20608736080425,178.6595421080877,52.09824955535164,223.1239597425398,33.90701294152823,114.06991836170315,68.86389843842738
133.00842554615602,179.64129112651725,52.18079282434298,221.7657451394051,34.02845278458143,114.1537596753623,68.73993144879817
132.8155989905487,180.6695209346744,52.25110947898692,220.29327859835888,34.14992995753465,114.24432670796574,68.61100316461247
132.62815229319952,181.74010509411445,52.309517297423476,218.7113934142691,34.270807474620135,114.34158061909991,68.47762984196949
132.44663045452648,182.84863212049927,52.356343751331096,217.0251930249435,34.390437638013616,114.44546049441574,68.34032987673632
132.2716151823026,183.99048054151677,52.39191660489786,215.24003274519117,34.50816303788218,114.55590954145667,68.19962894078687
132.10368350113546,185.16093810633947,52.41656675562816,213.3615109043141,34.62332354499208,114.67284206844576,68.05609254817107
131.94335159389504,186.35524295814557,52.43062097522634,211.3954166283066,34.73527134892286,114.79610702562097,67.9103383932211
131.79107274368926,187.56854750297157,52.43438329234917,209.34766431462688,34.843383239260156,114.92549197116269,67.76300832753483
131.64726664531904,188.7959239488439,52.42812587109299,207.22428428147782,34.94706324525591,115.06073904782174,67.6147349228795
131.51230924134734,190.03244992009198,52.41209798570462,205.03145949858305,35.04574006656143,115.20153101138928,67.46613492565031
131.38646985064366,191.2732715870943,52.38653446517177,202.77552511368725,35.13886612125133,115.34746681998693,67.31781339586838
131.26985443566517,192.51359141193532,52.351645567578515,200.46291138502585,35.22592185774392,115.49808149317498,67.17034792083803
131.1624028503131,193.7486697271448,52.307596783682754,198.10010825059976,35.30642279188963,115.65290547696078,67.02426119152872
131.06391710430597,194.97388955425058,52.25450289924223,195.69369227275814,35.37992091400602,115.81149293898444,66.88001899184053
130.97406748551745,196.1847973572829,52.19244509241827,193.25034801982133,35.44600254391595,115.97338846097901,66.73806023511564
130.89238620831276,197.37707012619424,52.1214905907154,190.77681809415992,35.50429752236968,116.13808185378961,66.5988185116768
130.81831301418862,198.54649229364384,52.04169256329656,188.2798235190146,35.55450016689018,116.30499735200644,66.46270653070601
130.7512884150847,199.68899477049274,51.953074856455295,185.76604056811476,35.59638450885511,116.4735001931594,66.3300896508888
130.69080294150083,200.8006818830778,51.855622270962705,183.2421323667428,35.629806936897104,116.64288433569301,66.20128932024946
130.63636205827393,201.87780085927875,51.749287093372324,180.7147477437918,35.65470560961784,116.81235608199759,66.07661170282921
130.58743703492684,202.91673174223317,51.63400191666147,178.19045372564344,35.67110311526088,116.98106486336775,65.9563583105716
130.54347432146494,203.91404291857503,51.50968291326123,175.6756724210187,35.67910758385965,117.14817638334631,65.84080266554044
130.5039394144165,204.86652580712942,51.37622704771919,173.17667650031774,35.678905926617574,117.31291392494037,65.73017026670644
130.46832189263927,205.77114742679967,51.23352283411887,170.69959644758674,35.67075163111081,117.47453555191754,65.6246554888314
130.43609418883054,206.62500310581203,51.081477792687046,168.25037801732128,35.65495258652469,117.6323032578459,65.52445290515787
130.40668969493052,207.42536194629815,50.920039402941434,165.83472532867816,35.63185949168158,117.7854929598814,65.42975892851467
130.37952809775365,208.16975653849133,50.74919423161529,163.4581148664509,35.601853267260786,117.93341884922035,65.34074458629397
130.35403363295308,208.85600200032536,50.56896398336031,161.12586950256818,35.56533143267727,118.07542732488662,65.25754382005772
130.32960678467225,209.48213720935098,50.37942885254187,158.84318558911284,35.52269656103549,118.21087650111066,65.18028013792475
130.30559686187118,210.0463894327952,50.180775374187256,156.6150832440587,35.474350004094646,118.33915508454338,65.10909687851752
130.28133365950185,210.5472061125677,49.9733276862473,154.4463742325448,35.42068880183141,118.45973817572265,65.04414978136579
130.25618854010722,210.98327660055895,49.757537461196826,152.3416948297804,35.3621009079636,118.57221257558182,64.98557621632406
130.22958924253285,211.35348681425953,49.533957325569766,150.30552500662316,35.298957636658514,118.67624417009517,64.93348626250477
130.2009860718376,211.6568777858736,49.30322957556285,148.34213999756298,35.23160912762426,118.77154052856929,64.8879819475898
130.16984304221614,211.89269210650923,49.066084477659096,146.45556452370042,35.160387917012514,118.85785179431693,64.84916514740367
130.1356809487752,212.06045768810318,48.82332383022409,144.64959554849588,35.08561527709097,118.93498179951767,64.8171138848393
130.0981077236135,212.15999682399595,48.575788219003464,142.92783549481265,35.00760158207539,119.00276857289178,64.79185886790846
130.05678392636162,212.19136317539366,48.32433151272896,141.29365583719124,34.92663989962081,119.06105414173935,64.77339141424395
130.01136024975162,212.1548145345391,48.06981670101772,139.75013434843348,34.843000540470236,119.10969649964062,64.76168321306187
129.96145330438293,212.05085609782148,47.813116996901314,138.30007332852324,34.75693489532624,119.14861833158031,64.75668035484385
129.90666382780506,211.88026432643505,47.55510032593633,136.9460900477535,34.66868638675102,119.17782551335945,64.75827433233113
129.84658415563194,211.6440443156596,47.29660091490647,135.69065446001304,34.578497690630506,119.19737075387617,64.76628785750684
129.78077720459112,211.3434012373715,47.038400899441335,134.53604162948014,34.48661003806587,119.2073172052912,64.78049191594499
129.70877230044564,210.9797733629305,46.781234132478055,133.48431343716203,34.39326377404639,119.20774627686009,64.80062478725931
129.63009519046645,210.55484706980002,46.52579750439271,132.53737734800464,34.298710749628405,119.19878065490423,64.82638476095818
129.54428240158123,210.07050528430486,46.272748438392455,131.69701631811927,34.20323273907283,119.18057812915885,64.85741578365744
129.450856189923,209.52878725013636,46.022693329273515,130.9648347620633,34.10714788364505,119.15331358033899,64.89332272172858
129.34932399417403,208.9319083944588,45.77619237739113,130.34221796886135,34.01080096882818,119.11719708610391,64.93370962289939
129.23925816135412,208.28226298848867,45.533785721897104,129.83036177935423,33.91455282080694,119.07251652823354,64.97819722566098
129.12039569901657,207.5823545375835,45.29601211568157,129.43028319963415,33.81878254001109,119.01964411208482,65.02640507805475
128.99265630944322,206.83473485473283,45.06339895544715,129.14276335730335,33.723899454415466,118.95899833028692,65.07793556691522
128.85607738838925,206.0420460651911,44.83644020093293,128.96831964537532,33.630348118532424,118.89101769643172,65.13239244420791
128.71075742858042,205.20711588746812,44.61559121249795,128.90725811855006,33.53859706612149,118.81616969477653,65.18941188750722
128.55687057608768,204.3329771659899,44.401282647834776,128.9597020423987,33.44912379851591,118.73495252850067,65.24866368578996
128.39471196557977,203.42279811411615,44.1939274674363,129.12553439018035,33.36241317973365,118.64786303076953,65.30982651273372
128.22469263916014,202.47983543326785,43.993908246477005,129.4043529456382,33.27896609139817,118.55536689846214,65.37258297053555
128.04728123202528,201.50745545191143,43.80157220556713,129.79550346356214,33.19929907239366,118.45790643056631,65.43664913370851
127.86296409742572,200.50913665253472,43.61726580380847,130.29809967495152,33.12392803903856,118.35591938820012,65.50179581961328
127.6722528322202,199.48840677096987,43.44139068017898,130.9109701455546,33.053349569527704,118.24982719631218,65.5678292433766
127.47568766908238,198.44879390352713,43.274428276893374,131.63262396169716,32.98803230940366,118.1400125558725,65.63456036738671
127.27380165606226,197.39383823867365,43.11691750146706,132.46129295334697,32.92841625609953,118.02684217143351,65.7018069948867
127.06709082918566,196.32708616932288,42.9694218492516,133.39495876273617,32.874909020240906,117.91072750872664,65.76942159661972
126.85603761165709,195.25201449547944,42.83251566162449,134.43131144412496,32.82787496433657,117.79215154054536,65.83729899857721
126.64115096438361,194.17196898914767,42.70677767450832,135.56773191276082,32.787625249262554,117.67163575845069,65.90534850781687
126.42295663495977,193.09021120429597,42.59277002173355,136.8013462452367,32.754416285354374,117.54970458217839,65.97346877461915
126.201944389576,192.01001996616273,42.49100925242619,138.12905567280617,32.72845376047501,117.4268900825277,66.04155905680926
125.97853890793763,190.9347143512918,42.40195438122675,139.54749169606475,32.709896586291364,117.30374390455401,66.10954496535089
125.75312156166639,189.86758167849473,42.3260162593828,141.0529900498702,32.6988652114662,117.18081244514939,66.17737642277348
125.52606831539434,188.81182445179815,42.263562545006636,142.6416369676616,32.6954604161713,117.05859871810257,66.24500174182596
125.29776760829776,187.77057861743899,42.214901690491644,144.30929955157296,32.6997838336647,116.93756942392265,66.31236261541653
125.0686115314373,186.7469203146254,42.180265973293096,146.0515880391417,32.711946234509384,116.8182036688051,66.37942494642478
124.8389780753447,185.7438113344632,42.15981928849872,147.863834785518,32.73205929255191,116.70101330856414,66.44620382840144
124.60922035151596,184.7640596811349,42.1536808673968,149.7411403683805,32.76021739186783,116.5865037109338,66.51274778817528
124.37965562244133,183.81034354258705,42.16193371581957,151.67840516570504,32.79648193040678,116.47512272758107,66.57910491935024
124.15057091083581,182.88522242563002,42.18460705800441,153.67029788664578,32.840874739216964,116.36724337111508,66.64531301471607
123.9222834677662,181.99107468220345,42.221655121400566,155.71124188408507,32.89337530627664,116.26316408824981,66.71141515401033
123.69521941753581,181.13003125615052,42.272956806464364,157.7954704317185,32.953916324744206,116.1630907036249,66.77746342831419
123.46992487378584,180.3039993213742,42.338329639979214,159.91707436985124,33.022387476526056,116.06711316429525,66.84349436395031
123.24700873451475,179.51473989656353,42.417530835934066,162.06998932399824,33.09865863466992,115.97522635820054,66.90950986397951
123.02710144334743,178.7638816462073,42.51023854604393,164.24799191508183,33.18260768538683,115.88739257728713,66.9754953804147
122.81087240109834,178.05285344355977,42.61603699981531,166.4447550986939,33.274128869392676,115.80357786045124,67.04145178075632
122.59905397224034,177.3828448313868,42.73442780084068,168.65389510322797,33.37312113122377,115.72372941284102,67.10739624731379
122.39241619780451,176.75484941940238,42.86485718762274,170.86895145258643,33.47947470426274,115.64774028949628,67.17333286528066
122.19172453376042,176.16970493774443,43.00672856665919,173.0833612948195,33.593067739877156,115.57544850730669,67.2392350231473
121.99774591063942,175.6280666022091,43.15939420442225,175.2905107491828,33.71376592812412,115.50665445267894,67.30505986544642
121.81128838688207,175.13038555364136,43.32215382383822,177.48382957868105,33.8414126709818,115.44111411091083,67.37076483963551
121.63319865831224,174.67694586172996,43.49427450459834,179.65682948790692,33.975812427338276,115.37851694266972,67.43629588075031
121.46430578343367,174.26788707150706,43.67500817968513,181.80307888757386,34.11672142053521,115.31850260448643,67.50156648654938
121.30540010282289,173.90316526644457,43.863584566428294,183.91620582306652,34.26385175402617,115.26071982315871,67.56646374745095
121.15730932942652,173.58253480408783,44.059193570899644,185.9899645392592,34.41687900704312,115.20486041096574,67.63087304890749
121.02099494515839,173.30560307167087,44.260986427116855,188.01828838095182,34.57544135016725,115.15063620990745,67.69468143650968
120.8975572519613,173.07187116878887,44.46809962177332,189.99527101059545,34.73913289339335,115.09774397722373,67.75775146860323
120.7881693678219,172.88069792071838,44.67967429249343,191.91513601943439,34.90750198495078,115.04585533558603,67.81990262172538
120.69404983652588,172.73126749968486,44.894850092298654,193.77228019482607,35.080055813501936,114.99461183656979,67.88092821420692
120.61649973759069,172.62262451416902,45.11274675738523,195.56136376290917,35.256264180409545,114.94360092291438,67.94062507575686
120.55691905146044,172.5537054862541,45.332460664397104,197.27734719563102,35.43556042362915,114.89233008183324,67.99879519339224
120.51676230537973,172.52331511357008,45.553080512508124,198.9154593378093,35.6173476427393,114.84022676317659,68.0552220292341
120.4975088043936,172.53012817605085,45.77369821065855,200.47118461498977,35.801014608404614,114.78665389053725,68.10966750227536
120.50069932324553,172.57276623259392,45.99339918124826,201.94030906210503,35.98595053090703,114.7309136929388,68.16191150034705
120.52797220933229,172.64985271029758,46.21124989624257,203.31895673346648,36.17154742305538,114.67225178217761,68.2117931624005
120.58102547405174,172.75998213316467,46.426311323410495,204.60356686059794,36.357192320756745,114.60989434211234,68.25920854634165
120.66155433525199,172.90169109790247,46.637676569199854,205.79087546899316,36.542259115234124,114.5431007603369,68.30408094843087
120.77126449549874,173.073495450384,46.84449741173759,206.8779790831535,36.726105808019625,114.47117851020357,68.34635001898562
120.91194361721021,173.273915098322,47.045978392030285,207.86243619135976,36.908073175399494,114.3934596333699,68.385984248355
121.08547390923661,173.50142661046226,47.24135873059047,208.74229545595165,37.08747883822905,114.30929165824797,68.42297992329364
121.2937557504474,173.75442036550518,47.42990994438324,209.51603931026608,37.26361113201732,114.21806118512768,68.45733022250651
121.53863778536697,174.03122553560573,47.61094672587405,210.18253905158912,37.43573639037913,114.11921093837111,68.48899433085576
121.82190412544992,174.33013392829915,47.78382813510395,210.74106855318797,37.603127116894626,114.01222435140191,68.51789910914864
122.14524784607583,174.64936274690393,47.94794300211793,211.19131218299813,37.765102525127105,113.89660760555465,68.5439627392105
122.51017679942119,174.98702273289533,48.102699492166415,211.5333101174672,37.92106353195325,113.77190618931124,68.56710205502895
122.91791621875446,175.34114898037728,48.247532885119526,211.76738871113344,38.07050588469555,113.63773780595557,68.58721412195023
123.36940150357985,175.70972998063934,48.381917794309935,211.89415412366307,38.21300971582536,113.49379439203459,68.60416626240529
123.86534591552571,176.09068245205577,48.505364422204245,211.91453485984354,38.348219590300225,113.33981612621074,68.61781782705361
124.40626915535113,176.48183830691835,48.617401714197406,211.82978735423325,38.475825902590366,113.17558673169442,68.62804665214038
124.99242842829993,176.8809920131283,48.7175700302884,211.641445795412,38.59554754545729,113.00095879411266,68.6347462340807
125.62371379498025,177.28593655976144,48.80543404901274,211.35129148785055,38.70711429377034,112.81586150385502,68.63780852450164
126.29958472743921,177.69443962911933,48.880597874893425,210.96137633602063,38.81025239452298,112.62027056586025,68.63713090546696
127.01905232867234,178.10423392231198,48.94270216675216,210.4740340009257,38.904678064969545,112.41417968009318,68.63264547711735
127.78067203877553,178.51306955567287,48.991411505604674,209.89182835771416,38.99009705171352,112.19760683045729,68.62432958415592
128.58254543616246,178.91875263136237,49.02641595049674,209.21749650204302,39.066204304307206,111.97061409260627,68.61218212054067
129.4223494762859,179.3191173258633,49.04745158346852,208.4539661917725,39.13268161686717,111.73330071926925,68.59620127928257
130.2973667555763,179.7120011443149,49.05431787932126,207.60442085830718,39.18919653380975,111.48577491469041,68.57639677428642
131.2044843894205,180.0952787908332,49.0468730379108,206.67231136562077,39.235406135823,111.22815311403512,68.5528166966212
132.14020114786132,180.46689310720407,49.02501732614057,205.66129273097644,39.27096409887948,110.96059930678001,68.52554707870942
133.10070375011108,180.82482245502445,48.98869126723305,204.57516864699062,39.2955259940951,110.68335323508249,68.49468536404291
134.081984904251,181.16704181964013,48.93789718029439,203.41789074131154,39.3087495603765,110.3967176543752,68.4603318911136
135.07991096214337,181.49156635058824,48.87271943212896,202.19355717003117,39.310292652099186,110.10104184640758,68.42261936781027
136.09022264578402,181.79654912244067,48.79331923405422,200.90636195682285,39.2998174720839,109.7967316799193,68.38174286345655
137.10856726776433,182.08032048852218,48.69991382354282,199.56054717996378,39.27700650844134,109.48425847674024,68.33794968085306
138.13062091040192,182.3413471523815,48.59276703922739,198.16043326800133,39.24158286288395,109.16413376948624,68.29150445668043
139.1522069775001,182.57821274764063,48.472198378427834,196.71049587449048,39.19332145646075,108.83687029211504,68.24267782283535
140.1693084294869,182.78967013384664,48.33858999035796,195.21538295276443,39.13205052127249,108.50297451386523,68.19177045080203
141.17802620269615,182.9746798304616,48.192373783011604,193.67984893871017,39.0576541648287,108.16296815028089,68.13913030060878
142.17461360770625,183.13237619140557,48.03400869795675,192.10869310660658,38.97007801745742,107.81738999424783,68.08513254825095
143.15560228487422,183.26204208549228,47.86397401697521,190.5067535058754,38.8693311477746,107.46676470085143,68.03015075946593
144.1178900090164,183.363155147305,47.68278991215414,188.8789011997446,38.75548158993009,107.11158198017631,67.9745576979164
145.05870592410656,183.4354267300224,47.491044637207146,187.22998130419077,38.62865006451893,106.75231093580611,67.91874257078834
145.97553015814793,183.47876914815907,47.28939921471178,185.5647496822553,38.4890070225662,106.38941616750253,67.86310439347334
146.86606169512274,183.49327016746943,47.07857140760145,183.8878865842751,38.336770642947386,106.02334307124478,67.80801932808797
147.7282132272951,183.4792382469529,46.85932423674215,182.20406378361076,38.172200313748704,105.65449735784811,67.75382162448368
148.5600869870259,183.43723584264245,46.63246524049115,180.517957870786,37.995587582282525,105.28326653771173,67.70081809662814
149.35997152637714,183.36803292543703,46.398837787860565,178.8341822173554,37.807254367505934,104.91007458849668,67.64930535752546
150.12639708824884,183.2725595988505,46.159297196670764,177.15722607608606,37.607563047162,104.5354083827584,67.59955759302215
150.85818333750092,183.1519253602417,45.91469067325622,175.4914548107786,37.3969277447572,104.15979641326808,67.55179959637428
151.55442060949423,183.00743126412152,45.66585681447929,173.84111338513344,37.175813873506435,103.78378423165746,67.50619699880045
152.21443233757884,182.84051465084795,45.41363226097239,172.21027608435347,36.94472654859219,103.40793183143307,67.46286184881795
152.83777281039283,182.65270664285532,45.15884400423457,170.60279035072958,36.70419845833531,103.03280986158111,67.421846173384
153.42423261324774,182.44566522669504,44.90229010354942,169.02229484987868,36.45478815839734,102.65897908289173,67.38311725140683
153.9737976428876,182.2212001933884,44.64473443549729,167.47228930502305,36.19709281031538,102.28697342454934,67.34654395040671
154.48657065921552,181.98122240508795,44.38692733962918,165.95615379858063,35.93176645816902,101.9173080788047,67.31192033127903
154.96272258989137,181.72769822484682,44.12962873330279,164.47709098923724,35.6595276555175,101.55049786124428,67.27900768867211
155.40249763298624,181.46267515949316,43.87360801195845,163.03807457409647,35.38115112842027,101.18705503511735,67.247551672708
155.8062194745278,181.1882982557587,43.61963254128012,161.64185692174203,35.097452425573955,100.82747648534101,67.21726810391196
156.1742603382539,180.90675282175877,43.36847259317066,160.2909825806829,34.80927381327052,100.47226167242063,67.18783683622804
156.50698916028156,180.6202174937729,43.120919570161995,158.98775242203587,34.517472190156454,100.12195521250561,67.15892806522481
156.80471343177246,180.33089512325338,42.8777881556619,157.7341856331367,34.222905975868485,99.77715659833669,67.13023273554826
157.0676107902402,180.0410348911171,42.63989306300945,156.53206013495821,33.92642163333137,99.43847726080641,67.10146203492504
157.2956624517639,179.75287173816216,42.40802492596459,155.38300517490805,33.62884755727092,99.10649612837321,67.07232991785936
157.4886323697415,179.46856917127712,42.18294621198606,154.28853620821394,33.330999346722734,98.78176876822697,67.04255621189624
157.64613200654983,179.1902532658367,41.96539501387272,153.25000525912372,33.03368910707497,98.46487425939968,67.01189012277102
157.76773465823308,178.92006411106425,41.75607407780566,152.26855772227586,32.73773120784634,98.15643212947955,66.98011745793653
157.85304433034142,178.6601225941469,41.55562825562662,151.34515109033654,32.443947034234306,97.85706781620603,66.94703626854508
157.90168515491345,178.41246746328923,41.36463446673253,150.48057594861766,32.15317325119498,97.56737419666764,66.91242935354926
157.91327057760768,178.17908240779465,41.18361264804623,149.67541940084698,31.866268531675946,97.28790159760065,66.87606247264534
157.88741024916857,177.961985911119,41.01303661215819,148.9300207680424,31.584107610926505,97.01915378356074,66.83769710471095
157.82374030475765,177.76324767339807,40.85332449133686,148.24450549630095,31.30755963259138,96.76156753408885,66.79708711816507
157.721927809712,177.58491704549297,40.70481828056484,147.61887527727032,31.037465400289584,96.5154980573842,66.75395887704809
157.58165703603328,177.428989548177,40.567778870832214,147.05304424024231,30.774637414283486,96.28123967575391,66.70800828041254
157.40266236006508,177.29745009237786,40.44240321985767,146.54678898726738,30.519885661675655,96.05906048205125,66.65892945128702
157.1848128050844,177.19227924872717,40.32883929947939,146.09969849814632,30.274041313097708,95.849203792624,66.60644249522238
156.92816170178426,177.11536689417844,40.227178020029534,145.71118104172584,30.037962785391194,95.65185910368155,66.55028912725335
156.63291403064946,177.0684339848218,40.13743184259104,145.3804771922692,29.812539813819967,95.46715203666707,66.49021473553289
156.2993727821109,177.05303378443534,40.059520857626296,145.10662674364207,29.598701290659616,95.29516801482013,66.42597408728419
155.92793498363434,177.07055317397425,39.993271936866634,144.88843793432676,29.397410376326274,95.13596801421421,66.35735879818526
155.5191210630816,177.12214142801366,39.93842055082832,144.72453787266835,29.20963974812747,94.98957145705216,66.28420941917332
155.07357350729313,177.20863866415758,39.89460508952415,144.61347634343068,29.036342662926522,94.85593672743573,66.20639711518132
154.59201790635228,177.33060006422056,39.861358532715805,144.55377030379225,28.878438958990685,94.73496790252275,66.12380682238422
154.075248049604,177.48837343968307,39.83811434317187,144.54385755235978,28.736813214225513,94.62652751483505,66.0363545256038
153.5241595265739,177.68211395429182,39.82423183662456,144.58204923557452,28.6123064682954,94.53042616832991,65.94402134570493
152.93977237184734,177.91173272938954,39.81902098400654,144.66654293424256,28.505697832542396,94.44640433843551,65.846859787511
152.32320319821062,178.1768905224923,39.821747433305326,144.79544532469558,28.417691193181536,94.37414487887335,65.74496584698197
151.67564114752182,178.47706727014724,39.83162746554443,144.96674487354164,28.348914603942163,94.31331286255075,65.63845768465372
150.99838101178744,178.8115999040355,39.84783832504171,145.17827759691534,28.29992088231113,94.26358116658135,65.52748600079671
150.29287085646786,179.17962865982815,39.86955086162125,145.42776921195954,28.271177446268023,94.22464030314059,65.41224907466095
149.5607151870355,179.58004367713127,39.895961015442936,145.71293377257857,28.2630514027681,94.19623038742616,65.29298137009913
148.80366875982943,180.01152066668823,39.92629705442724,146.0315191169275,28.27580410252453,94.17818363397882,65.16993439917766
148.02368070260738,180.47258895881777,39.95981324995668,146.38126765901384,28.309594689780152,94.17042395428581,65.04338934553002
147.22294882877915,180.96162858976498,39.99579723219526,146.75988373005933,28.364479243434136,94.1729160202626,64.9136954666391
146.40390838797353,181.4768153016253,40.03359188466228,147.16506706215998,28.44040223637503,94.1856087425444,64.78128516911826
145.56918110125673,182.01612325291597,40.072604852597124,147.59455059418363,28.53719132913946,94.20841690854455,64.64664557695012
144.72155938900562,182.57740443346495,40.11229283776416,148.04607525464883,28.65456159563171,94.24124000797501,64.51028453492168
143.86401415330116,183.15843687651588,40.15213951129935,148.5173516050676,28.792121670950653,94.28396925693869,64.37273040029838
142.99966055122997,183.7568855313372,40.19164877582665,149.00610251737308,28.94937295004506,94.33645347365785,64.23455232596221
142.1316804772096,184.37026506030358,40.2303509443911,149.51016477552307,29.12570460961765,94.39846086787938,64.09635852716987
141.263267345432,184.99599067621298,40.267803234548296,150.02753239487257,29.320396275494303,94.4696823991015,63.958763958034766
140.3976275371794,185.63146154376057,40.30358005655708,150.55632023763403,29.532635951417063,94.54976245471036,63.822364026852945
139.53798838337204,186.2740709804284,40.33727125507496,151.09475196506875,29.761545869255038,94.63830896655202,63.6877398287955
138.68755418881216,186.92115469299813,40.36849688965639,151.6412092893584,30.006198328516966,94.73487863295145,63.55547112639155
137.84944421536932,187.56998227136867,40.39691817588113,152.1942499868913,30.265616668011386,94.83897369765205,63.42612345245252
137.02669631878138,188.21781680696495,40.422226661377366,152.75254758125692,30.538778518643046,94.95005790269033,63.30021892090178
136.22233066639495,188.8619482204493,40.4441243461646,153.31483579232403,30.82463339380779,95.06756485247357,63.17822853415566
135.43936971117267,189.4996496815651,40.462321408644506,153.87992160635687,31.12212266005981,95.19088966697315,63.06059343646054
134.68075983757825,190.12813879185947,40.476559713272266,154.44670535091348,31.430185435542597,95.31938805654947,62.94773815022008
133.94925932820257,190.74462366727934,40.48663985695862,155.01413772134285,31.74775334507317,95.452396288965,62.84005185496517
133.2473950002941,191.3463820150186,40.492425252185114,155.58116537492666,32.0737476927163,95.5892446125681,62.737866006150284
132.57751069977905,191.9307729179797,40.49382828483736,156.14676147693626,32.40708006348585,95.7292499726266,62.64146284528781
131.94182227919774,192.49519326644713,40.490804919621795,156.7100181268929,32.74664805104967,95.87173598838125,62.55110033927722
131.34242018262952,193.03708111598846,40.48336301945589,157.2701819526248,33.09132931018366,96.0161209802982,62.46701395094589
130.78127566775302,193.55398645830422,40.47156270299683,157.82661209767724,33.439985785534084,96.16202763795376,62.38939190321493
130.2602837291529,194.04361046277992,40.45549863803485,158.37876567979185,33.79147677333719,96.30934047797737,62.318360563652604
129.78127060498477,194.50376071935065,40.43528425142379,158.92624495643798,34.14466696049134,96.4582107056606,62.254000198587065
129.34592172960822,194.93230655521512,40.41105711877074,159.46880980448216,34.49842606702438,96.60906187963923,62.19636483024066
128.9556928124051,195.32722120926832,40.38299352430839,160.006309811376,34.851632107959965,96.76261068744391,62.14547465384807
128.6117721138491,195.68666434556437,40.35130691453356,160.53862363695782,35.20318449211467,96.91985532687984,62.10129178167605
128.31508335940757,196.00899939869095,40.31623061804257,161.06567074866445,35.55201735775695,97.08199981287996,62.06371549781801
128.06630600718518,196.29274796653695,40.27801277584576,161.587430941477,35.897102855787764,97.25034724675992,62.03260414470626
127.8659413147311,196.53658357769996,40.236938759766225,162.10389793301252,36.23744536475836,97.42620862900704,62.007789565197584
127.71442270048419,196.7393917265038,40.19335715707042,162.6150191062275,36.57207573106797,97.61083621907243,61.98906304601273
127.6121851543106,196.90029883406208,40.147678336773076,163.12072389178223,36.900052689372345,97.80536541449983,61.97616199423578
127.55964618422325,197.01861585763007,40.10035031243541,163.62102047360565,37.22046837291589,98.01076010649997,61.968791624134006
127.55717740406386,197.09378229067465,40.05183892083583,164.11603408303887,37.53244935661318,98.2277745895984,61.96666417198914
127.60514572294204,197.12539910881105,40.002621044246794,164.60595769298624,37.83515268999782,98.45693541086615,61.969510291688735
127.70396532555723,197.11330027892788,39.953175438728444,165.09102352911555,38.12776726286902,98.698530026984,61.97705778686347
127.85407241108545,197.0575552951684,39.90395970760678,165.57153953435227,38.40952519034406,98.95261256535753,61.98902441552211
128.05587489496918,196.9584125867232,39.85538396894985,166.04789863858662,38.6797108768589,99.2190648280772,62.00515913785203
128.30978189344015,196.8162958094185,39.807803043122775,166.5205110219968,38.93765636641848,99.49770253893632,62.025299787662405
128.61627876264745,196.63187660455992,39.76153354822753,166.98974186018583,39.182729904204706,99.78834750039753,62.049388870968706
128.97592046339483,196.4061096415229,39.71687330963733,167.45592047893135,39.41432958505136,100.09082135628813,62.077446401311754
129.38921508083902,196.14016771760527,39.67410025373892,167.91936000374807,39.63188140798321,100.40491000661207,62.109551113569864
129.85650303530122,195.8353711935373,39.63346270966788,168.3803124157203,39.83483487770688,100.73035672664345,62.145849622395936
130.37793848519587,195.49319969474632,39.5951888799895,168.83890736691504,40.02265547695813,101.06687062699774,62.1865563271981
130.9535509549992,195.11532558531792,39.55951287436356,169.29517859079274,40.19482069553829,101.41410800331649,62.23191969471825
131.58326773623438,194.703577729437,39.526686024291266,169.74916209510565,40.350831913371636,101.7716422529942,62.28218778274254
132.26686740565245,194.25987911204493,39.49696241633579,170.2009407161527,40.49024713401699,102.13898655166706,62.33761164711012
133.0039693220412,193.78626762455576,39.47058393288862,170.65060127862037,40.61271671107504,102.51567819676715,62.39846970063988
133.7940966676208,193.28498292314072,39.44778451460636,171.09820606593001,40.71799954857344,102.90134636174663,62.46506577898002
134.63670817481562,192.75849137552638,39.428798928346396,171.54382279456394,40.80595959502575,103.29570341516802,62.53769477789946
135.5311473433918,192.20942504968897,39.413853790936514,171.9875286970382,40.87655705030303,103.69848882527205,62.61661979532989
136.47659424864207,191.64055369472757,39.40314494901502,172.4293437252114,40.929843445890775,104.10941664126406,62.702088190053495
137.4720678786211,191.0548335561046,39.396825269587076,172.8691747234608,40.965959072781665,104.5281359461107,62.794354881263665
138.51641164834146,190.45542429635148,39.395014041054694,173.30683682242184,40.98512740840965,104.95419930914595,62.89367132115898
139.6082143650764,189.84562198137053,39.397809791775046,173.74209087978102,40.98764832498179,105.38705036944272,63.00025341043338
140.74572005077184,189.22880976016592,39.405284433012,174.17461640737312,40.973894401623404,105.82603727527649,63.11427411314334
141.92680502962335,188.60848101401874,39.41746472785423,174.6039595218721,40.94430555651235,106.27042856899526,63.235886408254295
143.1490209382767,187.98823866221565,39.434325182143866,175.02955582242274,40.89937596335182,106.71940559009212,63.36523283105912
144.4096205440168,187.37171668428982,39.45579950750703,175.45082064141098,40.839637140161805,107.17206088693835,63.502419403080715
145.70552199096343,186.7625177520777,39.48179151294441,175.86719308381993,40.76564682978255,107.62745515318719,63.647493349909446
147.0332828050173,186.1642218454508,39.51216885644219,176.27810001686274,40.67798777331335,108.08470350470891,63.80046740624921
148.3891735361122,185.58037792300928,39.54675013933649,176.68293474141848,40.57727088230748,108.54300900174441,63.96136751627447
149.7693169458021,185.01442710829585,39.58530837972231,177.08109695460084,40.464136346888715,109.00164176082448,64.1302446041956
151.16977237391302,184.46964211780232,39.62759285310976,177.4720161194277,40.339251094488816,109.45993219630246,64.30714229571177
152.58654659984083,183.94913343909994,39.67334498888624,177.85510660195482,40.20330299683264,109.91730077652666,64.49207312774732
154.01562824936292,183.4558424927373,39.72229236461116,178.22972185682787,40.056993025540116,110.37328651120673,64.68503529904626
155.45306466076468,182.99247642654012,39.77413605949854,178.59517075306817,39.901029222600194,110.82755117472723,64.88603595259193
156.89498792942368,182.56146993246887,39.82855613584188,178.95074582878806,39.73612601946875,111.27988153087276,65.0950783431371
158.33755726558803,182.16502316148512,39.88523442000965,179.29569397268926,39.56300641327699,111.7302009888715,65.31212991529901
159.77690421517553,181.80512620912484,39.94386785519423,179.62916984891268,39.382402205264256,112.17855462670545,65.53712251352512
161.20915598214296,181.4835152064978,40.00416159847236,179.95026501371456,39.19504977603513,112.62504758018606,65.76999061710384
162.6304958504891,181.20164719466874,40.065825881400706,180.25810001377334,39.00167982775686,113.06978377647951,66.01069551429015
164.03716939999103,180.96074675300756,40.128595221338244,180.55186743354523,38.80300358675713,113.51286411415853,66.25920193747953
165.42542145093842,180.76183377160024,40.19225156658243,180.83079364104898,38.59970367097716,113.95443034168098,66.51544027542107
166.79142950784646,180.60567458433428,40.256623797764014,181.09411122255204,38.39243421341081,114.39468082567994,66.77930442556423
168.13129631042332,180.49274474488865,40.32156573416711,181.34108993990398,38.18182394144654,114.8338314925781,67.05068097130022
169.44109806709812,180.42326598756887,40.386939171174845,181.57105574522558,37.96847471429347,115.2720677629535,67.32945846763914
170.7169275434882,180.39723792506234,40.452616213496086,181.78335002111822,37.75295706358891,115.70951615309556,67.61549826478071
171.9549075907258,180.4144096040182,40.51848566630774,181.9772931853469,37.53580811810264,116.14621341908803,67.90861009866755
173.15120727506266,180.47427299409446,40.584445014616435,182.1522113200012,37.31753301544368,116.58205581486216,68.20856563613506
174.3020548496029,180.57612781700118,40.65038606084224,182.30747318565318,37.09860617098231,117.01676325071485,68.51511992080782
175.4037132746421,180.71912716159088,40.71619650010514,182.44246737040646,36.87947066223867,117.44992332582707,68.82799992568074
176.452440678415,180.90225073393714,40.781778406088236,182.55656039393511,36.66053813261738,117.88111709435809,69.14687639031003
177.4444875066054,181.12429594079632,40.84705851591203,182.64912901434914,36.44219225037105,118.3100444494809,69.47136671963916
178.37612997554265,181.38393926133858,40.911975372764765,182.71965307386037,36.22479962121256,118.73659470231023,69.80107123261507
