HandOpen,HandClose,Wrist Flexion,Wrist Extension,Supination,Pronation,Rest
1.0285152851539543e-05,1.1773793395841317e-05,7.713864638654655e-06,1.353309585728887e-07,1.353309585728887e-07,1.353309585728887e-07,7.037209845790214e-06
0.00011253416108783241,0.0001217046601740208,8.355480232479373e-05,1.4611252703096133e-06,1.3257943117367246e-06,1.596456228882502e-06,7.800847843469323e-05
0.000618316271645243,0.0006276216629935358,0.0004590034269481159,7.927823099855037e-06,6.872690705264091e-06,1.0336265080174872e-05,0.000435652320791408
0.002306074531534226,0.0021901162232844697,0.0017292867107627282,3.1048591773187004e-05,2.6150834898531927e-05,4.933962272378223e-05,0.001660468725935995
0.006643945495532118,0.005908722520126523,0.0050748852596490136,0.00010573681491603974,8.345444686360305e-05,0.000190899343528491,0.004924183785173336
0.015909390627152017,0.013304276852647524,0.012439853223184048,0.0003368667078643665,0.0002345241683226286,0.0006200008258773117,0.01222658435187683
0.033178405957504,0.026247771259189867,0.026601154768244793,0.0009962299885049632,0.0005876508397963251,0.001727896225585399,0.026587560232732153
0.062213280000788594,0.046872337093633566,0.05111264289761319,0.0026700244991408537,0.001322112500715501,0.0042237648082740584,0.052126640460923884
0.10729815308375305,0.07748659959824164,0.09016228333391946,0.006426792803428654,0.0027018475140830342,0.009256415474463096,0.09399223054881273
0.173062318911374,0.12050123834237972,0.1483946349050039,0.013950773844148043,0.005091245375772266,0.01853939845986377,0.1581720113138358
0.26431343500537174,0.178388397338431,0.23073317112753824,0.027588898272112444,0.008977932763193506,0.03444884797306791,0.2512501174839615
0.38589087698278557,0.25370376450417353,0.34221961770312675,0.05030124990733261,0.014993655298003231,0.060045962930387185,0.38015989086432045
0.542551578384277,0.3491867722708495,0.48788364222579733,0.08554784540667457,0.023918824651021277,0.09900635459135695,0.5519555803146351
0.7389127174261526,0.4679196741779478,0.6726632506637419,0.1371503511014306,0.036667088913498014,0.15548558507967067,0.7736169554771842
0.9794715190615816,0.6135061997815798,0.901393970880095,0.2091508256410068,0.05425680025581325,0.2339628887093489,1.0519062429004309
1.2686944215589535,0.7902257712191131,1.1788619372919118,0.3056781338439755,0.07777687700250381,0.33908869160829463,1.3933047538391912
1.6111476232642894,1.0031110893859103,1.5098961823032448,0.43082774527396867,0.10835196034488562,0.47554758516924167,1.8040447574430527
2.011634984075194,1.2579084419818236,1.899477133649932,0.58855906474678,0.14711131971409164,0.6479469450564767,2.2902214155564287
2.475292613531118,1.5609270504128345,2.35283386696219,0.7826187575163014,0.19516632516596347,0.8607444503445321,2.8579510546905027
3.007585115185092,1.918823871014695,2.8754809971394963,1.0165055280761006,0.25359852915790676,1.1182242918999956,3.5135355935574895
3.614191882764499,2.3383719124343454,3.4731552179318155,1.2934894812075675,0.32345456792590255,1.424516079092998,4.263573096959373
4.30082466912963,2.826241279963641,4.151663092084281,1.6166792638665015,0.4057411542809557,1.7836365547671351,5.114949389580832
5.073027071416495,3.3888057003908942,4.916687464531422,1.989102893350876,0.5014177892745706,2.199542030911112,6.074695510204748
5.935985633132057,4.031982262351615,5.773593340355031,2.413757467259474,0.6113931567918814,2.6761868407810065,7.149759088629667
6.894365715303786,4.761120833704885,6.727254070595384,2.893601446079466,0.7365314950286238,3.217561596170262,8.346753024462027
7.952180864727037,5.580967201100139,7.781908609322416,3.4314948020285603,0.8776627966563945,3.827672180573487,9.671721166768444
9.11270859232051,6.495707995200518,8.941062171826765,4.030111043414712,1.0355834855853951,4.510451427630017,11.129946733307458
10.378472667331991,7.50907445598386,10.207450401129387,4.6918442976877355,1.2110437497918207,5.269632609080546,12.72584573079606
11.751299735873426,8.624459570960255,11.58308101785914,5.418724755635804,1.4047277374064764,6.108625847776073,14.462978610558938
13.232408294002036,9.844987711235447,13.069318412320385,6.212350041608266,1.6172326469878693,7.03043773417645,16.34412368789309
14.82245220814306,11.173487748665723,14.666933022418126,7.073845661759921,1.8490511387290105,8.03765158468598,18.371296327523854
16.521491008255587,12.612394782360413,16.37608995363487,8.003867100356278,2.100563619889831,9.132433197872972,20.545694533556915
18.328948634919342,14.163673176608635,18.196338201622027,9.002626829988285,2.3720453155527164,10.316508214404076,22.867669306177326
20.24363155486911,15.82880474073055,20.126641913955307,10.069905322963645,2.663683064043333,11.591116516873079,25.336768116195362
22.263790233691502,17.608782072203635,22.165412029368767,11.205034494452548,2.9755904789908443,12.957000019055346,27.95177647609234
24.38714917300713,19.504052643394278,24.310496298305356,12.406890823571644,3.3078138497261698,14.414433933278122,30.71069384296288
26.610891462575577,21.514462907867983,26.55916661122276,13.67393178126859,3.6603266441990514,15.963244392446258,33.6107013414216
28.93166547262851,23.639279263223248,28.90817121611478,15.004254698251918,4.033018260159818,17.60278338506844,36.64821133873917
31.34564466676043,25.877260295129826,31.353834847998375,16.395630547224453,4.425687977378559,19.331902140902095,39.81897474949709
33.84858063304562,28.226681984467614,33.892114954736286,17.84550731310338,4.838047280965602,21.148957021883614,43.118136610184436
36.4358056824819,30.685295909323987,36.51858275157432,19.351022474815608,5.269724060481333,23.05182411410211,46.54021620118982
39.102235182778834,33.250304767738456,39.22839607303361,20.909041935005124,5.720263350111101,25.03789306695474,50.07910867737342
41.84242506896653,35.91840225211427,42.01631521497153,22.51619397007475,6.189127224686929,27.104061076567586,53.72816206585775
44.65064874513807,38.68581594485365,44.87673293354014,24.1688705918204,6.675700741305082,29.246768723992354,57.48025482396155
47.52092654036859,41.54829472126969,47.8036814068318,25.863214317833794,7.179304699526863,31.46206829820419,61.327801477990484
50.44702223117775,44.50108855483957,50.790841320139236,27.595130907310324,7.699206919868642,33.745667458624894,65.26273787298332
53.42247647019393,47.539001539449075,53.83159441895062,29.3603433623963,8.234624878845283,36.09292882008598,69.27657883835208
56.44068077390287,50.65649609742963,56.919096545923345,31.1544554415297,8.784722539175696,38.498868085887096,73.36053143184449
59.494921300700184,53.847747360702975,60.04631394201577,32.9729858185799,9.348607863194532,40.958180822106065,77.50556040271836
62.578364954952406,57.106622864038854,63.20602926943398,34.81138362753158,9.925331560678925,43.4652758855947,81.702382433036
65.68404984281293,60.42666975201945,66.39088205102789,36.66505978983413,10.513883714020436,46.01429079242645,85.94147852808914
68.80494159696303,63.8011577968311,69.59345438305151,38.529425742683095,11.113188564588096,48.59910992308613,90.21317103774847
71.93402670380694,67.22312294553065,72.80633395153416,40.39990575959125,11.722106125492122,51.213422994924116,94.50769616545402
75.06436099246532,70.68536218630213,76.02212048388697,42.27192673505699,12.339448381679846,53.85081025690784,98.81521379855783
78.18905977469804,74.18043223836284,79.23342589162745,44.140921089903614,12.964001514912672,56.50479609519355,103.12581267459954
81.30130345296847,77.70072720162669,82.43290814936653,46.002356227263625,13.594537967628693,59.16885213761188,107.42959620533905
84.39439486339411,81.2386032165,85.6133074706266,47.85176620578418,14.22981437766051,61.83639353741111,111.71681674855348
87.46180749092136,84.78644539948735,88.76745025044013,49.684763128307786,14.868563097291977,64.50080191390097,115.97794413499324
90.49717554469184,88.33665658121153,91.88825137348412,51.49704935090173,15.509486695990455,67.15545629417552,120.20364865143942
93.49427479395709,91.88165840547259,94.96876234992845,53.2844705754065,16.15126252974405,69.79374529144559,124.38480217223896
96.4470607792758,95.41395667544268,98.0022434413947,55.04309637678096,16.792556204678547,72.40907649914645,128.51255181076294
99.34974053099036,98.9262044616489,100.98219515540421,56.76926395313116,17.432031841883315,74.99492230316176,132.57838766312398
102.19680024473924,102.41119786402874,103.90234904146082,58.45956132472834,18.068350812039487,77.54489685225725,136.57413390533114
104.9829786318916,105.86185997962139,106.75668424824549,60.11079583820277,18.70016615704205,80.05281025279155,140.49192370463084
107.70325421291143,109.27130667963935,109.5394869054832,61.719988801072795,19.326124898916746,82.51268014540665,144.32425536634014
110.35287887269224,112.63296697569986,112.24538961700445,63.28438023024677,19.94487965661062,84.91874084915075,148.06410197124913
112.92740440274348,115.94063881664374,114.86935779047757,64.80141231529824,20.555100399155794,87.2654750434907,151.7049583254202
115.4226570227574,119.18845401223793,117.40667294773316,66.26870440118563,21.155482219411503,89.54764163004386,155.24081485311015
117.83470166410073,122.3708548364187,119.85295656698545,67.68405907574841,21.744754088550366,91.76027518392537,158.6661709409708
120.15986185970391,125.48263737711977,122.20420047311396,69.04549779459967,22.32168976868301,93.89867993129307,161.9761155903921
122.39478012882603,128.51898539338453,124.45675774580437,70.35127965717521,22.885115972785503,95.95845831397456,165.1663633397021
124.53644183668888,131.47544219963027,126.60732469372383,71.59988565261133,23.43391407481988,97.93556488567548,168.23319483959182
126.58214347540441,134.34789555253494,128.65298229720958,72.79000479069667,23.967016120739107,99.8263315783915,171.1733966658135
128.52947001907967,137.13262931609106,130.59128494195468,73.92055058736771,24.48340073131486,101.6274477154316,173.9842667833037
130.37631771914818,139.82636473386782,132.42030365592774,74.99068562765758,24.98209535892797,103.33593657465086,176.66361914084658
132.12091306675,142.42623644853435,134.13858989655307,75.99981838641592,25.4621838270668,104.94915632893198,179.20971957333919
133.76178463876352,144.92978257843197,135.7451287815427,76.94758390332107,25.922810187962234,106.46480376762418,181.6212125110504
135.29772862674696,147.3350015331438,137.23933360333743,77.8338574606679,26.363176245180238,107.8808971547549,183.8971406001944
136.72782489491104,149.64038775145372,138.62104670504544,78.65880420458971,26.78254233044243,109.19575896781095,186.03703150958307
138.0514795819625,151.84488477014327,139.89050238873335,79.42290129468788,27.180239232845246,110.40803954212976,188.0409243081264
139.26842595463512,153.94784019939968,141.0482827090084,80.1268979411236,27.55568546265739,111.51677317451157,189.90931216990296
140.3786811730944,155.94902917973081,142.09533208939763,80.77175740497795,27.90839605111066,112.5214056705698,191.6431122949159
141.38252637158763,157.8486688987697,143.0330190481742,81.35862799987169,28.23797907431636,113.42176986541466,193.24369932249095
142.28053811713335,159.64735895426617,143.86315482251578,81.88882900769602,28.54413108792668,114.2180580439179,194.71290301164805
143.07361440210252,161.3460225491003,144.58793634821592,82.36381498502534,28.82664197511608,114.91082868319371,196.05292584898237
143.76294491724806,162.945914477795,145.2098842711985,82.78511980268141,29.085405823950136,115.50101718475894,197.26626935146882
144.34996533873786,164.44862561031584,145.73182757926276,83.1543171255059,29.320424932377623,115.98991207536321,198.35572746747968
144.83636924993993,165.85602249690075,146.15689382421823,83.47301999082113,29.531802077086766,116.37911649384108,199.32437955926008
145.22416808723062,167.17019463418032,146.48845551504513,83.74289476927433,29.719729880144683,116.67054025475079,200.17551840174067
145.5157110099673,168.39347011674275,146.7300664119928,83.96564984291912,29.884485895452592,116.86641706737248,200.91257259659469
145.7136324692115,169.52842466766046,146.88545920012416,84.14300391226597,30.02643195777336,116.96929571152279,201.5391206332666
145.82079591275158,170.57782050500492,146.9585944868007,84.27667474713873,30.14600989348097,116.98199024856973,202.05896855595725
145.84028363623486,171.54454645769997,146.9536695025401,84.36839777848532,30.243731137557486,116.9075313319799,202.47616871639917
145.77539155153272,172.43162142845216,146.87505088514817,84.41993589308494,30.32016784500823,116.74914619716435,202.7949629519039
145.62958268451735,173.24219459988987,146.7272004131181,84.43305703348744,30.375952615547746,116.51024385523,203.01975954275846
145.40643328205044,173.97948727494236,146.51465049082356,84.40951308521515,30.411783278867922,116.19437988606647,203.1551708710933
145.109629674066,174.64674482577547,146.24199514414272,84.35106144588697,30.428421756438535,115.80522201976659,203.20600714165346
144.74299840059624,175.24725110862536,145.91384516708536,84.25951123399604,30.426684232111665,115.34655722474425,203.17718568915672
144.31049865876497,175.78433458940881,145.5347757668735,84.13673723076522,30.407431635730664,114.82232958845368,203.0736501907268
143.81616614541187,176.26131088456575,145.10933685544128,83.98464789377526,30.371565624000038,114.23664739929289,202.9003609529302
143.2640748858992,176.68142810670224,144.64211454660423,83.80515318725813,30.320025935985814,113.59373380061048,202.6622897376311
142.65835025636974,177.04787352899325,144.13774866800517,83.60016607511996,30.253784787518914,112.89786559102342,202.36435216792364
142.00317909627597,177.36378331410904,143.60086700704477,83.37161393169191,30.17384118489234,112.15334778212708,202.01133214169812
141.30276846852615,177.6321907901627,143.03600704565724,83.12142243620694,30.081220761941307,111.36451341972962,201.60789269805704
140.56129557489686,177.85596424827642,142.44759784908743,82.85148103154107,29.976977626796607,110.53570486314173,201.158647731847
139.78291958913508,178.0378244339089,141.83998021714712,82.56363115648435,29.862189085284893,109.67123252793678,200.6681784229172
138.97183798398453,178.18042155488902,141.21739387520924,82.25968503624667,29.737942958904895,108.77535375646356,200.14098152649441
138.13229945140847,178.28636147576987,140.58392616837014,81.94143533687289,29.6053248575039,107.85228436328437,199.58145617258992
137.26855077012985,178.35814744799347,139.94348697719047,81.61063400365785,29.465408855390343,106.90620133161977,198.99395285596296
136.38479120228786,178.39812451785076,139.29982892990364,81.26897324826582,29.319250408793884,105.9412133540534,198.38278136439118
135.48517840465985,178.40848826410235,138.65655266242865,80.91809922060934,29.167879721726308,104.96132926355133,197.7521382447887
134.5738345977536,178.39130414935173,138.01706433760467,80.55963436192533,29.012293690822602,103.97045043507714,197.10604459041593
133.65480262892655,178.3484734150087,137.3845364555711,80.19516782878951,28.85344926978992,102.97236795627347,196.44835200927275
132.73199285455453,178.28168776653618,136.76191710693098,79.82621987448339,28.692263531324894,101.97073934434758,195.78275096468155
131.8091930332064,178.19245752051538,136.15195122839629,79.45422542736405,28.52961676343881,100.96906495612424,195.11271488447454
130.89012563652076,178.0821965007613,135.55716210326162,79.08055626690877,28.366350140347617,99.97070830963236,194.4414330248459
129.9784630089759,177.95225798266688,134.97981820535222,78.70654615595141,28.203257256713638,98.97895268290301,193.77183055799716
129.0777740486492,177.8038867627128,134.42195056722102,78.33348069786192,28.04107420964713,97.99702803560808,193.10665801167875
128.19147506555626,177.63817708970484,133.88541446919731,77.96256846967938,27.88047046627744,97.02807876140392,192.44853140896868
127.32283271939863,177.45611598823982,133.37191563010424,77.59494019609515,27.72204152934798,96.07511819913806,191.79989792101068
126.47497097439745,177.25866403499336,132.8829707618818,77.23168100386188,27.566304611420204,95.14101281625528,191.16302845419958
125.65082870196434,177.04677253121326,132.41986818510253,76.87384862022259,27.413697040896167,94.2284810337186,190.54006843572103
124.85310517617405,176.821336536845,131.98368284160654,76.52244916672834,27.26458024206727,93.34007549225294,189.93305224387035
124.0842702900952,176.58317562478027,131.5753081192859,76.17840045149244,27.11925380653339,92.47815962447837,189.3438418559002
123.34663171710272,176.33307203713153,131.19544642102576,75.84252353555273,26.97797502590147,91.64491744223787,188.77407618678052
122.64236590515534,176.0717904540593,130.84458331647664,75.51555894206123,26.840972815797112,90.84239344256035,188.22518855929837
121.9734736843957,175.80003543668866,130.52301703539575,75.1981697092634,26.70845100990784,90.07250849929777,187.6984283110146
121.34173018817862,175.51841052709483,130.23093681638355,74.89091813961711,26.58058564248671,89.33702937246063,187.19481961199955
120.74869479040738,175.2274347526999,129.9684625154227,74.59425014162873,26.457524025519973,88.63753549793084,186.71510841674265
120.1957492694464,174.92756799569833,129.7356117391464,74.30851673805445,26.33938911795302,87.97542013228247,186.25979325085814
119.68409426974974,174.61918378047213,129.53226062642793,74.03400975948567,26.22628598634514,87.35190406225757,185.82922097036916
119.21471096705542,174.3025293744484,129.35815294069593,73.77097048209586,26.118303776220213,86.76802518611825,185.42363176109401
118.78836097299653,173.97775529695588,129.21292419332548,73.51957809816253,26.0155123700567,86.22461657050893,185.04313194799374
118.40563751373489,173.6449984672145,129.096088447288,73.27995812476414,25.91795965623814,85.72231950708426,184.6876982405362
118.06699403937084,173.30441831188392,129.00701006318076,73.05221143976179,25.82567193539172,85.2616322158915,184.35724462278378
117.77271772904501,172.95615902882045,128.94492460682923,72.83642269051889,25.738654191337236,84.84293773070584,184.05165191211663
117.5229157577673,172.6003259174739,128.90900249011963,72.6326338591921,25.656886476575217,84.46648757245515,183.77071423912008
117.31756191568736,172.23702941857772,128.8983771256749,72.4408225260669,25.580317487883082,84.13238425198676,183.51409295344183
117.15654356343308,171.86643014521857,128.91211403576875,72.26092434602694,25.50886249448987,83.84059249241552,183.2813452332338
117.03964230332595,171.48871374811645,128.9491894118577,72.09287959582345,25.442411794257694,83.59095160807675,183.07196263492668
116.96648644681476,171.10404129660355,129.008523453532,71.93664748625822,25.380845335250626,83.38315907689082,182.88534215814806
116.9365564538017,170.7125701959856,129.08902162474257,71.79217737152192,25.324040883381056,83.21674917579058,182.72073549699905
116.9492387915445,170.3145372923556,129.18956604811427,71.65939349008721,25.271872448874994,83.09111699765212,182.5772763209414
117.00384493775282,169.91029598295825,129.30898388484843,71.53824314732631,25.22420810626034,83.00558286510812,182.45407223796002
117.09956513652172,169.50026436811433,129.44606364718462,71.42877491701594,25.180910750817883,82.95942920882976,182.35024655868872
117.23542496814369,169.0848701456188,129.59961541604048,71.33116942152473,25.141836644211647,82.95187889219564,182.264906678992
117.41030298187046,168.6645723125224,129.7684942167593,71.24571607614286,25.106830297979066,82.98206356919133,182.1971417054132
117.62297189742522,168.23991762317996,129.9515564914891,71.17280623860269,25.075722432630926,83.04902505503642,182.14608056993802
117.87209509701869,167.81154008921993,130.1476145016115,71.11297058083638,25.048336457543233,83.15172653389904,182.1109130345308
118.15619063870419,167.38011037015355,130.35544368476897,71.06690146761134,25.024497468391218,83.28903610139541,182.09082883196686
118.47363484832671,166.9463282177785,130.57381030277034,71.03541984084933,25.00403501864464,83.45969925515757,182.0849583926167
118.82271512510714,166.5109754335016,130.8014614746743,71.01943579673197,24.986781301467513,83.66235107275327,182.09237787853394
119.20165997892181,166.07493551270198,131.0370938337207,71.0199573549403,24.972573064369193,83.89556977691355,182.11212554941898
119.60860987012194,165.639135660011,131.27936834634656,71.0381164344766,24.96125964699883,84.15791109891774,182.14316720144896
120.04158454889989,165.2044913799731,131.52697290872726,71.07514891828389,24.952709634294173,84.44789244654966,182.18435516873086
120.49850327556277,164.77191856236996,131.77865433990354,71.13233851037295,24.946809203656567,84.76396706989831,182.23446661945513
120.97722797947502,164.34235802120122,132.033187457497,71.21099297132824,24.943454113407636,85.10452556700449,182.2922981427091
121.47556521854835,163.91674160694043,132.28934617382245,71.3124691592652,24.942543270606702,85.46790734081561,182.35670510948506
121.99123476308456,163.49594045484704,132.54592946197138,71.43818317298634,24.943979657459284,85.85239355486401,182.42657047038878
122.52187340972927,163.0807850140425,132.8018013343733,71.58956848732593,24.94767548368891,86.25619891162505,182.50080736128987
123.0650884993675,162.67214301860122,133.0558823686328,71.7680338506722,24.95355405407947,86.67750389683131,182.5784230911539
123.61849349963391,162.27094728914642,133.30711388057858,71.97496905871932,24.961544986164483,87.11451807388173,182.6585430789778
124.17968901624386,161.87813934284682,133.5544694720436,72.21175903931864,24.97157597719581,87.565512114333,182.74034893573392
124.74624479870003,161.4946206472198,133.79701708295,72.47975200839858,24.98357138132038,88.02879490704268,182.82301619668482
125.31573146967422,161.12127608567295,134.0339502902091,72.78021490432451,24.997468419351613,88.50268215110366,182.90571789819074
125.88576014805003,160.75900595434285,134.26455554569986,73.11434949300296,25.01324503320511,88.98549516572234,182.98764220472256
126.45397399288498,160.40869200665287,134.48817801109402,73.4833560536606,25.030935443729895,89.47557063431738,183.06795935441698
127.01802401591294,160.07114748494303,134.704228923619,73.88845155975427,25.05062043969268,89.97124991251216,183.14578295784105
127.5756040494271,159.7471493471026,134.91219162405193,74.33081077815196,25.07240515051363,90.4708645034808,183.22021694958502
128.1245359807362,159.43753034181128,135.11158370324148,74.8115032876684,25.096403214500583,90.97276259790546,183.29046405487782
128.66281376072496,159.14321082032535,135.30191297938114,75.33148220834025,25.122732119830278,91.47537085836856,183.35587414823937
129.1885701149311,158.86514478226977,135.48269085547577,75.8915852054186,25.151509073854054,91.97722698423827,183.415912377214
129.70003688425868,158.60428248587385,135.6534875451379,76.49249696501076,25.18283762748117,92.47695449261685,183.4701558058088
130.1955662301184,158.36159388799555,135.81395045659684,77.13471254988112,25.216789848820696,92.97322541655093,183.51835009762712
130.67368104148076,158.1380697590346,135.96376789487317,77.81857970243759,25.253396721319852,93.4647521256599,183.5604248059445
131.1330788551572,157.93465061477778,136.1026438593152,78.54439868913113,25.29265074748235,93.95029143539485,183.5964219033523
131.57258790607236,157.75216136850617,136.23031659517494,79.3124676876773,25.334511063129487,94.428632154362,183.62642573725682
131.9911473578835,157.59133121427547,136.34657148885313,80.12303644926234,25.378904319503352,94.89858696004399,183.6505601953012
132.3878370648105,157.4528518977405,136.45121145840804,80.97625254374675,25.425728494299793,95.35903521716445,183.6689957890488
132.76189582125102,157.33737395058762,136.54402960096456,81.87216200821578,25.474866230879673,95.80900183432158,183.68189955301563
133.1126880792935,157.24544384446625,136.6248354985036,82.81071831710469,25.526200453104636,96.2476948320462,183.68937694897218
133.439666613811,157.17747981237656,136.69350047185227,83.79174229247694,25.579618835896827,96.6744691318369,183.69150134150115
133.74237797415813,157.13381427442403,136.74995395244503,84.81487449665093,25.635005174485084,97.0887711365246,183.6884084787441
134.02047575474316,157.1147168243884,136.79414512394595,85.87960792933222,25.692229565298003,97.49012663023547,183.68033437321594
134.27369187889062,157.12035712788077,136.826046200205,86.98538621715248,25.751147152549237,97.87816459418552,183.66757398391337
134.50179655324484,157.15078463969505,136.8457066558984,88.13165052145587,25.81160269076772,98.25261973660807,183.65046716038128
134.70461803454978,157.2059652889841,136.8532807125887,89.31779718920467,25.873431803052597,98.61329734810396,183.6294464059957
134.88211378546671,157.2857963925598,136.84899354934214,90.54313997907383,25.93645791272372,98.96004602134143,183.60504965193013
135.03440352436598,157.39005081375916,136.8331055478301,91.80693227991911,26.000493975893235,99.29276066459467,183.57785295415442
135.16173184703402,157.51832921640477,136.8059157337783,93.10838232519222,26.06535366786508,99.61138050703077,183.54841045768848
135.26443387983971,157.67010009619844,136.76776420705343,94.44660576556258,26.130864674409185,99.91586095969109,183.5172662043565
135.34295630666287,157.84477675970243,136.71899684069714,95.82057343373549,26.196873301128914,100.20615076831284,183.48497440090435
135.39788193351575,158.0417274458589,136.65993473491605,97.22912979494566,26.26323946444713,100.48219976875181,183.4520550042166
135.4298971257554,158.26022373192168,136.59091200360314,98.67104819863287,26.329832306013383,100.74397186350272,183.4189352404881
135.43973975382065,158.49942936259657,136.5123573807676,100.14503054577493,26.39653532229298,100.99143238425407,183.38597836614824
135.42820816239694,158.75845772787844,136.4248286529217,101.64965089004001,26.463257665578947,101.22453171200954,183.35358017361557
135.39622333995217,159.03640711972216,136.32898182854305,103.18333758584511,26.529938071201993,101.44323380858717,183.3222090830289
135.34485187688696,159.33232786232813,136.2255464848259,104.74442463773082,26.596534681533306,101.64758250074006,183.29236404989715
135.27525287632184,159.6451979990382,136.11533585980007,106.33118728727953,26.663010293043577,101.83773544275978,183.26455922493352
135.1886191199975,159.97395631547565,135.99923951726248,107.94181684757956,26.729325229645504,102.0139307737794,183.23937249653713
135.0861797663119,160.31752397561883,135.87816824196037,109.57440774447282,26.79543833203787,102.17643618061896,183.21745816270072
134.96923404506305,160.67476158444074,135.75300487694417,111.22700012799821,26.86130697673407,102.32554295682696,183.1994762591632
134.83914049158872,161.04442803599022,135.6246291033246,112.89760574582658,26.926880487518186,102.46159848149453,183.18602671247027
134.6972602378265,161.42521872620495,135.49398908197634,114.58416444386073,26.992091128215,102.58501769557857,183.17765456670406
134.54492847789584,161.81583858590702,135.36212208819376,116.28449940981871,27.056850074223217,102.69625373696952,183.17486672479959
134.3834795987132,162.21501008037518,135.23009822630033,117.99635239870356,27.121049983714308,102.79577226908108,183.17808959102373
134.214260379508,162.62141977221475,135.0989613191559,119.7174604882116,27.18456833232902,102.88405416494516,183.1876147811457
134.03858889667504,163.03370107242606,134.96971537072693,121.44557313237,27.247267003035443,102.96159256141421,183.2036290506694
133.85770977249803,163.450484299465,134.84331855121172,123.1784057899827,27.308990340816543,103.0288600398165,183.22630803924696
133.67279695039073,163.87043084703572,134.7206444608847,124.91362735711556,27.369565130126016,103.08627531350297,183.25585307035865
133.48497046623763,164.2921960009111,134.60244559843122,126.6489130510193,27.428801764220665,103.13420197047164,183.29244626519065
133.29527305976316,164.714386376057,134.48937663456311,128.38197648901775,27.486492604680546,103.17296235240961,183.3362291419635
133.10463126394058,165.13559180224982,134.3820550434581,130.11053690371384,27.54240810884941,103.20282987623774,183.3873431584463
132.91387269645875,165.554454997505,134.28107750819257,131.83229908253472,27.596297061836847,103.2240097746451,183.44593980007366
132.72379655115432,165.96968176765117,134.18697611470418,133.54499249069016,27.647892897566432,103.2366580419124,183.51211310210755
132.53520948550738,166.37998529405047,134.10018106072707,135.24639702395586,27.696920980386274,103.2409419584759,183.58583768667216
132.34888981178116,166.78405267467778,134.02102476746774,136.93430898793827,27.74310385546701,103.23707862426853,183.6669792700728
132.16554850371963,167.1805718694497,133.94974568600858,138.60651327873944,27.786170719195503,103.2253177101442,183.75532052428397
131.98584343302426,167.56825297120497,133.88645587622156,140.26080713002202,27.82587571719138,103.20591225566848,183.8505289940856
131.81040541296662,167.94579375196258,133.83110694463278,141.89501675176805,27.862015250381283,103.17912178053972,183.95211336839103
131.63981791758587,168.31184659185172,133.78351281713478,143.5069603121701,27.894432348730213,103.14522924407942,184.059470569728
131.47458077436548,168.66505857608323,133.74341795520877,145.09441746412347,27.92300874683368,103.10453080106598,184.17200516114758
131.31513187725307,169.00414628647704,133.71053234592173,146.65517814174166,27.94765325824936,103.05730717758856,184.28918882132072
131.16191792488664,169.3279103854098,133.68450319942957,148.18712792822728,27.968293948496058,103.00382713256967,184.41052458189318
131.0154234586075,169.63518927609908,133.66488296043173,149.6882675390069,27.984876647101164,102.94438868334312,184.5355249264097
130.8761223778186,169.9248452476118,133.65113872463237,151.156661396167,27.997366615089128,102.87934028537592,184.66375154159965
130.74442349488658,170.19581666270562,133.64267034867652,152.59040821561308,28.005746785672688,102.80905299504921,184.7948273422438
130.62068209246772,170.44715526625208,133.63879996675402,153.98767198249706,28.01001051845123,102.73388490562736,184.92837295530242
130.50524933181333,170.67798984407517,133.63876013237535,155.34670470635925,28.010156090110932,102.65417646522486,185.06395351077637
130.3984781483309,170.88747940348725,133.64172178427253,156.66580780052098,28.006192308568345,102.57025863703235,185.2011058003562
130.30067618725894,171.07484054940514,133.64683860638078,157.94328541085486,27.99815349920193,102.48243931701,185.3393823955052
130.21207906595046,171.23941906178274,133.6532528611575,159.17746886268736,27.98611047239841,102.3909807980246,185.4783286896821
130.13287636150633,171.38070736941611,133.6600718953793,160.36679092782205,27.970173506485594,102.29611422680277,185.61743786064403
130.06323051899017,171.49829876160166,133.66637927668648,161.50981467526432,27.95049629386968,102.19808874874622,185.75619102363797
130.0032443194976,171.5918703087293,133.67128894052328,162.60519736114293,27.92728027842193,102.09719471775135,185.8941655310528
129.95292856464602,171.66123073506364,133.67397540059787,163.65167084519524,27.900770106617752,101.99373170416244,186.03108084764102
129.91223435896322,171.70635277458075,133.6736492056844,164.64807605592088,27.871240094108195,101.88796449701947,186.16675164046566
129.8811176851174,171.72733514212027,133.66952835366754,165.5933858264587,27.838981141866736,101.78011912659264,186.30105915304455
129.85955254986368,171.7243617684527,133.66084484702614,166.4866675614269,27.804294858276833,101.67041124423203,186.43398477345102
129.84748768926323,171.69772658240603,133.6468551961277,167.32704009354046,27.76749120834783,101.55905573538895,186.56561270397765
129.84482217337194,171.64787074853672,133.6268197247343,168.11369779288552,27.72888270173459,101.44624568089345,186.6960555548697
129.85142900018897,171.57535154821718,133.59998078121956,168.84597598676856,27.68877692934738,101.33214622235906,186.8253900835368
129.86716981055878,171.48077648176033,133.56559315532223,169.5233680284122,27.64747654212965,101.21692170185698,186.95366493764564
129.89186651016274,171.36480025213044,133.5229900719954,170.1454804365578,27.60528800270944,101.10075332209601,187.08091250355653
129.9252817289949,171.22818509431713,133.47160849025147,170.71200240069751,27.562527305345885,100.98381827584765,187.20710179086382
129.9671521163872,171.07182224472916,133.41095169211778,171.22272271657783,27.519513891667156,100.86625919300657,187.33209122659306
130.01722655681218,170.89668013973755,133.34055100143965,171.67753742660173,27.476556515519917,100.74817861807323,187.45564908147816
130.0752472055379,170.70376497151986,133.25997011328954,172.07641123619345,27.433938070870393,100.62964769259465,187.57749147434177
130.1409054691965,170.49414068959013,133.16881771642585,172.41934356707046,27.39190460146859,100.51069856106818,187.6972594014674
130.21385486584956,170.26893926230593,133.06672548922378,172.70639058071592,27.35066444797972,100.39130922474686,187.81447170217928
130.29377931856084,170.02930937123415,132.95332029886828,172.93770430725235,27.310397745132427,100.27142113941233,187.9285553524243
130.38042543679722,169.77636662530531,132.82825459385808,173.1135244643102,27.271264742003737,100.15098718150203,188.03894601773283
130.47355712574554,169.511219942992,132.6912848096492,173.2341494881305,27.233404905750017,100.02999547212659,188.14514046908545
130.57290175706615,169.23503345814902,132.54231164969968,173.29996945323956,27.196933815164122,99.90844704765298,188.24666663929497
130.67816084931346,168.94902659733697,132.38134872791696,173.31155518356013,27.161946718227384,99.78632928138823,188.34307064292972
130.78905793799444,168.65440925226636,132.20847989553866,173.26970155854036,27.128526803640884,99.66362084575786,188.43396172462542
130.90534350440234,168.35234457015164,132.02385120608884,173.1753842399836,27.096749598987884,99.54030798709259,188.5190268793595
131.02675040685585,168.0439777263546,131.82766889386886,173.02970885826375,27.066681561187362,99.41637494886861,188.5979685602674
131.15297539336967,167.73045695657333,131.62016947900963,172.83392045156467,27.038378695906427,99.29178051494178,188.67044639309304
131.28371624918452,167.41289086781316,131.4015947016826,172.58943222876803,27.011886722021448,99.16647321436602,188.7360908154394
131.41869764911814,167.09230649420346,131.1722298484978,172.29780468118255,26.987239118539918,99.0404506685844,188.79453474926981
131.55763641848296,166.76969253983103,130.93248669814182,171.96069762729422,26.96445173045748,98.91379955994842,188.8453886559485
131.70019805815448,166.44608712568714,130.68294083375508,171.57987532705837,26.94351684739508,98.78668431483757,188.88819966692375
131.84601452889913,166.1225969024924,130.42429051304796,171.15726507012315,26.924401315233915,98.65932923550737,188.92249288547163
131.994739571092,165.80033586856933,130.1573025936524,170.6949812354144,26.9070513846732,98.53202571147041,188.94787823119032
132.1460579881802,165.4803852479791,129.8827995207324,170.19528501363934,26.89140136921294,98.40513274492194,188.96409792310274
132.29963173176841,165.16382093391127,129.60165925802866,169.6605508628603,26.87737769100826,98.27904295759248,188.97098122902096
132.45505768628382,164.85173178095255,129.3147865753246,169.09327607986933,26.864895311488,98.1541445387214,188.96841048961463
132.6118940472052,164.54516764438904,129.02308063541994,168.49607454529848,26.853853306051455,98.03082440458125,188.9563499613971
132.7697120752808,164.24508150737614,128.72744667356278,167.87161278803825,26.844134848925368,97.9095004453964,188.9348588657951
132.9280979270779,163.95235504723925,128.42883067908298,167.22254924913216,26.83561014219283,97.79062747150806,188.9040351857366
133.08661737074826,163.66787480617086,128.12821461689404,166.55155877468258,26.828139006849096,97.674666505233,188.86395711745755
133.24482275923862,163.3925497006984,127.8265767480574,165.86141161183892,26.821574115447405,97.56206542470449,188.81468892653982
133.40231103920237,163.127254019832,127.52488518702087,165.15499454687807,26.815768086762464,97.4532710017233,188.75630503248803
133.55874910677935,162.87279076403598,127.22413842290416,164.43524834176105,26.81058144383373,97.34873383691969,188.68886085878162
133.71382395390305,162.6299197826804,126.92538515641093,163.70511009318398,26.80588490378027,97.2488811275995,188.61234732490033
133.86718417292067,162.39937697558014,126.62968673642528,162.96751033779455,26.801553476152325,97.1540941340965,188.52672289159003
134.01845239819406,162.18182615768737,126.33807180993769,162.2253678058425,26.797454661197367,97.06473647267953,188.43200930099223
134.16728855118993,161.97780466305773,126.05153049295797,161.4815282421108,26.793437610358858,96.98121037631347,188.32833260957372
134.31341325318414,161.787745725557,125.771020049468,160.7386911329763,26.78933141554292,96.90397230289999,188.21587785229923
134.45656496621416,161.61204600105904,125.49743924784543,159.9994037229869,26.784953073849906,96.83349646179988,188.09485829755369
134.5964621561508,161.45107776915526,125.2316003792365,159.26611362116,26.78011740571494,96.77024544655589,187.9655451736232
134.73281710177037,161.3051312766298,124.97426177626966,158.54118841545713,26.774645285719128,96.71467844593475,187.82827508101417
134.86535250775853,161.17437372689258,124.72620466330389,157.8268703673984,26.768371025748156,96.66725719582419,187.6833875551534
134.9937700360591,161.05886926723122,124.4882636557018,157.12523785636392,26.761144459649376,96.6284150339375,187.5311684641203
135.1177089047293,160.95859706098392,124.26127939758254,156.4382172298528,26.75282473202303,96.59852090819595,187.37186407126575
135.23675866305382,160.87341314996456,124.04604436254068,155.76759138935444,26.74327202827082,96.57788936387603,187.20571275672145
135.35050762983428,160.80301193341515,123.84329928154739,155.11495839502564,26.732344547269022,96.56682344078347,187.0329196643423
135.45855434908302,160.7469667070583,123.65374497721272,154.48168859305164,26.719901305140098,96.56562774634854,186.85361017177772
135.56047595137255,160.70481490475797,123.4780172967264,153.86895200123348,26.705807352297303,96.57457771507714,186.66785741525337
135.65582341310665,160.6760826415671,123.31665596897601,153.27779212788954,26.689938294464326,96.593897803776,186.4757738639271
135.74416976048715,160.66023359239878,123.17014127160036,152.70915386733537,26.67218091104814,96.62377556056605,186.27755330914025
135.82514633414124,160.65663522549997,123.0389858036786,152.16384626552144,26.65242962458656,96.66437266173226,186.07343608080132
135.8984170502891,160.66459054851643,122.92377935714681,151.6425178717527,26.630584112474246,96.71580216085599,185.8636979910229
135.96363892387035,160.68336734381572,122.82514382822437,151.14568597356967,26.60655276631456,96.77810487473663,185.64870236823904
136.02048101065574,160.71216453037954,122.74366851184497,150.67376227778215,26.580260314939625,96.85126643295709,185.42892537986876
136.06868215728343,160.7500724602518,122.67989118535081,150.22702428549317,26.551652874406045,96.93525263670612,185.20489981625178
136.108064744236,160.79611277455612,122.63429972959199,149.80558250701802,26.520697539290094,97.03001122398025,184.97714916742132
136.13849108074385,160.84932808939877,122.60730340216574,149.40942366494932,26.48738089032948,97.13544904631428,184.74618493033057
136.15983764027337,160.9088142380428,122.59919562065157,149.0385058991152,26.451708926171296,97.25144552799274,184.51252550971648
136.17202396986184,160.9736753929953,122.61017528190465,148.6927992821845,26.413705296329642,97.3779083704448,184.276662807892
136.17503639074417,161.0429931545931,122.64041892342499,148.37224318405254,26.37340680775869,97.51480124096193,184.0390069097415
136.16889444422458,161.1158581367219,122.69011308286774,148.0767055932122,26.330863269607352,97.66210607609837,183.7999030198577
136.15360624744886,161.19139760030362,122.75940849180071,147.80599802146884,26.286148444270747,97.8197713908398,183.5597149573172
136.1291865429508,161.26873899840754,122.84836262488932,147.55989426749522,26.239377533456846,97.98770927594039,183.3188618072252
136.09571881119967,161.34696171144572,122.95693057746101,147.3381037067789,26.190719885899444,98.16582964272897,183.0777706748588
136.05337364674736,161.42512009521863,123.0849756144828,147.14024632292578,26.14039871227048,98.35404848153208,182.8368421964179
136.0023625959125,161.50231570997462,123.23224911848905,146.96589060784757,26.088679322192434,98.55225201847475,182.59648515281745
135.94290102003492,161.57772066408063,123.39836499781144,146.81461317036238,26.03585532317208,98.76026521765999,182.3571455100037
135.875223107844,161.650531913758,123.58283596482401,146.6859972873963,25.982238099179668,98.97785342891508,182.11926631102318
135.79959827394998,161.71994111122675,123.7851601669348,146.57958747009957,25.928148310837674,99.20472432541254,181.883234618468
135.71630612329102,161.78516550298352,124.00486426412311,146.49489453588836,25.87390985160637,99.44050061044028,181.6493839903965
135.62561877753316,161.8454754494009,124.24146644875403,146.43146295235346,25.81984941826032,99.68469559072103,181.41801452629952
135.52784271692363,161.90016020243806,124.49443139452119,146.3889038314012,25.766300246491596,99.93674350082067,181.1893635739947
135.42337265370054,161.94848372594967,124.76317864538126,146.36685307251125,25.713602794315392,100.1960691891925,180.96356450860057
135.31268281613552,161.98971161496243,125.04710799610355,146.36493344003256,25.662099109310844,100.46212332444529,180.74068744163324
135.1962781755368,162.02318407610593,125.34558052680146,146.3827722478662,25.61212713332846,100.73435836870642,180.52084543463135
135.07468946939557,162.0483360744864,125.65787833536508,146.4200159140681,25.564023302873764,101.0121963224035,180.3042428347012
134.9485202430408,162.06464686370444,125.98322256432535,146.4762844295355,25.51813063861547,101.29502300899522,180.09112978547086
134.8184635191184,162.07160925155225,126.32085296950888,146.55111473353654,25.474798962931718,101.58218523655928,179.88176186564752
134.68524642918757,162.06876629102274,126.67007614938662,146.64397817197488,25.434372033513487,101.87296904513221,179.67641848388192
134.54956828987181,162.05574450979756,127.03023841880554,146.7543557346674,25.39717071885633,102.16658290533799,179.4754121375577
134.41210915731295,162.03222910597395,127.40068705602224,146.8817674531464,25.36348151286566,102.46217366594453,179.27904168077066
134.27358571399265,161.9979399678469,127.78076730742725,147.02572281860478,25.33355126117459,102.75885401871736,179.08755082243138
134.13476511820184,161.95265899117805,128.1698171146337,147.18567344237715,25.307585322857893,103.05569969439111,178.90114839490022
133.996416332143,161.8962514778696,128.56712762881145,147.3610238299447,25.285747384938357,103.35172385259341,178.72003984431984
133.85927326106733,161.82862526472363,128.97191070403636,147.55114884564765,25.26815985307644,103.64587986026515,178.54439881954866
133.72405232179062,161.74968197123167,129.38331528616698,147.75536210076112,25.25490555476483,103.93710394534948,178.37431640469376
133.59146916241167,161.65934351406918,129.8004577923699,147.97288325476916,25.246030925828865,104.22434637804201,178.2098251386241
133.46220157422724,161.55762750318752,130.22241227189778,148.20288851511705,25.24154646010493,104.50656271647146,178.05098936731684
133.3368423356725,161.44466876344032,130.64818587589085,148.44461735794712,25.241422653408748,104.78270149474928,177.8979451897217
133.21591662256554,161.32066633402994,131.0767507011496,148.6974189370264,25.24558847696587,105.05171595125948,177.75085569248375
133.09994696473788,161.18584484510168,131.50712344001445,148.96071504240504,25.253941191244955,105.31257369044103,177.6098805177377
132.98947568190306,161.04048066943005,131.9384017946275,149.23397798760942,25.266364866136204,105.56424191972783,177.47520652367245
132.885020769004,160.8849272087771,132.36972281182204,149.51676217693887,25.28274310036341,105.8056805504153,177.34705962371845
132.78703971671496,160.71957626409397,132.80021509478615,149.80871115555306,25.302957576805667,106.03588615691632,177.22565646960769
132.69594732928914,160.54480660421524,133.22900932069248,150.10950072140804,25.32688009768049,106.25396311860686,177.11117341902744
132.61213629858233,160.36100422563547,133.65527358144806,150.41878946437382,25.354370419132188,106.4591518406723,177.00377892013415
132.53595039491216,160.16863165899446,134.07820743703846,150.7362289327748,25.38528252783153,106.65079927350394,176.9036556108696
132.46765294017783,159.96824486359714,134.49700888580668,151.06147722125317,25.419472424371435,106.82832665104648,176.81095174854113
132.40745838708622,159.76043498768823,134.9108864578671,151.39415339404852,25.456802259750955,106.99122662481376,176.7257248701583
132.35560362532414,159.54578303094542,135.31911876280594,151.73377699102917,25.497140876161847,107.1390611138451,176.64796535061976
132.3123710647371,159.3248795745933,135.7210818069665,152.07978130249563,25.540362617533606,107.2714333427778,176.5776691000907
132.2780461669462,159.09834606112005,136.11621601289013,152.431589014543,25.586345558576493,107.38796150359066,176.5148544314952
132.25288462154458,158.86679640250375,136.5039968305554,152.78864538398773,25.634966177549607,107.48829808075259,176.4595131400826
132.23712941228354,158.63079185526564,136.88394574750225,153.15037095115284,25.68608865737129,107.57218079955965,176.41159407023264
132.2310238897864,158.39087272689565,137.25563560613236,153.51610904934813,25.739556917015587,107.63945181662189,176.37105467368315
132.23477409855352,158.14763880579562,137.61865352566352,153.88512142289562,25.795200546008815,107.69002605778267,176.33789320784518
132.24850802558797,157.90177272725137,137.97256063230427,154.25659001055666,25.85285172714246,107.72385876490603,176.31210333128894
132.27230311533003,157.6539853761885,138.31689706675638,154.6295783804731,25.912355528996738,107.74094746584608,176.29361884255962
132.3062564487017,157.40497587535944,138.65120752373198,155.0029912931434,25.973563089413584,107.7413397701335,176.28232303168434
132.3505030340911,157.15545953369437,138.97503222179688,155.37560420460795,26.03631569671147,107.7251112237667,176.27808100305316
132.40516200268982,156.90619601890563,139.28787987799763,155.7461473403269,26.10043257538573,107.69233724837827,176.28071818090584
132.4702908600278,156.65795107709553,139.58925219110353,156.11334843668106,26.165705195574212,107.64311368772314,176.28997441869228
132.5458963230815,156.4114451441911,139.87871752973464,156.4759016625427,26.231891905865343,107.57761920284905,176.30552655943472
132.63194841672907,156.1673794987935,140.15594692764333,156.83243651414915,26.298711215207437,107.49614848023803,176.32707112287883
132.72834260480184,155.9265164050241,140.42067716843042,157.18153827535534,26.36584362432847,107.39908692423809,176.35435629201845
132.83485276389726,155.68970296064964,140.6726665554079,157.52177389844914,26.432948576838328,107.28687435891122,176.387132380553
132.95115278431112,155.45781325490617,140.9116931483532,157.85166955800574,26.499684818194805,107.15999567340256,176.42511707060456
133.07689105445337,155.23170441809242,141.13755872237994,158.16967758247145,26.565717484335785,107.01897705233634,176.46802629167982
133.21172247210913,155.0122424299774,141.35005888384418,158.47421410721742,26.63071275317577,106.8643594374899,176.51559653643454
133.35526691975693,154.8003273535446,141.54895510137712,158.76375847660503,26.69433842818614,106.6966719973716,176.56753846408893
133.50706754167854,154.5968489447335,141.73399650409993,159.0369117860808,26.75628438766944,106.51645331593353,176.62348051555028
133.66660154672832,154.40262519505777,141.90496054874524,159.29238076833968,26.816291420514716,106.3243109763227,176.6829879223745
133.83329912112856,154.21841484525638,142.06164879117463,159.52896989104838,26.874163196707844,106.12095067185595,176.74563269324344
134.0065168564045,154.04498504804315,142.2038519141976,159.74562248073147,26.92975675563725,105.90714853082412,176.81101191220236
134.18549846833142,153.88312910311305,142.3313593561305,159.94144363296382,26.98297169022112,105.68371688320515,176.8786942845399
134.3693881302364,153.73360394533756,142.4440216921766,160.11566536223458,27.03375141309739,105.45150027881989,176.94818574946083
134.5572825828594,153.59707284290496,142.54178518577666,160.26761293382893,27.082086229187674,105.21137440780886,177.01895913693585
134.7482471772856,153.47411258952897,142.62466204276137,160.39671805043255,27.12800451373407,104.96421648648318,177.0904768716959
134.9412825132175,153.36522994619742,142.69269861477272,160.50253287664205,27.17155782101833,104.71087234951486,177.16215105901952
135.1353126538886,153.2708242070035,142.74598673124532,160.5846941896635,27.212819012476338,104.45216854951737,177.23330240666039
135.3292328403983,153.19114324737976,142.7846745188634,160.64288071661994,27.25189873085333,104.1889595989732,177.30320081513287
135.52195814866565,153.12631950875465,142.80893013101928,160.67684660134438,27.288959854429397,103.92214788632151,177.3711535577982
135.7124126502757,153.07646160161167,142.81889475907076,160.68651524913884,27.32421008303078,103.6526589194401,177.43653419448626
135.8994948920349,153.04168908994578,142.81469409828023,160.6720242161255,27.357881086794894,103.38142110046853,177.49873630207946
136.08209675433997,153.0220805997561,142.7964986814446,160.63368918948487,27.390219903277476,103.10937509929764,177.55714235297253
136.25916991486534,153.0176274156006,142.76454919298413,160.57197291377915,27.42150250214234,102.83747629876721,177.61115022025058
136.42975509850078,153.02825243336179,142.71911789142786,160.48749982626757,27.452049855917465,102.56666089836997,177.66019142877403
136.59294329868027,153.0538338528862,142.66047079884422,160.38105258997857,27.482224453073936,102.29780839981977,177.70368874090613
136.74783631404276,153.0941687460176,142.58887316078744,160.25351420802014,27.51241437166204,102.03175475783758,177.7410029423258
136.89355700756136,153.1489264754017,142.50459709489024,160.10581428507916,27.543028962755105,101.76934691462885,177.77143372966546
137.02926817255408,153.21768035111904,142.40789163218724,159.93892869587117,27.574510268129117,101.51146767358443,177.79424724099349
137.15414963221036,153.29999454908022,142.29895403748748,159.75388960384694,27.607337930880195,101.25900240939193,177.80865899836172
137.2673670071754,153.3954565847407,142.17796581790935,159.5517489770025,27.642012944145307,101.01279744364402,177.81376707233335
137.36810049057536,153.50362780769595,142.04517398152447,159.3335303432512,27.679035340549472,100.77364986169226,177.80849446923568
137.45562047324157,153.6240030466844,141.9009282328601,159.1002470688121,27.718899648166573,100.54230545505338,177.79157539327753
137.5293218834236,153.75603619004772,141.74564528519704,158.8529744312329,27.76210829095161,100.31943317055678,177.76155632050757
137.58868635726395,153.89916976876847,141.57976717857278,158.59287810594213,27.809178648852036,100.10559619460034,177.71677491808657
137.63324420103064,154.05280396226243,141.40376143559317,158.32117327260528,27.860628398156596,99.90126488477921,177.65533309355988
137.66259761522429,154.21625509993996,141.21812594575943,158.03910109978344,27.91695257002305,99.70686477192808,177.57510778979184
137.6764658284787,154.3887911770057,141.0233557545579,157.7479715925985,27.978614024595476,99.52279995890623,177.4737987032421
137.67468046729624,154.56971963300626,140.8199089963759,157.44920176524627,28.046048168266182,99.34943219860877,177.34896282236664
137.6571448988948,154.75841791339639,140.6082398993523,157.14427821670364,28.119662162447092,99.18706372535244,177.19801067444038
137.62383319299872,154.95428113916262,140.3888792816705,156.83469482904283,28.199818969131115,99.0359528709488,177.01820187743488
137.5748369288937,155.1566775192962,140.16246873873087,156.5219663626964,28.28682355053419,98.89632775802805,176.80668355809925
137.51038430119593,155.36496669813735,139.92972366160942,156.2077062189148,28.380930474755502,98.76836381609976,176.5605562960353
137.4307975557531,155.57852070798023,139.69139828980693,155.89365401365598,28.48236401787871,98.6521519849684,176.27691417924575
137.33644881102492,155.7966855074044,139.4482943961104,155.58162480462678,28.591323892175637,98.54771167283931,175.95284423237453
137.22776429264667,156.01873065291977,139.20126689790462,155.2734795882552,28.7079690041613,98.45504466917357,175.5854276572433
137.1052381551807,156.24387313740309,138.9511869771344,154.97115671984832,28.832401340432575,98.37416426314559,175.17177613070618
136.96940209355188,156.47135775232573,138.69890402776227,154.67667488860076,28.96467033163313,98.30507109936404,174.7090791334956
136.82078075867184,156.700488737503,138.4452595627057,154.39205810263635,29.104787942690773,98.24772174112698,174.19462323383507
136.6599058183235,156.9305814193249,138.19112307502706,154.11926094918533,29.252730217897234,98.20202680953868,173.62579293031865
136.48738138507255,157.16092063881328,137.93738108224235,153.8601619977815,29.40842399089724,98.16785465941865,173.00009437836823
136.30391171800866,157.39078359618816,137.68488783815965,153.6165742119912,29.571743976648587,98.14500923572834,172.31520455517798
136.11025649894336,157.61946738375397,137.43445426973054,153.3902009596447,29.742534414243963,98.13320736353944,171.56900236068458
135.90718470856297,157.8462562495979,137.18689321718762,153.18257755908562,29.920634957467716,98.13210913820512,170.75956173509343
135.6954906826369,158.07037659281215,136.94304628566115,152.9950934006374,30.10588453183925,98.14139075704409,169.88514170669893
135.4760353870157,158.29103001853804,136.70374506011896,152.82908031217488,30.29810673856223,98.16078163074671,168.9442084148915
135.24973853267826,158.50748508955837,136.46976111749902,152.68584821199516,30.49709834829572,98.1900339963077,167.9354728388529
135.0175285892837,158.71911715587427,136.24181116719822,152.56663482660466,30.702626647849318,98.22888453369931,166.8579039592958
134.78032872965696,158.9253736099302,136.02059343833184,152.47257010925392,30.91442299941947,98.27706660704031,165.7107146842989
134.5390988421526,159.12576020225166,135.80678636536737,152.40470517986017,31.132166977096695,98.33435087853715,164.49335905404462
134.29485911651807,159.3198837263356,135.6010136777244,152.36402723092652,31.35547372533549,98.40055132363568,163.20556003110687
134.0486487956742,159.507468109488,135.40384498767455,152.35141805713133,31.58389833485786,98.47549189497374,161.84733580227999
133.80147790655866,159.68830319712458,135.2158402480609,152.36763167194434,31.816951942808664,98.55899634321992,160.41899136726457
133.55433691938268,159.86220349691473,135.0375659796168,152.4133303484104,32.054109717397345,98.65092607911164,158.92109440038368
133.30823236666296,160.02903167567734,134.86955415968953,152.48909979165978,32.294803610176785,98.75120765157634,157.35447770257997
133.06417540560784,160.18872299942404,134.71226663641778,152.59538682009912,32.53841736165813,98.85980678862288,155.72026857910114
132.82312767288548,160.34124303848233,134.56611197614305,152.73242756320144,32.78430070229546,98.9766899751021,154.01990171085475
132.58597837697204,160.48652535592876,134.43146895936454,152.90025725222753,33.03179266377361,99.10181985625991,152.25509523599533
132.3535765651978,160.62447577738183,134.30866135627937,153.09877767772835,33.28023137131382,99.2351603253043,150.42782410763914
132.1267530218922,160.75502919496094,134.19791807222472,153.32777980027504,33.52894954425391,99.37665016765087,148.5403252222298
131.90628565134304,160.8781645506681,134.09939158859427,153.58690375212444,33.77727753352262,99.52616995458756,146.59511626367848
131.69285945056646,160.9938553379226,134.0132242474271,153.8756256390772,34.02456398981547,99.6835651267175,144.5949859095801
131.48708524873933,161.1020383643675,133.93957468845332,154.1933050660859,34.270195666192926,99.84871914947792,142.54295288750535
131.28954824555896,161.20264729283545,133.87857471654036,154.5392128723668,34.51359597683084,100.02159213000726,140.4422347880575
131.10081001493538,161.29564498948486,133.83028473518652,154.91248954384568,34.75420704548776,100.20218972526051,138.2962497105536
130.9213649166596,161.38099068230687,133.79469719737273,155.31209980633102,34.99147607099038,100.39052912997948,136.10862173148575
130.75162834847825,161.45859053224123,133.77174892663402,155.73684604503288,35.22485766386411,100.5866564626114,133.88315601614013
130.5919808917514,161.52832008251679,133.76129232938268,156.18539708124183,35.45382215472232,100.79067501397253,131.62380077428253
130.44279665030737,161.59010378125402,133.76305627619305,156.65626675982804,35.677853071475774,101.0027258799484,129.3346397337999
130.3044087634847,161.6439468869832,133.77666896288625,157.1477750635888,35.89643556594115,101.22294505728185,127.01991394636569
130.17706963751482,161.6898856338521,133.80173511106415,157.65807633623777,36.109056907874674,101.45146841589384,124.6840224007669
130.06097559418393,161.72794167350855,133.8378758920914,158.18524701252755,36.31523064614749,101.68848483651178,122.33147791197875
129.9563259521948,161.75814229492838,133.88469561130364,158.727330072292,36.51452516110881,101.93425764531807,119.96685866933514
129.8633331912185,161.78054861463644,133.94174068683876,159.28229571612593,36.706570209723836,102.18908165978729,117.59479880725817
129.78217809537472,161.79522314292316,134.00849917332167,159.8479978880308,36.89104385957601,102.45324024819992,115.22000098266491
129.7129861961827,161.80218054593988,134.08440503833253,160.4221917488567,37.06766257012552,102.72701229565888,112.84722173892534
129.65585671322495,161.80141023031095,134.16880653030688,161.0025672089637,37.23618306510818,103.0106878125108,110.48122369435198
129.610881854862,161.7929545885685,134.26093340942006,161.5867324695249,37.39640239696608,103.30453871665723,108.12674027814546
129.57811039514,161.77693781140837,134.35992788181042,162.17217783546707,37.54814567916044,103.60877386726024,105.78847930573119
129.55750640009248,161.75351680498335,134.4649247838919,162.75630647534138,37.69125262279516,103.92354829237547,103.47113078587626
129.54896857133355,161.72284491444273,134.57509299731748,163.3365317806824,37.82558052683833,104.24902125154928,101.17933655729603
129.55238144670878,161.68510549170009,134.68960739169526,163.9103394461701,37.95102090480488,104.58537972380626,98.91763619260227
129.56762008824208,161.6405482193911,134.80761712231632,164.4752721720823,38.06750715290283,104.93279355674306,96.69043784623017
129.59450997106578,161.58945535559315,134.92825828092768,165.0289136747473,38.17500309438215,105.29136492789141,94.50202357538925
129.6328245823534,161.53208506107387,135.0506726508662,165.5689195879361,38.273490988491474,105.66112380929233,92.35654620818315
129.68234556032547,161.46868693444878,135.17398620349303,166.0930388703953,38.36297974276352,106.04203703321787,90.25799060501448
129.74290482915558,161.39957713708225,135.29728171476197,166.59908256316595,38.44352551481493,106.43398342487261,88.21013008696211
129.81435356932587,161.3251643407708,135.41963537638813,167.0848887638378,38.51523872552647,106.83672182113446,86.21651776497659
129.89651790206472,161.2458880000357,135.5402025749452,167.54833598081285,38.57827194958696,107.24991990681902,84.28050099920551
129.98921696437202,161.16215652403247,135.65825882216484,167.98737156642608,38.63281199814108,107.67323686377875,82.40521525712167
130.09231465598165,161.07436459378403,135.77316264732073,168.3999982472274,38.67909054787299,108.10637022683859,80.59355062838704
130.20572100243476,160.98294741113045,135.88430725407216,168.7842440782675,38.71739544757307,108.5490321817201,78.84813367318121
130.3293373023836,160.88837918574583,135.9911120542155,169.13819190212686,38.74806092120678,109.0009231095605,77.17135011203852
130.46302000881698,160.79111891431629,136.09302388716372,169.46006405102918,38.77144256275553,109.46174425247486,75.56537319899537
130.6065933494004,160.69159479033883,136.189486601868,169.7482679888935,38.787902941431554,109.93120066454736,74.03215394049077
130.7598534810486,160.59025223871691,136.27991003748554,170.00136286228343,38.79782234745727,110.40895747893867,72.57338871390284
130.9225250942151,160.4875802860015,136.36370829954512,170.21801861288102,38.801618187714226,110.89459100049406,71.19051654385261
131.09422109346863,160.384067061709,136.44039675499937,170.39703062619574,38.79974586148118,111.3875781210313,69.88475445607662
131.27446587655027,160.2801525264322,136.50964983781387,170.5373520392526,38.79268106714845,111.88730081541772,68.65711994840711
131.46275165961683,160.1762381565838,136.57128574810093,170.63808036432312,38.780908755871955,112.39302875164525,67.50840868547095
131.65854853176157,160.0727035733177,136.62525469196694,170.69842553029272,38.76492972583287,112.90390426976144,66.43916286679007
131.86126240357368,159.96986967498947,136.67166932945133,170.71774353539124,38.745265350591716,113.41897900364839,65.44967524359895
132.0702130040318,159.8679536173602,136.71081317339133,170.6956306412003,38.722441980486145,113.93728251081653,64.54001625966114
132.28466137179214,159.76709966884994,136.7430846329215,170.6319712589339,38.69696551010789,114.45784736399774,63.71003833493832
132.50382901560437,159.66746608072546,136.76893678292694,170.52689817925867,38.66931044437198,114.97966920319723,62.95935037049705
132.72686778143336,159.5692595751999,136.78888422134708,170.38074833019238,38.63992912945628,115.50166256844464,62.28730693743965
132.95283251483713,159.47268079432794,136.8035486235632,170.19407150558146,38.60926036069495,116.02266782061342,61.69304060989258
133.18072133661704,159.37786926409038,136.8136579001173,169.96763794670446,38.577719594762456,116.54148920372387,61.17550328873032
133.4095513846001,159.2849281900542,136.81999261180732,169.70239074103281,38.54568151002276,117.0569050802243,60.73347071869943
133.63838378708698,159.19398610105702,136.82335613447577,169.39939025701707,38.51347872802825,117.56764439915906,60.36552303124452
133.866293622782,159.10519998315183,136.82459283373345,169.05982561403536,38.48142054477866,118.072382437009,60.070050142885556
134.09236633942322,159.0187009646724,136.82459087113946,168.68507046342816,38.449808580920276,118.56977222470115,59.84528852110612
134.3157482015093,158.93457478718062,136.82423755138896,168.2766920728954,38.418930412206954,119.0584629335982,59.68934301002743
134.53567884761563,158.85290678749809,136.8243821863731,167.83640253224436,38.38904265813668,119.53707812756977,59.60016903985885
134.75145675910275,158.773809815234,136.82584934717326,167.36603756588505,38.360369074794875,120.00419180309093,59.57555280579252
134.96239131469707,158.69738476744286,136.8294582015058,166.86759419475555,38.333118259348765,120.45833715599474,59.613132604460844
135.16781164430137,158.62368167125734,136.83599094858516,166.34324904228617,38.30749809667266,120.8980255057252,59.71044438144497
135.36711071969805,158.5527235472725,136.8461404594762,165.795303534628,38.28370954764863,121.32174038299458,59.86493887976802
135.55974874619417,158.48453927793938,136.8605172094106,165.22612015641158,38.26193235179319,121.72792456297256,60.07396003548023
135.74520902743498,158.4191346050975,136.87971603077602,164.63813496018005,38.24232565242501,122.1150081262168,60.33472819593631
135.9229787812184,158.3564424227703,136.90435088124775,164.03391700962283,38.22504391385699,122.48147270222118,60.64435648440337
136.09258479087188,158.29634350009863,136.935018576178,163.41617154988097,38.21024499550279,122.82588807329608,60.99987409148389
136.25362063024215,158.23874638994988,136.97226041727217,162.7876725817682,38.198077321795104,123.14689401303774,61.39822453287901
136.40571517933716,158.18361982846423,137.01656843942672,162.15121884259798,38.188661596811876,123.44317525518663,61.83625750980078
136.54849046417837,158.13093942924684,137.06838900403815,161.50965501024433,38.18208696271838,123.71347288658913,62.310757183073925
136.68157951829144,158.08063780311056,137.1280858884905,160.86588142338198,38.17841782484613,123.95660997765643,62.818502267739866
136.80468303004076,158.03263637691822,137.19590963382112,160.22279871532572,38.17769182165035,124.17148923879054,63.3563033510574
136.91758266681788,157.9869096170868,137.27201935314392,159.58325610440485,38.17990454194915,124.357076267308,63.92099166092081
137.02009816404234,157.94348650487038,137.35651604975644,158.9500748531427,38.18499931333446,124.5124208719736,64.50939801782432
137.11206099021672,157.90240153090286,137.44942739656224,158.32609329335494,38.19287544699078,124.63671419789661,65.1183644713279
137.19333909909378,157.86369537189003,137.5506727466732,157.7141430856898,38.203402783651484,124.72931736390541,65.74477654986022
137.26385485082952,157.82748328513955,137.66008597973308,157.11698509744988,38.216423425911515,124.78973913402353,66.38557419750995
137.32355016145473,157.79399244053513,137.7774900954503,156.53731100999087,38.23174464360626,124.81761221267455,67.03773340923881
137.3723481887698,157.7635265369797,137.9027300058278,155.9778141726373,38.24914505066489,124.81270068962155,67.69825468674077
137.41017950338312,157.73644199533572,138.03562309830707,155.44121417431154,38.26839871212647,124.77490870495646,68.36418253828556
137.43704660455802,157.71317847445246,138.17590033377593,154.93019445045817,38.28929356477804,124.7042574836807,69.03263108644957
137.45304107452665,157.69426416026107,138.3232184715401,154.44735210459348,38.311626315980924,124.6008567663089,69.7007843345221
137.45829908073148,157.68024787410852,138.47721978302116,153.99521404917576,38.33518635936115,124.46492569966662,70.36588811131314
137.45296795910897,157.67163801040564,138.63755069679195,153.57623992036375,38.35975350141042,124.29685617432064,71.02527128923971
137.4372226282997,157.668930317554,138.80382318778737,153.19276347165817,38.38511513821011,124.09724355958238,71.67638809785306
137.41128065568853,157.67267598917462,138.9755913671703,152.84694830731752,38.41108180486286,123.86685107516759,72.3168350452223
137.37536894174673,157.68348361205645,139.15237562474547,152.54080801358862,38.43748215071361,123.6065621433006,72.94432741615313
137.329683591403,157.70195604757944,139.3336783660566,152.27621775380243,38.46414945947554,123.31737629185065,73.55667323386918
137.27440872897373,157.7286643848408,139.51894825557744,152.05485417171354,38.49092966520566,123.00042874471293,74.1517812215418
137.20977293278528,157.7641888874002,139.70754106427995,151.87812725717401,38.517717040726836,122.65697792203434,74.72768904890621
137.1360622132141,157.8091346508041,139.89875247713462,151.74719789417225,38.544485109308994,122.28836085613571,75.28257103809956
137.0535780095021,157.86407011543128,140.0919045192557,151.66305193268482,38.57128350802891,121.89597588861497,75.8147210649942
136.96261331351738,157.92947101210734,140.2863867423005,151.62651806082877,38.59821475098727,121.48131367987166,76.32255460176422
136.8634793427833,158.00575197673155,140.48162194222238,151.63821469327502,38.625423773437305,121.04597996812605,76.80465512109612
136.75652382493766,158.09333357687723,140.67703045053554,151.6985292514969,38.65310412960883,120.59166661246377,77.25982327393636
136.64209482577596,158.19264076354656,140.87203575421972,151.80766762172948,38.68149567972485,120.12011057896635,77.68707706312777
136.52049759841924,158.30403981277354,141.06606356602924,151.96568326482438,38.71086258963618,119.63309934027804,78.08561618097058
136.392015038446,158.42781571212114,141.25849837510435,152.1724346478537,38.74147335299777,119.1325060778888,78.4548019957899
136.25697305696588,158.56421713067223,141.44864744099792,152.42754509426024,38.77360405487293,118.62028952814667,78.7941648871122
136.11576449591053,158.71347670625562,141.6357763219402,152.73042065417732,38.8075522633246,118.09845465824444,79.1034016819465
135.9688087857033,158.87575587654575,141.8191871901698,153.08026650432313,38.843633183544156,117.56903907010133,79.38234136475808
135.8165176440206,159.05109348334906,141.99824862369806,153.4760457737162,38.88215325268084,117.03414325917794,79.63090665294587
135.65930976193303,159.2394288843238,142.1723595080626,153.9164386981354,38.923381903832954,116.49594114133498,79.84910435149158
135.49762646977004,159.4406435931938,142.3409215351675,154.39988634999398,38.96753834428307,115.956632565229,80.03703361323342
135.33190551880128,159.65454034011492,142.503356865725,154.92468678406814,39.01478829773467,115.41839171492087,80.19487636937153
135.16255620043424,159.88079535252356,142.6591191614184,155.48903240187863,39.06523518255252,114.8833794732031,80.32286667857176
134.9899859620013,160.11898195588418,142.80765623694728,156.09096649508479,39.11890304813728,114.35379711200004,80.42127654282187
134.81463958634401,160.36865856261477,142.94836561668754,156.72835117674373,39.175724954860854,113.8318981518541,80.49043934167294
134.63698533090027,160.62940775786012,143.0806074496775,157.39889715026817,39.23554544717163,113.31994513751928,80.53077925514305
134.45747071404364,160.9007892833566,143.2037619064056,158.10019086106135,39.298126736609674,112.82018532996223,80.54280772824356
134.27652836674073,161.18230227926244,143.31725417907438,158.82966010087662,39.36314517996759,112.33487560785485,80.52709910004855
134.09463738030306,161.47341633906282,143.42052618766886,159.58453372371335,39.43018014682536,111.86629295096513,80.48428762921355
133.9123548624549,161.7736006843221,143.51301932382606,160.3618885541831,39.49870701961108,111.41669047178571,80.41509102780508
133.73027702861717,162.08228646898377,143.59420200557753,161.15876173162,39.5681012751332,110.98825735936325,80.32031977479105
133.54899174299211,162.398822087173,143.6635899945486,161.97221334373467,39.63764977949406,110.58314007804184,80.20084977370755
133.36907432134754,162.72250394850718,143.72071792383272,162.7993180855358,39.706559911309014,110.20348061776981,80.057590540888
133.19108919572676,163.05264359346657,143.76510997498477,163.63718465046654,39.773962542432464,109.85139761584067,79.89148991796816
133.01555071123957,163.3885701452369,143.79631986100185,164.48302752259602,39.83891400339504,109.52893234571692,79.70356559497047
132.84287581249257,163.7295671014761,143.8140167557984,165.33419442292666,39.9004057034671,109.23804805089685,79.49491479910337
132.67339060413497,164.07484054298428,143.81802098359006,166.1881134588319,39.95738332674988,108.98068943808333,79.26668476001852
132.50737677796735,164.42355603131972,143.80826178281006,167.04224596821578,40.008766694714076,108.75880469217839,79.02004328224481
132.34508277476033,164.77486546589515,143.7847288459551,167.8940969067051,40.053461910117505,108.57428022705089,78.75618398306113
132.1866825791712,165.12786630798692,143.74746399176703,168.74122347983672,40.09036908249372,108.4288636938332,78.47634314450077
132.03225106706392,165.4815581529906,143.69655483133837,169.58119162635887,40.118395843870104,108.32416207598307,78.18178789072505
131.88179685228104,165.8348787373311,143.63209589373193,170.41153631327492,40.136478369302736,108.26169004243206,77.87378448714527
131.7352987628005,166.18678095007567,143.5541615257466,171.22980471128326,40.1435984201247,108.24287412258414,77.55359006123228
131.59268875682363,166.5362489661063,143.46285428647337,172.03364994684296,40.13878858111895,108.26899355350479,77.22247478281339
131.4538149094318,166.8822476423341,143.35840023859743,172.8208659008664,40.12113344921483,108.34113731303836,76.88173162535467
131.3184522410488,167.22369910305954,143.2411911880051,173.58934182893103,40.089779940799616,108.46021884132205,76.53264989403117
131.18635261219768,167.55952534126942,143.1117484370354,174.33703087431772,40.04395821563129,108.62698801771914,76.17648939525857
131.05726242604203,167.88868185142013,142.97068632784882,175.06198438644748,39.982999469582495,108.84198719945618,75.81449875207134
130.93089007386723,168.2101252920326,142.81872081233922,175.76238517625765,39.90633914044959,109.10549681891241,75.44795989893314
130.80688295244119,168.5227746450241,142.65667305925936,176.43651659704798,39.81351064552042,109.41754284140602,75.07820080396893
130.68484770606693,168.8255423025902,142.48542346430042,177.08272081167755,39.70414320485548,109.77794777066198,74.70656122138266
130.5643690298687,169.1173995201277,142.30585989381143,177.69943604182694,39.5779682386178,110.18634216209982,74.33435869518954
130.44498504757,169.39738359058467,142.11889113953302,178.28528850943022,39.43482443618439,110.64212251118634,73.96289229662237
130.3261560574974,169.66454689292837,141.92550935826887,178.83912544657406,39.27465275409861,111.14443108551468,73.59345918260615
130.20729079711006,169.91794080469646,141.72681029035436,179.35996081625817,39.097486978272364,111.6921939638244,73.22734093016582
130.08781667856204,170.15666711433656,141.52394223071468,179.84692673137,38.903452114231015,112.2841552483202,72.86576649687359
129.96721358696684,170.37991550455334,141.3180545208241,180.2992862302345,38.692772754326874,112.91885457152313,72.50989548549468
129.8449876615234,170.58692844808914,141.11029227552288,180.71644613514283,38.465778906128136,113.5945947255296,72.16083237598883
129.72065124650925,170.77695324000598,140.90179356628943,181.09791050099463,38.22289896851562,114.30947317305926,71.81963289016178
129.59375047975234,170.94925806582293,140.69364477093544,181.4432291387168,37.964644803125296,115.0614575459064,71.48727783922405
129.46389280247092,171.10318205575587,140.4868337332433,181.75203494258133,37.69159972545909,115.84841670322685,71.16464435765127
129.33072500274494,171.23813309596196,140.28226782154468,182.02414632659153,37.404411844482894,116.66808875034464,70.8525118639312
129.19389562714304,171.35352907665543,140.0808383042738,182.25961114508212,37.10378516656835,117.51806134611769,70.55159009096681
129.05306393336815,171.44876513118842,139.88344337789283,182.45866070050099,36.79046340540272,118.39580500285489,70.26252567892375
128.9079436863219,171.5232430757743,139.69094883882354,182.62167602044755,36.465214562846626,119.29870444872971,69.98587751976868
128.75831297130685,171.57639792229972,139.50415650254013,182.74921535223032,36.12883044180137,120.22403701161879,69.72209864616323
128.60397682435755,171.60766874976963,139.3238152755025,182.8420255529417,35.7821418185899,121.16893951350569,69.47155310818167
128.4447476429791,171.616466423085,139.15062571046028,182.90099255105298,35.42603116011139,122.13043445865982,69.23454330245028
128.28047686860276,171.6022103155609,138.9852034516805,182.92709844410803,35.06142894360173,123.10550072199322,69.011308569249
128.11108323919663,171.56440189699427,138.8280457221669,182.9214308135567,34.68930022920333,124.09110622465303,68.8020029900754
127.93652853823725,171.50264379139395,138.67954918258454,182.88518440246912,34.31063549167741,125.08418004116591,68.60669377341449
127.7567855437347,171.4165990320419,138.54004646678544,182.81960143989124,33.92644854542703,126.08159070721385,68.42538805514505
127.57187164158358,171.30597719883133,138.40979685166135,182.72590674819062,33.537771432208125,127.08017362452517,68.2580486213944
127.38192778527683,171.17058061683713,138.2889404105825,182.60532569479778,33.14563941757652,128.07676369844063,68.10457490462126
127.18724722055266,171.01033721200216,138.17748692672797,182.4591604548438,32.7510742316227,129.06818551314075,67.96478122311281
126.98822557272,170.82527034154558,138.07535962786397,182.28881288220597,32.35507779142467,130.05123314708018,67.83841304503203
126.7853104717593,170.61546718818101,137.982430581494,182.0957275191926,31.95863673465919,131.02270217163914,67.72518878415042
126.57901497283001,170.381108618006,137.8985052577701,181.88134711449646,31.56272795280768,131.97946231209593,67.62481731432486
126.369955629331,170.12251283082563,137.8232989908306,181.6471333783384,31.168318717123235,132.91849450922717,67.53697628428668
126.15884123740457,169.8401185479763,137.75644904460955,181.3945869339026,30.77636222150181,133.83687135401053,67.46129068056467
125.94642139966629,169.5344397399446,137.69753030239468,181.12520106307102,30.387791332563935,134.7317466594207,67.39734398476038
125.73346973908927,169.2060814988631,137.6460316233221,180.84039822309978,30.00351164541322,135.60039265460287,67.34470048741666
125.52081620015304,168.85581014312908,137.60132541124256,180.54154002693699,29.624392867592395,136.4402345041625,67.3029014166479
125.30935863115882,168.4845743528127,137.5626974439841,180.22999579021578,29.251258180475055,137.24883299630412,67.27144319041386
125.1000191050525,168.09343958704784,137.52942653993216,179.90716445939236,28.884873507173538,138.02385162369941,67.24978065058602
124.89370052877138,167.68352489983874,137.5008271555165,179.57441795924674,28.525941254003577,138.76307406580838,67.23736367717656
124.69128782982186,167.25602775220585,137.47622373325643,179.23304854967662,28.1751017743104,139.46446112162556,67.23366264098345
124.49365367021838,166.81229447410894,137.45492424281767,178.8842743100102,27.832937893660475,140.1261728189964,67.23815437188047
124.30162333352234,166.35382769372285,137.43624014320915,178.5292504444484,27.499975115977087,140.74653751087638,67.25030404984535
124.11593739580829,165.88221747395812,137.41951113597213,178.16903129623424,27.176678470349113,141.32403097375195,67.26958810980041
123.93728058153296,165.39909410869305,137.40409088086034,177.80452984680207,26.863454832856704,141.85729849468373,67.29554167602906
123.76635695586401,164.90615320243842,137.38932927719677,177.43655816555503,26.560663772487032,142.34517148557435,67.32777475789536
123.60391732823584,164.40517877936185,137.37460561682423,177.06592500642287,26.26862652306854,142.78663739517907,67.36594350749426
123.45071026122588,163.89799706963854,137.35938572423473,176.6934790390772,25.987623809889,143.18080214686577,67.40972223289974
123.30743154370359,163.38642072764483,137.3432301658128,176.320078435361,25.717887757540133,143.52690786947196,67.45881306339291
123.17472585483522,162.87227415760904,137.325756477898,175.94658666632253,25.459599028611535,143.82439209909165,67.51296990003424
123.05319744219562,162.3574667419944,137.30663461490025,175.57392639319076,25.212892788394957,144.07291152319968,67.57199171941357
122.94337695092763,161.8440025582741,137.28563647440922,175.20309888408676,24.977869091853425,144.27230815941687,67.63568742671362
122.84567694176107,161.33391245650114,137.26266291155224,174.83512433548646,24.754602926454087,144.42257922408123,67.70385696363918
122.76040296602514,160.82920860986815,137.2377039842318,174.4709824069822,24.543152453484538,144.52388615330602,67.77630809623574
122.68780865155225,160.33190836125078,137.21078959133908,174.11161274025898,24.34356820728984,144.5765588547845,67.85287426550099
122.62811563702422,159.84404898561255,137.18198373548705,173.75792205515893,24.155904529293323,144.58105604181475,67.93339966506444
122.5814752456541,159.36762982782474,137.15138819240553,173.4107335470172,23.980225969874965,144.53791766391325,68.0177138076139
122.5479377782173,158.90454529829373,137.11910894932225,173.07071805042546,23.816602676576565,144.44776486198933,68.10564157259421
122.52747239189476,158.45659785154973,137.08522087739823,172.7383991320021,23.665098753495517,144.31133240046822,68.1970447401373
122.51999089651507,158.02555949415077,137.049799437407,172.41423046070463,23.525760367420016,144.12947221856857,68.29184160126347
122.52532321819106,157.61317590344999,137.013000280589,172.09864189216765,23.39860711821317,143.90312604874416,68.38998227671941
122.54317899418949,157.2211005731677,136.97509005105292,171.79202089095438,23.28362678878954,143.6333300260867,68.49142200302387
122.57316783888955,156.8508571092001,136.93639661745664,171.49471598149563,23.180771349618244,143.32126550369267,68.59613085915257
122.61486994290817,156.50387179232789,136.89725230133436,171.2070946710491,23.08995219649631,142.96828841433373,68.70411544032216
122.6678692311186,156.18149497705724,136.85798680326235,170.92956921000248,23.0110369180407,142.575899097408,68.81540829654425
122.7317150443415,155.88495940635232,136.8189340024181,170.66254386724208,22.94385161003294,142.14570355100432,68.93003203765271
122.80588849401549,155.61534307695098,136.78040283842503,170.40635621050012,22.888184470168415,141.67941329739884,69.04798199378875
122.88984952180792,155.37358626041572,136.7426437864087,170.1612738846754,22.843782294577686,141.17885142406328,69.16923789207588
122.98312612807281,155.16050188105052,136.70588087542848,169.9275025521458,22.81034237649379,140.6459175006773,69.29376734639487
123.08534565628875,154.97672840048588,136.6703937857136,169.7051473623206,22.78751222739179,140.082536620816,69.42149947422786
123.1961949844095,154.8226867227472,136.63655209189167,169.4941668012397,22.77490265046253,139.49066345015575,69.55230213193053
123.31539184368937,154.69861998890192,136.60476695400814,169.29439967378948,22.77210637945828,138.87235088427997,69.68600440466219
123.44270251725078,154.60467744380168,136.57543688449886,169.10565140390727,22.778711883592596,138.2298050449918,69.82244835646529
123.57794585595067,154.54093483809504,136.5489502867255,168.92773626725898,22.794307444049455,137.56538335940417,69.9615116057054
123.7209448577126,154.50733931546606,136.52570679129687,168.76043944796666,22.818478988269515,136.88159712986237,70.10308183029963
123.87148112809435,154.50367824766417,136.5060958600814,168.6034784056842,22.850809785249854,136.181159271085,70.24702890616254
124.0293113004521,154.52962138820783,136.4904555161152,168.45651859221664,22.890883032448887,135.467021692013,70.39321340037583
124.19420965976828,154.5847587396256,136.47908493359893,168.31919202007455,22.938282165726708,134.7423771784862,70.54150821472926
124.36596247603968,154.66856475915026,136.47230767706804,168.19106508813823,22.99258809942996,134.01068234954823,70.69179117598802
124.54432004904639,154.78034857118226,136.47049726194342,168.07161154768258,23.053378898761164,133.27570966958814,70.84391418704952
124.72898052624794,154.91928358077075,136.47403028906146,167.96028216268232,23.120235248199336,132.54155579974247,70.99769146754161
124.91962436630573,155.08448932595215,136.4832390918933,167.8566348641965,23.192746094590852,131.81257072351016,71.15291851978031
125.11593269359848,155.27505616355762,136.49842157810463,167.76039135523908,23.27050810915073,131.09326281412694,71.30938296573022
125.3175498253373,155.48999124448864,136.51986388502576,167.6713928440555,23.353122556029717,130.38825570543904,71.46684082889011
125.52404292906779,155.7281771436887,136.54781718384152,167.5895619660608,23.440198635464505,129.70229395697046,71.62498837236679
125.73491660466357,155.98839316106955,136.5824671506061,167.51492042311082,23.53136327182699,129.04021431227264,71.78346920021525
125.94965262027628,156.26933501729522,136.62397019798198,167.44758804239663,23.626265149601124,128.40684264496485,71.94190493650311
126.16770778770776,156.56957536574572,136.6725289299584,167.38771541350442,23.724566933126994,127.80688847647198,72.09990470633154
126.388476550356,156.8875185944735,136.7284087131804,167.33541289521023,23.825936236879,127.24491036568475,72.25704297001568
126.61129037375997,157.22142957763282,136.79187806854117,167.29073617264118,23.930046978710735,126.72531451903444,72.41284433870022
126.8354710944397,157.5695089341793,136.86315224203005,167.25368904097726,24.036587020434744,126.25231713735035,72.56680380717835
127.06036565953823,157.92991812896364,136.94238590722463,167.22418692645905,24.145258481074713,125.82989110411285,72.71841663081939
127.2853148444402,158.30074111200776,137.02967136475806,167.20201930665218,24.255767459459385,125.46175464316055,72.86717698530452
127.50960916488069,158.67997108872302,137.12500274973104,167.18689068587594,24.36781396938981,125.15138124047913,73.01255066297342
127.73250316386124,159.06556450324845,137.22824857637391,167.17851826362272,24.481090098632347,124.90197714218637,73.15396354115241
127.95326983918679,159.45548865672686,137.33918680362777,167.17667610594378,24.595282361934764,124.71646904242061,73.29082323201767
128.17121918632986,159.8476998726914,137.4575677859852,167.18116205399542,24.710073257738586,124.59757175802632,73.42254351284177
128.38567209376302,160.2401074396485,137.5831286362462,167.1917816032971,24.825144736275146,124.54787859313473,73.54854110368967
128.59596231238345,160.6306076750246,137.7155668895279,167.208386245965,24.940187644842215,124.56989844039715,73.66822214703386
128.80149014121628,161.01716346630926,137.85454685212574,167.23088743653506,25.054915882836973,124.66607140458288,73.78099413529347
129.00175490762928,161.39783112662647,137.99974121319852,167.25920135529208,25.169078581687547,124.83877870154177,73.88629720001649
129.1963222402791,161.77071642238894,138.15083463409437,167.2931917891631,25.282463793039526,125.09029536212387,73.98361395259708
129.38478360673648,162.13394685278828,138.30746768766176,167.33267265873482,25.394895417817203,125.4226697358037,74.07244660549688
129.56676169253745,162.48570986206317,138.46919599475328,167.3774271555985,25.506232763646903,125.83757206657026,74.15229975521756
129.7419242499954,162.82429262058744,138.63554651806905,167.42717462602045,25.616376552776142,126.33617106416607,74.22269938576339
129.9099565345501,163.14805751658974,138.80614255479634,167.4815113307605,25.725273141373332,126.91907835466877,74.28322322435476
130.07053076359304,163.45539851945537,138.98077497228363,167.53991556126132,25.832909846959517,127.58634430455751,74.33350053328334
130.22334721968107,163.74476045537108,139.15938804690234,167.60182400486846,25.939304954990394,128.33744267067837,74.37318774541122
130.3682269676509,164.01470334149155,139.34209057034778,167.6666812981517,26.044499349370586,129.17121602016053,74.40196542333123
130.50515083091457,164.26392107333854,139.52923386722495,167.7339321727029,26.148551352742963,130.08582614094988,74.41957026281914
130.63420776047082,164.4911968743062,139.72145230243052,167.8030452790433,26.2515310101611,131.0787467413392,74.42582028979368
130.75554086502686,164.69537558968688,139.91962418758868,167.87359300709434,26.353510623488194,132.14678335322915,74.42060149357818
130.86937351315825,164.87539691866832,140.1248393076888,167.94528829951253,26.454552122467643,133.28612659323127,74.40384523267421
130.9760724626469,165.03032792754226,140.3384016468277,168.01794022218627,26.55469561184106,134.49245792028833,74.3755416531203
131.07614840358215,165.15933516729197,140.56179186629268,168.09141797260298,26.653953304556474,135.7610481654879,74.33578043409159
131.17018589103932,165.26164490784845,140.79656581541443,168.16567270574822,26.752307044267727,137.08678457939277,74.284765892139
131.25878787570895,165.3365750441036,141.04427857772765,168.24074488157004,26.849706807452243,138.46417404441718,74.22278667149342
131.34257641446868,165.38361700803034,141.30649872164705,168.31670624144206,26.94607223637175,139.88741077130697,74.15018239062466
131.42219085158175,165.40246347318788,141.58485005827544,168.3936020992556,27.041298144735794,141.35052572900793,74.06734678032927
131.4982361529665,165.39295500295867,141.88102662595932,168.47145816151723,27.13526184564069,142.84754891171386,73.97474707392557
131.5712407784039,165.35503487533848,142.19682666275713,168.55030281750706,27.227828612037566,144.37259898931538,73.87291656038806
131.64170598810628,165.28877234410518,142.53419975363013,168.63013303078122,27.318850663334146,145.91991424535212,73.76242325398005
131.71021182322062,165.19439545885047,142.8952121134214,168.71086192969557,27.408160775164703,147.48391634524555,73.64385842649541
131.77745970948587,165.0722631247283,143.28190769807986,168.79234345458931,27.49557125696921,149.05930598812444,73.51785910244057
131.8442147713013,164.92281880584702,143.6961870229626,168.87446437937282,27.58088507508659,150.64108964338905,73.38512314152834
131.91123884178097,164.74661376810727,144.13988699973234,168.95718878739723,27.663908044708553,152.2245271100308,73.24638502020757
131.9792914965893,164.5443816490423,144.61507041267538,169.04051847038173,27.744448147393673,153.80513091434682,73.10238156774415
132.04916082997724,164.31705915227462,145.1242584873356,169.12446185887595,27.822304634624818,155.37877722270667,72.95385204829114
132.12165480913396,164.0657277832132,145.67042173926907,169.20906094727476,27.897257812105607,156.94179210891207,72.80156366422739
132.1975698953004,163.79156861912665,146.25684060911604,169.29440506117626,27.969063793599826,158.49090822407874,72.646314378408
132.27769146016803,163.4958844169919,146.88697281198813,169.38058201975068,28.037451821811082,160.02319848210715,72.48889829956563
132.36280942181372,163.18012101101385,147.56435984455345,169.4676302510255,28.102122018526735,161.53609561572839,72.33007373320439
132.4536945457814,162.84582122276115,148.29257537048736,169.55555228668396,28.16274438725758,163.0274170241181,72.17057296982318
132.55105605343192,162.4945678180985,149.07516976865514,169.64433983758923,28.21896215612574,164.49528720516477,72.01113755949628
132.655558804015,162.12801129702896,149.91556135607848,169.73394318816185,28.270403523585596,165.93800823114438,71.85252958228853
132.7678969103628,161.74795543911932,150.81689251229773,169.82422837385909,28.316699950171724,167.35400361560036,71.69551048415246
132.88882322132895,161.3563820854764,151.78190441358262,169.915016208811,28.357501763532927,168.74185254134576,71.54083101211113
133.01909965706497,160.95539746255167,152.8128745627932,170.00618623468168,28.392485603545083,170.1003130723032,71.38925107097523
133.15948341330363,160.54720346885873,153.9116015069116,170.09772505801644,28.42135682326661,171.4283015960471,71.2415505680244
133.31085605408546,160.13412646194743,155.079371085909,170.18968433076435,28.443852859079612,172.7249220787709,71.09850165620387
133.47440658271017,159.71861384668983,156.31691003756035,170.28214864488015,28.459749341594964,173.98956790626426,70.96083052311552
133.6516836359554,159.30316063246005,157.6244151098058,170.37526443001798,28.468863974273493,175.22198055601106,70.82920924967922
133.84449601190968,158.8902507911245,159.0016742354519,170.4692517156039,28.47105402090743,176.42220220333925,70.70427061915947
134.05480886485745,158.48236754664134,160.44818728591596,170.5643532906979,28.466210080016463,177.59049578171664,70.58660458523705
134.28471307506445,158.08200304286373,161.9632066289594,170.66079713591586,28.45425151693576,178.72729153393584,70.47672577967836
134.5363918370455,157.69159953619354,163.545691736456,170.75882328563273,28.435127097959064,179.83312010489965,70.37505186589564
134.81203258426402,157.31347591237065,165.19424297651267,170.85870469441218,28.408819968482845,180.9085100426749,70.2819245099287
135.11375343366706,156.94983127987638,166.90711679096242,170.96070066508776,28.375350911246503,181.95393634205277,70.19764626905398
135.44358472489236,156.60280424348173,168.6823626301835,171.06500576114533,28.334776451102993,182.96990677367975,70.1224855700907
135.8034338527053,156.2744797347144,170.51805512808633,171.17177938646057,28.287186135710307,183.95711411540162,70.05665043544803
136.19498827767958,155.96681877454262,172.4125582404522,171.28121794659575,28.23270321794265,184.91649925340334,70.00027593956247
136.6196257512124,155.6816056913558,174.36466272581148,171.39356268626324,28.171487928902053,185.84920289846102,69.95344468196954
137.07839984369278,155.42046761350178,176.37350538727682,171.50903913572105,28.10374005596834,186.75649632647267,69.91620505187252
137.57205999763985,155.1848960988114,178.43845366497885,171.62783130764987,28.029702753949593,187.6397161059853,69.88855612621857
138.10103646894288,154.97620007891985,180.55914822047504,171.75012467561686,27.949679960277944,188.5001602502331,69.87042298475737
138.66540978648226,154.79544013927205,182.73560944894695,171.87612924095055,27.864068578328695,189.33895193852192,69.86166167670804
139.26492059507115,154.64344112954686,184.96825286614356,172.00603744546476,27.77338130473045,190.15694179887151,69.86208593254557
139.89900180971767,154.52087177826877,187.25786371995667,172.13999573190927,27.678249215281628,190.9546889155951,69.87147342585229
140.566773384514,154.42828306296738,189.60560595284656,172.27813881763834,27.579429147386776,191.73247290851734,69.88954120325067
141.26699471826925,154.36608010383208,192.0129651221443,172.42061240641695,27.477835801878857,192.49027747099652,69.91592922484593
141.99802289928118,154.3345215065302,194.4815594919308,172.56752147890464,27.374587397973375,193.22775424729343,69.95022217801323
142.75780133083765,154.3337750744556,197.0129541559968,172.71886457335282,27.271040982373528,193.94420678111592,69.99198433621369
143.54385737535222,154.363936835542,199.6085697144432,172.87454414769286,27.168799515957954,194.63859942453598,70.04076386705249
144.3533093097077,154.42497206746094,202.26958197226483,173.03443204163818,27.069696671249872,195.30956944344808,70.09607094757777
145.18293315308162,154.51666504992733,204.99672251172825,173.19838821304762,26.975779071648734,195.95544561651707,70.15737826818841
146.02929930288812,154.6386414530156,207.79004137989628,173.36621070955368,26.889279933342234,196.5743117570222,70.22416435128251
146.88889392454723,154.79040103885995,210.6487521369712,173.5376046731182,26.812564741723097,197.1641158690611,70.29595571106486
147.75815110216087,154.971287952174,213.5712179401792,173.71221356403075,26.748058213389104,197.72274784361667,70.37232396023582
148.6334380520044,155.18044395816497,216.55501618086404,173.88964193772023,26.69818189152817,198.24805480602726,70.45286119252209
149.5110895532043,155.41683573731814,219.59699593977538,174.06941792536722,26.66532457365,198.73788762943684,70.5371834119829
150.38750132847582,155.6793396270734,222.69336084859407,174.25095723636036,26.651845800946703,199.1902268322129,70.62495880229811
151.2591914345844,155.96677642364713,225.83982941030044,174.4335943003315,26.66008208440792,199.60329353643934,70.71591253477185
152.12278113688336,156.27786605637272,229.03182275029334,174.6166320221706,26.692322404444663,199.9755877401407,70.80979172002658
152.97497042313955,156.61119228290679,232.2646026925421,174.79933051001302,26.750759419403927,200.30591292708058,70.90633269551911
153.81259004075815,156.96523486078385,235.53330233029334,174.98086483260408,26.837456505761313,200.59340655810496,71.00527278587737
154.63268756576667,157.3384054771616,238.83284943304727,175.1603483995256,26.954349319749554,200.83752416493357,71.10638840348581
155.43254931692718,157.72902072421715,242.15789950057223,175.3369205370376,27.103250630275276,201.03799058333811,71.20950492571963
156.20965748317678,158.13526049484716,245.502863140618,175.50978946224507,27.28582569029184,201.19478698471426,71.31446720986824
156.96166016811625,158.55519922661176,248.86193937427907,175.67819297995317,27.503556528016265,201.30816060736885,71.42111761748514
157.68637762785167,158.9868917483511,252.229060279761,175.8413680036404,27.757749244675185,201.37860181176285,71.52931102222996
158.381796985031,159.42841046924627,255.59781682368302,175.9985829481309,28.049612378956688,201.4068414548172,71.63893467813068
159.0460292779448,159.8778054373607,258.9614850315567,176.1491640002381,28.380368451306303,201.39395015418782,71.74989485094432
159.67727563615895,160.33307618057475,262.3131432837403,176.29245580145886,28.751330369645423,201.3414580059608,71.86208913849372
160.27385524960772,160.79221430533082,265.6457589898443,176.42776696151222,29.16390197592668,201.25134509065953,71.97541066358374
160.83425791780493,161.25325199957427,268.95217418646064,176.55437016608334,29.619509579830247,201.12590179529576,72.0897826729337
161.3571403658516,161.71424360070063,272.22509087076094,176.67153405428206,30.11951036695618,200.96757785570767,72.20517303498436
161.84127488708262,162.17322758602134,275.45722551781034,176.7785174229208,30.665130805958043,200.77889923828778,72.32156576885923
162.2855482099107,162.62826310820006,278.6415954010574,176.874536366947,31.257448972794403,200.5624303443003,72.4389275113758
162.68904246294122,163.07752473175353,281.7716842593116,176.95878648649688,31.89738699024712,200.32071745119003,72.55720729152539
163.05109585480702,163.51934248363338,284.8413950790505,177.03052390358744,32.585696117676704,200.05621969327018,72.67635254668481
163.37126793426023,163.95214868875757,287.8449722414924,177.08910562058696,33.32295761289629,199.77132546087444,72.79630115949145
163.64929143759673,164.37442450746335,290.7770214024724,177.1339538094657,34.109593593754,199.46848501854524,72.91695273195683
163.88511961121117,164.78472990713846,293.632576580517,177.16453050230493,34.94585471830833,199.15032333561862,73.0381644905188
164.0790299375181,165.18177178964484,296.40716307793093,177.1803733214671,35.83180094983615,198.81963198049135,73.15978947621021
164.2316609630161,165.56441043780367,299.09682972830456,177.18112401973036,36.767315630501244,198.47932280808342,73.2817131006408
164.3439730373681,165.93160755563736,301.69811323699474,177.16649046102884,37.752142173941934,198.13241628382806,73.40384626308698
164.41723554250987,166.28241509622995,304.20798167652083,177.13619688368198,38.785903624515186,197.78199740293925,73.52610030917856
164.4530679417931,166.6160297371037,306.6238237062976,177.0900031912122,39.86809946517664,197.43109785335682,73.64839526631972
164.45345481903993,166.9318176767622,308.9434130399726,177.02776707584061,40.998118817511674,197.08259232359123,73.77069683592164
164.42070769105675,167.22925683072498,311.1647786761257,176.94945394164608,42.175295036383865,196.73917716277674,73.89302795231072
164.35745022098857,167.50787335167453,313.2860884365862,176.85508310678935,43.398957145062774,196.40336635930436,74.0154342772641
164.26665198984395,167.76725165497047,315.30566119471786,176.74469723493286,44.66841996734258,196.07743198102844,74.1379454546673
164.15162201789883,168.00707917457237,317.22202826307614,176.6183917249376,45.98291779123215,195.76333951587307,74.26057151696305
164.01593075313588,168.22713858137155,319.033902291757,176.47633763383612,47.3415192262872,195.46276248227446,74.38331682889647
163.86335045422604,168.4272538093618,320.7400774311721,176.3187571467149,48.743048882507566,195.17715168645512,74.50617020205624
163.69785553643936,168.60727973354815,322.3394068139592,176.1458987446312,50.18604311985806,194.9077712566977,74.62907089052287
163.52360621716605,168.767156468464,323.830898694072,175.9580405624317,51.668766692268775,194.65569622951116,74.75189130823462
163.34484604220012,168.90693900924796,325.2138068079718,175.75547971015,53.18927601437939,194.42183566111115,74.87445625021834
163.16574722987718,169.02675183359972,326.48760150508446,175.5384851413855,54.74547075842429,194.20697289600147,74.99656590072642
162.99029679153892,169.12674162818095,327.6518414160311,175.30726456350328,56.33509030242852,194.01174977137546,75.11798758347193
162.82226186468793,169.20709672201247,328.70604601423094,175.06199395626808,57.95566941890184,193.83660858731236,75.23843424812416
162.66518709357084,169.2680821271092,329.6496579905154,174.80287291754655,59.60449795391562,193.68179761602255,75.35757184471123
162.52237349727045,169.31001500803418,330.48209130738917,174.53012887308364,61.278613960705925,193.54746576383553,75.47505358857762
162.39682784492106,169.3332192681107,331.2027713134002,174.24397728954085,62.97484589599036,193.43374580007222,75.59053565509747
162.29118446543612,169.33805350195453,331.81110835317827,173.9446330651694,64.6899071644621,193.34076083654318,75.70365485049528
162.20760816232254,169.32499704993157,332.30645102370306,173.63240028667218,66.4205028276998,193.26859931247384,75.81400357890485
162.14770892109178,169.29468093976033,332.68810290138106,173.30773961998227,68.16338557799254,193.21729980139074,75.92113817820915
162.11253449598556,169.2478377912501,332.9554116447956,172.97125311453323,69.91534610146448,193.18681761907234,76.02460519371515
162.10269030977943,169.18526892390173,333.10783415092544,172.62366451187822,71.67318332628345,193.1769533106721,76.12394517230348
162.1185137440716,169.10787106370717,333.14490534334504,172.26585508738526,73.43369383932229,193.18728492011644,76.21867266260298
162.16016094746223,169.01664069111962,333.06618373563435,171.89888751522224,75.19366374466335,193.21714569513944,76.30827280923664
162.22758675891873,168.9126095782702,332.87131107349074,171.52395689674472,76.94984630640396,193.26562846235245,76.39223190936258
162.32052933438644,168.79678671232898,332.56018890732685,171.1423367742138,78.69897540566443,193.33158721486961,76.4700663289173
162.43855312052526,168.670167101942,332.13310292894846,170.75540241373628,80.43785118535347,193.41366620389715,76.54131558125411
162.58108255526702,168.53375045652683,331.5906855681208,170.3646789230739,82.16342858413326,193.51039669967105,76.60551846841558
162.74737849248402,168.38849920007573,330.93383723896613,169.97181325576523,83.87282715615721,193.62031112667353,76.66221564901167
162.93649882866623,168.2352753589693,330.1638019234573,169.57850416517647,85.5632725152513,193.74197963528638,76.7109826798019
163.1472764345224,168.0748483198587,329.28239918663735,169.18653404286027,87.23201906517663,193.87396608528636,76.75145090676214
163.37829389456778,167.90796738946375,328.2922129490955,168.79793226574137,88.87628238047968,194.01477921738942,76.78329163418378
163.62784600692626,167.7353959165489,327.19662591160017,168.4151177445287,90.49319914583127,194.16284932313314,76.80619576498519
163.89391568907527,167.55787792989358,325.99977842001863,168.0409133713946,92.07982651757717,194.3165004470561,76.81988570607095
164.17418320376333,167.37612744731703,324.70650904768405,167.67848553909752,93.63317093419812,194.47391165181838,76.82414254388297
164.46605661306958,167.19087640613876,323.3222473979078,167.3312615113585,95.15021575281318,194.63310697661086,76.81880616409438
164.76669370142153,167.00289385928744,321.8528404793423,167.0028014735159,96.62792555987977,194.79198413803775,76.8037472867924
165.07300733257938,166.81292487043154,320.30434739839313,166.69663776265082,98.06324184611968,194.9483282767935,76.77885347562014
165.3816793887133,166.62162656406662,318.68288997338004,166.41617426122747,99.45310330912298,195.09978424898864,76.7440504804454
165.68919783454282,166.42958577153226,316.9946029702144,166.16468837377715,100.79449134059766,195.24383537671847,76.69932614534687
165.99189367933477,166.23738106811354,315.24563098014994,165.94534207782215,102.08446830168484,195.37782537078454,76.64472127107958
166.28596968067896,166.04559152083525,313.44215722891687,165.76112327280927,103.32019725968358,195.4989934443008,76.58030553498921
166.56756501023995,165.85474918256278,311.5904802501524,165.61477627968478,104.4989613217705,195.60448353647288,76.50617992613783
166.8328686454119,165.6653277725003,309.6970825232569,165.5087823827255,105.61819518118664,195.691359693281,76.42250304148382
167.0782114528238,165.4777956421089,307.76871615962426,165.44533840285496,106.67552997660974,195.75669639623516,76.32949774267061
167.30010161421419,165.29264632961628,305.8126011961961,165.42628227221317,107.66883934324602,195.7977206979028,76.2274223757091
167.49526660993214,165.11035202894914,303.8366377370108,165.4530230088087,108.59625908931136,195.8119030846217,76.1165449496056
167.66073679412753,164.93130872884595,301.8494428356371,165.5265487400095,109.45616792331336,195.796960868926,75.99715577436498
167.79390504673125,164.75584612222042,299.8601988084325,165.64747551532918,110.24714580865691,195.75082301561693,75.86959714701518
167.89250628334705,164.5842602006226,297.87842503493425,165.81605037690827,110.96793014164204,195.67159581899497,75.73426317327609
167.95455983575806,164.41679220004053,295.9137484378893,166.03212675123117,111.61737643630497,195.5575308920741,75.59156581691438
167.9783467961512,164.25357407883646,293.9756893382857,166.29522015012262,112.19442825151837,195.40701762545248,75.44191105565892
167.9624176044248,164.09462181450868,292.07351294270006,166.60467990955647,112.69812201149158,195.21867378344984,75.2857137543136
167.9055713270416,163.9398856958515,290.2162041816987,166.9598740488347,113.12766067784817,194.99153115413523,75.12342286178028
167.80679117992793,163.7892761819595,288.4124868310011,167.36028076611726,113.48253189575126,194.7251617056484,74.95551541194021
167.66518260605253,163.64262244123609,286.67074822796894,167.80552008640439,113.76258535354405,194.4196557282521,74.7824709492705
167.47996335358278,163.499639870257,284.9988743348156,168.29539289307095,113.96804575694037,194.07555956333542,74.60477359596695
167.25049787080883,163.36000039809895,283.40410600380295,168.8298722628351,114.09954005841028,193.6938673206421,74.42294771108305
166.97631246719695,163.22346555429945,281.8929541916637,169.40898638082294,114.15817492507719,193.27600932233298,74.23757789020866
166.65705608442465,163.0899549738334,280.4711162838198,170.0326723864037,114.1455842511712,192.8237677307668,74.04928460807598
166.29244600438258,162.95954956867794,279.1433946159921,170.70071382453455,114.06388038966064,192.3391680815464,73.85869097362993
165.88224282466965,162.8325592867731,277.91372778634104,171.41275016573192,113.91555270940992,191.8244365551648,73.66642272958056
165.4262539664589,162.7096622338076,276.78534730515753,172.16825957043298,113.70339449834891,191.2820089295475,73.47312750028433
164.9243672986304,162.5919557394487,275.760883621084,172.9664989182445,113.43047867594109,190.71449799212465,73.2794696925735
164.37663168781677,162.4808487263446,274.8423115156941,173.80650841299007,113.1001402187584,190.12461463178357,73.0860978604287
163.78336205611294,162.37791448706355,274.03083851264824,174.687219660706,112.71592772068819,189.51515290435506,72.89362834441053
163.14521083287826,162.28483481648635,273.326872003006,175.60754959304896,112.28152434015084,188.88907040452196,72.70266807321651
162.4631655252334,162.20341692337536,272.73007797090605,176.5664369151935,111.80065846271555,188.24954044333984,72.51384033503096
161.73848837040902,162.13556728535193,272.23946354247755,177.56292787982034,111.27703935358817,187.59990384600962,72.32777334655074
160.97266836223594,162.08319111921398,271.8534320244684,178.596299695913,110.7143548617289,186.94359460233963,72.14506946355347
160.1674298354818,162.04810609410808,271.56981421065575,179.66606152555903,110.11631888174023,186.28408817733413,71.96630245879015
159.3247530398136,162.0320152456776,271.38589840713337,180.77181118693167,109.48670060800578,185.62482912795994,71.79204587473137
158.44685627941323,162.03647540446985,271.29846817393496,181.91311599011928,108.8292902930543,184.96912529962003,71.62288531982226
157.53618078213614,162.06282769878186,271.30385645609795,183.0895131551568,108.14782406876819,184.32007432540354,71.45939235989447
156.59542618766463,162.1121569982855,271.3980071479058,184.30051945104873,107.44591480639501,183.6805637870738,71.30209960417973
155.627577457217,162.185316121917,271.576539034751,185.54554236927584,106.72701757375712,183.05328407917418,71.15151796708145
154.6358594477863,162.28294053958467,271.8348727138987,186.82376261796637,105.99443129705455,182.44067923150857,71.00817517108536
153.6236841832011,162.40539312945373,272.16843443291026,188.13409128568082,105.25131698529258,181.84486980822308,70.87262143968833
152.59468074212054,162.5526956270097,272.5728252073336,189.47517090007057,104.5007091353382,181.2676534673368,70.74539161259239
151.5527610421268,162.72454108522678,273.04387687270605,190.8453329108701,103.74550649461703,180.71060095070501,70.62696810265348
150.50210781802912,162.92038055980103,273.5776133734059,192.24253431922008,102.98844360525626,180.17513837744366,70.51777893837607
149.4470897796749,163.13948448412611,274.17015590228436,193.66439017074788,102.23205550318174,179.66255808223528,70.41820988941794
148.39222039179825,163.38095962436736,274.8176098007822,195.10831013607802,101.47864313254638,179.17402326289965,70.32859364718175
147.34219837365984,163.6438181927772,275.51595703685126,196.5715983793287,100.73024121309673,178.7105886769405,70.24918335729967
146.30192603013063,163.92710829383543,276.26096601061226,198.05146531390253,99.98859593472591,178.27317388992435,70.1801484422248
145.2764354917938,164.2299797116432,277.04814296293773,199.54505244995678,99.25516133206663,177.86247984060432,70.12159688546474
144.27080951299797,164.5516513974236,277.87272746586876,201.04949121400603,98.53111271425625,177.478931230041,70.07358465603447
143.29018598238704,164.89141119423886,278.7296850621265,202.56190004554603,97.81737835305756,177.12271410367427,70.03609286284271
142.3397802746777,165.24870622673987,279.61367669795453,204.07931440064,97.11470372300862,176.79386792916793,70.00900640435971
141.42485117339612,165.62320058110612,280.5190442984197,205.59865971842243,96.42373413036259,176.49232506898687,69.99212951588562
140.55070171018917,166.01472150471434,281.4398164578962,207.11681188936487,95.7450626106466,176.2178795113232,69.98522013628744
139.72279192891196,166.42319445690927,282.3696917997604,208.63065527924962,95.07922076201605,175.9701777541297,69.9879976511649
138.9468263902452,166.84864739074257,283.3020142624924,210.13705217498827,94.42664202714522,175.74876719997695,70.00011880440175
138.22867382988076,167.29120798102645,284.2298229196323,211.6327749156219,93.78763057589389,175.55312656329383,70.02116347141825
137.5742132047049,167.75102910733264,285.146016368621,213.1145197598486,93.16236061402971,175.3826594740422,70.05065535953773
136.9892853437619,168.22822232395035,286.04354991760266,214.57900124577898,92.55091798071517,175.23674080725527,70.08808871575208
136.4797415189458,168.72287134563985,286.9155467432605,216.023002937367,91.95335758363669,175.11483284208362,70.13292675098485
136.05142683724992,169.23504996404924,287.75531180282456,217.44336657491635,91.36973430275927,175.01656620397756,70.18459290022454
135.7100511510163,169.76475812403632,288.55633108692473,218.83705670824693,90.8000919120466,174.9417450734054,70.24250138956123
135.46106169590047,170.31183507583793,289.31229855942416,220.20132718139814,90.24442565764524,174.89035119422084,70.30611840635669
135.30957233439864,170.8759600441298,290.0171330765344,221.53382272583258,89.70264936798682,174.8625678563653,70.37499282461108
135.26027902910926,171.45672474724256,290.66498309400015,222.83253816522745,89.17458575228937,174.8587506024156,70.44873113910843
135.3173162538421,172.05367550276299,291.2503033851876,224.09576745526454,88.65997224074508,174.8793191692259,70.52695948622171
135.48411851333202,172.66633359967744,291.7680066762332,225.3221297033635,88.15847232404332,174.92464059563252,70.60931775891441
135.76339125697976,173.2942704109863,292.2135573180356,226.51058769717218,87.66969058490443,174.99496477698932,70.69547405868325
136.15719140371857,173.9371751472972,292.5829724353954,227.6604181293149,87.19318756534207,175.09039312016444,70.78511783755994
136.66698460454177,174.59480873983958,292.87284339857024,228.77120301621133,86.72849009356084,175.21083431743978,70.8779271013309
137.2936074714595,175.26689560338383,293.08039133080393,229.84282433536467,86.27508924162765,175.35596048986636,70.97354971071341
138.03722469981219,175.95307470665037,293.2034477749935,230.87537853520934,85.83241826558287,175.52522666825374,71.07162066103066
138.89734434764713,176.6529161272757,293.2403660037643,231.86906583998757,85.39982118821207,175.71795754956787,71.17178353402483
139.87282533235015,177.36591395744477,293.190008444839,232.82419109050167,84.97653852557613,175.93340775220094,71.27367951284663
140.96184623710536,178.09143604844715,293.0518491801746,233.74125954271872,84.5617236431141,176.17075329928892,71.37691921264486
142.16190963177215,178.82870876107188,292.82603946635123,234.62100488333047,84.15447013307362,176.42910357258467,71.48108395002328
143.46990476045298,179.5768614600935,292.51334484426405,235.46429215201803,83.7538215357645,176.70757992179063,71.58576473017206
144.88214410461822,180.3349529139463,292.1150729597482,236.27199801048522,83.35875953347355,177.0053783628778,71.6905907117105
146.39432861680737,181.10192464206582,291.6330866783486,237.0449278611749,82.96818491702268,177.32177289087963,71.79521403359867
148.00151111819537,181.8765414119156,291.06980242573906,237.7837286139015,82.5809057217302,177.65611526825228,71.89928352332322
149.69812617576696,182.65742136786875,290.4280992450405,238.48878843013594,82.19564430418167,178.00784621125246,72.00245029261791
151.47804802471998,183.44315128805428,289.71122982385816,239.1601843960272,81.81106639349959,178.37646253327304,72.10439222773493
153.33461485835454,184.2323828324003,288.9227803890788,239.79770960547117,81.42582212076525,178.76143725094624,72.20481365126317
155.26066071188785,185.02385671018186,288.06660874956276,240.400922685904,81.03858587171402,179.16216937521884,72.30341591870221
157.24862497442254,185.81637756132668,287.14676873165973,240.96914481746475,80.64808582900451,179.57799668806544,72.39988260680028
159.29068988170621,186.60875243952296,286.16750356955026,241.50142714772963,80.25312023396498,180.00821781502148,72.49390560297597
161.37883771041382,187.39969061036405,285.1332819338721,241.99659096893785,79.85256276577871,180.45210273446912,72.5852190665198
163.50482436150585,188.18770110490803,284.04877973033405,242.45335422129824,79.44535864223968,180.9089322830635,72.67359802340987
165.66017199085235,188.97106488958548,282.9187879435856,242.8704253947576,79.03052564242103,181.3780496517936,72.75883323741904
167.83625493235266,189.74790164890587,281.7481126588477,243.2465096845744,78.60719346933479,181.85885057932694,72.84072641882315
170.02443094644553,190.51625274419294,280.54154813383826,243.5803329876519,78.17468199402936,182.3507246058335,72.91911118148874
172.2161105686324,191.2741487142414,279.3039171066728,243.87075330623367,77.73255915321486,182.85305695027972,72.99385996000261
174.4027487559427,192.019712579261,278.0400729930643,244.11686195583508,77.28063479508894,183.3653162479149,73.06485630393742
176.57584520452457,192.75126083968192,276.7548387817731,244.31798660590826,76.81891551349675,183.88710742083305,73.13196431952512
178.7269960574161,193.467303735345,275.4529898205874,244.47365375314712,76.34756249276198,184.41812489356786,73.19503602080512
180.84793776611116,194.1664819706835,274.13929789180355,244.58357057649582,75.86686417357322,184.95809412801407,73.25394828662729
182.93053039822178,194.847559854075,272.81852794738626,244.64758353938575,75.37721932959153,185.506759464797,73.30862011614622
184.96672200003263,195.5094807650098,271.4953828152038,244.66559145699716,74.87912596929654,186.06384932396412,73.35899207314137
186.94857788367057,196.15138897183672,270.17447993684686,244.63749794274065,74.37317005827454,186.628973241415,73.40500798194887
188.86838116799842,196.7725795784884,268.86033087103453,244.5632669900781,73.86000741445122,187.20153133659014,73.44663046243879
190.7187146810941,197.3724317529033,267.55725242546555,244.44299847792723,73.34033471052982,187.78073028180486,73.48386293871458
192.49248061508348,197.9503872613786,266.2692448753498,244.27691072448945,72.81485664361917,188.36567449439258,73.51673886705305
194.18292129137814,198.5059735064204,264.9998995609169,244.06525092662505,72.28427936263444,188.9554287001231,73.5452893863988
195.78367251804207,199.03880367133468,263.7523336361799,243.80822361919763,71.7493597861913,189.5490272590904,73.5695315754251
197.28878998314886,199.5485161696273,262.5291191663512,243.50595889687725,71.21098371143584,190.14547852501667,73.58948566492576
198.69272069747203,200.03471466353855,261.3322070783075,243.15847940136007,70.67020302493252,190.74376690302228,73.6051847090734
199.9902834654444,200.4969729110603,260.1629032843045,242.76565460939236,70.12821765913448,191.34281368120767,73.6166536916212
201.1767092183179,200.93487138589623,259.02193866462324,242.32720873473735,69.58637062715319,191.94141695989822,73.6238849230582
202.24769317340275,201.34800465404172,257.9095717903436,241.84285175535976,69.04620894821163,192.5382402238876,73.62684621946401
203.19939226687674,201.73599319826354,256.82562510697323,241.3124700339539,68.50956540179307,193.13184846935133,73.62551233186761
204.02838706977536,202.09855482985833,255.76946772603216,240.7362227021617,67.97857432576795,193.72071999906316,73.61987525841802
204.73166350793474,202.4355761228171,254.74006035871932,240.11451758250442,67.45560472064354,194.30322546286786,73.60992088353132
205.3066114010346,202.74714235091378,253.73608811221692,239.44798155985333,66.94316474058593,194.87764584444508,73.5956126786986
205.75101284223746,203.0336134732458,252.75605627979888,238.73746894848128,66.44382245308013,195.44225402411206,73.57691329435966
206.06304947084394,203.29575320038552,251.798286375651,237.98404686415893,65.96014639415472,195.99539243154967,73.55381557359556
206.24137011176276,203.53476512966884,250.8609271907552,237.18894750324765,65.4946538874723,196.53548615430597,73.52634155128963
206.28518647482286,203.75219394490037,249.94205760357306,236.35354753498572,65.04977671509468,197.06101463325766,73.49452100213801
206.19432484619136,203.9498337107532,249.03977593341872,235.4793808995936,64.62786468112097,197.570484607125,73.45839360613532
205.96920112050014,204.12972420227578,248.15218945297323,234.56811386872437,64.23120578888724,198.06238648161687,73.41803940417367
205.61074967806502,204.2941373140816,247.27738128202202,233.62147428196448,63.86201300108205,198.53511465268352,73.37359303580332
205.12037695616422,204.44547217872798,246.41342827367984,232.64125607228652,63.52236972488159,198.98691703181674,73.32521870872638
204.49996936546626,204.5861387609212,245.5584223751626,231.6294583685437,63.21417646612277,199.41596295413385,73.27308385679973
203.75189820766528,204.7185226898229,244.7104499722897,230.5884107462128,62.939131436705956,199.82049432843192,73.21737415008471
202.87897198626095,204.84497756486064,243.86756258033654,229.5207449290857,62.698730816527785,200.19891207175547,73.15833193506906
201.88437389070725,204.9677461068689,243.02777089879476,228.42930515320256,62.49425473010475,200.54974772814967,73.0962647118591
200.7716361718865,205.08883566843852,242.18904206535325,227.31715997722227,62.32673345051538,200.87163158100046,73.03151281970501
199.54463299981708,205.2099651714972,241.34927088293668,226.1876931731332,62.196929411681,201.16332463364978,72.9644214539142
198.20754598732984,205.33261416826207,240.5062513475836,225.04464048715658,62.105374363138466,201.42373561199372,72.89534756089391
196.76480665224452,205.45806306328754,239.6577154643532,223.89207289498614,62.05244292984226,201.6518606582523,72.82467311705135
195.2210576648835,205.58735085742907,238.8014334779171,222.7344017213505,62.03839174248665,201.84670986409526,72.75278760500758
193.58115589040662,205.72122734418843,237.93528424102627,221.57634707053043,62.06333804982635,202.00729198394404,72.68005566290769
191.8501962512935,205.8601667585057,237.05726243440958,220.42279513541294,62.12723140757385,202.13262450977572,72.60681518678848
190.03351654624015,206.00439195582118,236.165472530569,219.2786482101703,62.22986640063623,202.22171073158037,72.53340926385454
188.13669757558742,206.1538825199771,235.25812041292542,218.14881629821622,62.370926060285804,202.27351310245717,72.46020410615404
186.16561081579655,206.30842496126257,234.3334700562545,217.03831212736017,62.55002258076984,202.28699443289932,72.38756555594426
184.1264813120792,206.4676976551669,233.38977305082716,215.95228000788097,62.76671445238914,202.2612145771382,72.31582790884505
182.02588030631225,206.63129570403203,232.42522323018525,214.89593054090358,63.020511124630005,202.19538819797955,72.24529589343638
179.87066707371926,206.79867612072857,231.4379929910474,213.8745189865225,63.31088870082361,202.08886401473555,72.1762671928202
177.6679720694569,206.96910574976926,230.42634291175992,212.8933928971509,63.637299356608,201.94110171294895,72.10903247330732
