HandOpen,HandClose,Wrist Flexion,Wrist Extension,Supination,Pronation,Rest
151.9708064070128,387.5185416370597,293.4350907130602,211.70949259022544,34.278426909615355,133.35997526169274,78.23726067723275
152.12272797293753,385.80238770241306,292.4400016044149,211.46676142503895,34.355342911308576,133.47897077489458,78.29532061515275
152.29265288495054,384.144505335078,291.36949526774345,211.26637888605333,34.43620130043637,133.5870316216983,78.34479932600924
152.48004023087046,382.54696288809333,290.22389436093863,211.11419809046058,34.52139045281498,133.68220051495166,78.38531843909314
152.68415084030792,381.01072914410463,289.0040030110046,211.0154874602295,34.61131171132305,133.76244950987544,78.41651707777662
152.9040400464886,379.5356440743968,287.7114346976787,210.97489798010736,34.7063699252728,133.82570004965396,78.43808227023544
153.13861806476964,378.12039323646593,286.3488433150363,210.9964822353694,34.80696652210889,133.86984815606482,78.4497428014938
153.3867033449887,376.7625467300528,284.9198668144464,211.08365917077018,34.91350977388557,133.8927840275417,78.45124292795835
153.64701618282646,375.4586988081621,283.4289406033633,211.2391616876354,35.02643806518177,133.8924121154349,78.44234046799009
153.91816919227688,374.2046060145612,281.8812330094706,211.46505338481228,35.146229064933785,133.86668106787545,78.4228338891511
154.1986962975999,372.995226079714,280.2827071703676,211.7627907858944,35.27339363977844,133.81361014904147,78.39257640427003
154.48706716991916,371.8247384714397,278.64010913288143,212.13328070095878,35.40848172002711,133.731296366837,78.35145264089846
154.7816500068362,370.68673841041334,276.96081280208455,212.57693255380943,35.55210666875252,133.61791874407305,78.2993460144993
155.08068498408045,369.5746319451158,275.25268670883156,213.09367879507354,35.7049659313437,133.4717656391645,78.23613336230022
155.382335727769,368.4819736403226,273.5240745742018,213.68291633151506,35.86784230805635,133.2912775190237,78.16170085852826
155.68477512763283,367.4025285309564,271.7837531622294,214.34340570550654,36.041608740010794,133.07507916358682,78.07594615534403
155.98621053333596,366.33019080951453,270.0407433381692,215.07326067633232,36.227266716007385,132.82201053210983,77.97875733794775
156.28484865312328,365.25906828546607,268.3040480792297,215.87009303071204,36.4259879401717,132.53117882542628,77.86999975736144
156.5788908675967,364.1838042623739,266.58246475513084,216.73117811205597,36.63910311120211,132.20200204111015,77.74953271329368
156.8665927821724,363.0998670330371,264.8845121263082,217.65348001681653,36.868043979336285,131.83419984725958,77.61723194544146
157.14631221042382,362.003631728818,263.21842187421635,218.63358499332196,37.11428981931505,131.42774025808072,77.47298681673044
157.41648483059413,360.8924069186771,261.59214335664063,219.6677386825187,37.3793410776847,130.98278642285635,77.31668745271585
157.67558253193636,359.7644918599449,260.0132967474745,220.75204979486878,37.66469973048677,130.49968406537857,77.14824006653342
157.92214084427164,358.61913435458547,258.48902346062823,221.8826698799254,37.97183779312274,129.9789872756316,76.96760649029439
158.15483574900648,357.45637110939055,257.02579218608525,223.05578571386806,38.302177117605666,129.42146997217299,76.77482263374962
158.37251093358023,356.27688629146854,255.62929822767256,224.26752979513597,38.65710675277966,128.82809381767245,76.56997700950578
158.57413124002952,355.0819136776485,254.30452012178003,225.51396022204275,39.038005557993635,128.19996626660367,76.35318312882625
158.75874499853978,353.8731243316834,253.05583060866917,226.79106638021116,39.446218278020304,127.53832740693316,76.12458052957157
158.9255020281981,352.65257513612227,251.88701733632243,228.09470365485097,39.88298685920182,126.84456401434556,75.8843527629977
159.07366700707303,351.42278264027914,250.80122264754542,229.4205178712832,40.34937805598137,126.12022898288792,75.63272785432302
159.20258584087918,350.18677567533524,249.8009231530417,230.76401578635839,40.84623746018528,125.36706821514753,75.36995953179807
159.31167148825094,348.94803777010907,248.88797992167608,232.12078331926327,41.37417883015495,124.58706867588148,75.09632271053579
159.40046665043076,347.7104455538279,248.06366702083076,233.48666795615367,41.933607902168234,123.78249611770862,74.81213663230128
159.46871651047843,346.47820397777105,247.32863043484832,234.85784459140956,42.52476205180487,122.95587756046943,74.51778397887978
159.51636100221975,345.25566668709575,246.6828382090108,236.23084102004674,43.147731601262265,122.1099452520322,74.21369771920051
159.54348138732547,344.0470761192182,246.1255837589807,237.6025168062277,43.802460078799456,121.24759142516939,73.90033587335182
159.55030835147474,342.8563606090518,245.6555721923139,238.96994836445373,44.48875274598501,120.37184118582908,73.57818377932871
159.53729474199258,341.687051276801,245.27107710029378,240.3303144564801,45.20629293626376,119.48581253708201,73.24778358764226
159.50514488361512,340.54226825609254,244.97005492533265,241.68089698389144,45.95463779986453,118.59265584070941,72.9097489538694
159.45476838751023,339.4246875941153,244.75012584585122,243.01913972406007,46.7331867655836,117.69550070451261,72.56474279074034
159.38725020348429,338.3364982113017,244.6085072659178,244.34262750106814,47.54114554136447,116.79742087676907,72.213447125596
159.30387483726184,337.2794282836863,244.54204689445032,245.6489896744127,48.37751523309449,115.90139369236898,71.85655963073562
159.20612233270006,336.2548058812554,244.54737067583557,246.93584938493342,49.24111648106885,115.0102547006775,71.49480720088901
159.09558255097352,335.26353801792743,244.62102275951577,248.20084298959546,50.13063411547002,114.12670469989585,71.12894133104781
158.97385733720068,334.3059983353177,244.7594925526862,249.44161938706182,51.04466345400965,113.25339515969183,70.75971190359174
158.84255045134623,333.3819245649943,244.9591816492355,250.65578949618256,51.98174438578449,112.39301224728644,70.38785668989938
158.7033323430885,332.49039432889776,245.21643320341255,251.84088473199412,52.94037361041866,111.54827655256219,70.01412698977117
158.55796710794814,331.62984156319055,245.52760892437098,252.99435357362017,53.918990401080464,110.72187196264161,69.63931694008542
158.4082674533262,330.79806555605006,245.88909590203696,254.1135788200395,54.91594303249641,109.91636298445478,69.2642579877631
158.2560654976779,329.99225677802997,246.29723002117893,255.19592706217483,55.92947525081086,109.13414920724193,68.88979104891322
158.10323291546132,329.2090456677383,246.74823732646618,256.238851592097,56.95778812177485,108.37746597664604,68.51675772646016
157.95166994161144,328.4445173826267,247.2382358747245,257.2399912235168,57.99916183865844,107.64838669471852,68.14601680736365
157.80321586273757,327.69417451806737,247.76322667620545,258.19720870232464,59.05203422883342,106.94879954074625,67.77844949687109
157.65954103243556,326.95292425487514,248.31903571126844,259.10864843339954,60.114978103644916,106.28039009557457,67.41493297083089
157.52210031206587,326.2152030828375,248.90128239055895,259.9728693558579,61.18663657228727,105.6446439755593,67.05631152389655
157.39214685292222,325.4752501907055,249.50541346783064,260.7889145694614,62.26569151254898,105.04283718717028,66.70340227228354
157.27073115534589,324.7273634423535,250.12672218726553,261.55619987550455,63.35086481871489,104.47600447179401,66.35702447242953
157.15865027805535,323.9659853985905,250.76030668304557,262.274313874848,64.44090591427675,103.94491847389001,66.0180070699731
157.05641099001147,323.18569466728735,251.40103276969674,262.94286996738686,65.53455260490607,103.45009810673568,65.68716300181116
156.96426873374642,322.3812750821581,252.0435454555186,263.56142723495253,66.63050600360673,102.99182566557958,65.36527186065265
156.88229891055065,321.547866777928,252.68230384360672,264.12941631122817,67.72744374394102,102.57015231512058,65.05310054796198
156.81041778886356,320.68105966475605,253.31165415992928,264.6460432718146,68.82403220678565,102.18489949558499,64.75143124513956
156.74836453800017,319.7768855517542,253.92597382510843,265.1102144751553,69.9189019299828,101.83567047057853,64.46105215890758
156.69572961415673,318.8318045615704,254.51981562700172,265.52051710428685,71.01062099652694,101.5218635420412,64.18272003725545
156.65203971388746,317.84273393713613,255.0879737743828,265.8752281189292,72.09771665272913,101.24266874917448,63.917145386597
156.61680677375284,316.80707890912544,255.6255347929034,266.1723232912967,73.17872693747438,100.99705964615133,63.66502112015526
156.5894915603623,315.7227943339918,256.12801018263804,266.4095035438031,74.25222584979153,100.78381814816409,63.427052405959216
156.56945541226452,314.5885169311362,256.5915055296779,266.5842379641514,75.31681567097485,100.60159657248919,63.20394480729666
156.5559927763903,313.40364041751116,257.0127819926262,266.69379071183596,76.3711208113997,100.44896564298607,62.996372364575976
156.54842336315633,312.16822687163113,257.3891835011087,266.735252160977,77.41378495262316,100.32441213715944,62.80497250945391
156.54613884445683,310.88288929188695,257.7185722579476,266.70562312289707,78.44344594253472,100.2263195759165,62.63036404706534
156.54858570628846,309.5487914284481,257.999356995019,266.60192558833444,79.45868643964532,100.15299946747089,62.47314396222992
156.5552788260462,308.1676781273564,258.2305130755554,266.42127264771426,80.4579828531733,100.1027861058889,62.333851288800886
156.565868369707,306.74179129237467,258.41149907868385,266.1608897180791,81.43967648433052,100.07411793297901,62.21293672181501
156.58016534461632,305.2737169628427,258.5421446236632,265.81814511519195,82.40197681031711,100.06554197676937,62.1107656786566
156.5980986731757,303.76632112770585,258.62260476315583,265.3906248058976,83.34298292672374,100.07566781618155,62.02763025690014
156.61969593168985,302.22280187149244,258.65332940435326,264.8761942910073,84.26070205295663,100.10311364820947,61.96373486123234
156.64512179586555,300.64673175723675,258.63497730149265,264.2729790259806,85.15306619517189,100.14645382619992,61.91916487362281
156.67468652006085,299.0420286703281,258.56832093683573,263.57929726883293,86.01796154794808,100.20417920353943,61.89387938444916
156.70877657952866,297.41292538787485,258.4541876584663,262.79365513767124,86.8532649501359,100.27469734808926,61.8877405969437
156.74778181799533,295.7639530243637,258.29341828574417,261.91485443639857,87.65686459068773,100.35638736322892,61.90054186652864
156.79208153129014,294.0998834775048,258.0868978165669,260.94212051359955,88.42666001791135,100.44767698500254,61.9320021148803
156.84204085601192,292.4256843279772,257.8357435606289,259.87513363087686,89.16056025718672,100.54708043820189,61.9817527460959
156.89795987075746,290.7465652143125,257.54154605116054,258.71398399579914,89.85649893805912,100.65318216531658,62.04935910944294
156.96001865120127,289.0680188819293,257.20645280783594,257.4591445127074,90.51247408564855,100.76461780189183,62.1343628032432
157.0282891601633,287.3957430363092,256.833057246475,256.11148287996053,91.1266049319107,100.88010047812573,62.236294372603446
157.1027872263752,285.7355662773015,256.42424600005427,254.67225861773423,91.69717612649862,100.99847980563013,62.35464729232739
157.18347664008033,284.0935462346047,255.98315998864112,253.14307793392993,92.22264061378016,101.11878237731385,62.488856066684704
157.27021291081647,282.4761205002145,255.5132572746282,251.52588418184655,92.70158891930255,101.24021517838722,62.63830617639878
157.36270186232727,280.8900752281184,255.01832201660082,249.82308229601688,93.13272455266097,101.36215311798186,62.80235095473883
157.46051199613936,279.3424049948717,254.50235446820554,248.03773036289414,93.51488162908969,101.48411813295589,62.980301384395524
157.56308966932852,277.8403821311799,253.9694513029388,246.1736073942895,93.84707683939487,101.60575841504945,63.17139932717556
157.66973138664244,276.3918685290375,253.42376411415532,244.23511623417536,94.12854467529695,101.72686764031617,63.37481354773195
157.77955130000007,275.00550448847076,252.86950449327858,242.22719103659554,94.35873179655925,101.84745947789148,63.58966602035611
157.89150097901552,273.6905930146024,252.3109404928184,240.15531752223927,94.53728654593549,101.96784392469499,63.81505034219858
158.0044208769461,272.4568971197222,251.7523467640351,238.02555855417154,94.66407172985542,102.08863871035551,64.05001785718582
158.11705708652778,271.314477594484,251.19791800695407,235.84448379429205,94.7391772858248,102.2107144178263,64.29355982425908
158.22804286538295,270.27348048390076,250.65176641328998,233.61908150015026,94.76290967747568,102.3351290865605,64.54462318997142
158.3359110780744,269.34390825669544,250.11807975608775,231.35672291603603,94.73577378256319,102.46308750211189,64.8021493904277
158.43915360940406,268.5354913244717,249.601278852401,229.06510345713463,94.65846366855098,102.59590923556831,65.06509136628051
158.5362621187387,267.8575833188465,249.10597685184496,226.75211729952426,94.53185869277377,102.73498377438187,65.33239506265775
158.62570716119944,267.3189412695771,248.6367802293623,224.4257762450863,94.35704005312775,102.88171659904356,65.60297940176243
158.70590362771551,266.92747203753794,248.19811002087084,222.09424014003923,94.13534067986625,103.0374718743931,65.87574034850732
158.77523196594424,266.6901724104817,247.7941341509084,219.76583560984977,93.86838973025674,103.20350649337811,66.14956056031754
158.83210059288888,266.6132945256934,247.42874853501172,217.44897247141287,93.55813201869071,103.38090237609006,66.42329885197391
158.87497005989306,266.70246427545885,247.10550612839026,215.15206592601012,93.20685980035759,103.57051968787826,66.69577144297696
158.90231609013466,266.96255814075005,246.82751336889203,212.88354026799308,92.81725075958819,103.77298373928429,66.96575887921664
158.91259760378324,267.3975099880766,246.59739749067958,210.6518151334616,92.39235531429924,103.98869130731042,67.23204104790643
158.90428308578268,268.0102856792644,246.417361602417,208.46523756360938,91.93552061575203,104.2178073408063,67.49342192479166
158.87589979599483,268.80296745784176,246.2892473835001,206.33207658625352,91.45028384413554,104.46025845251074,67.74872116523794
158.826042821441,269.77674551388765,246.21456267712225,204.26059862696403,90.94026287857174,104.71578100668026,67.99675967399183
158.75335972708228,270.9318181103515,246.19450456255356,202.2591078933657,90.40905875614462,104.98403366939974,68.23637468380366
158.65658150072704,272.2673298825945,246.22999805778318,200.3359403283977,89.86017413285218,105.26468144249876,68.46645516127808
158.53459908597193,273.78134387865396,246.3217267923736,198.4994676251984,89.29694679225543,105.55738195935047,68.68595715888497
158.386502539158,275.47081490906413,246.4701287514689,196.7580455564187,88.72249831263468,105.86171434872385,68.89388870139042
158.2115518720204,277.3316133159861,246.67533795546666,195.11983359551743,88.13969587856177,106.17711824255285,69.08930053188766
158.00914884205088,279.3585625599558,246.93709121753304,193.59259686392804,87.55113068502945,106.50286317965939,69.2713119904918
157.7788585018469,281.54540719583827,247.25470256030977,192.18368386994229,86.95913510439325,106.8380346497716,69.43914977252875
157.52043089702775,283.8847797088458,247.62715696257536,190.9001756054216,86.36585585881747,107.18153123130332,69.59215717333888
157.23377035213994,286.3682756508751,248.05319228694825,189.7489752770795,85.77336694520018,107.53207825834068,69.72977276861187
156.91889921112278,288.9865760611912,248.53124613280826,188.73674719796574,85.18377991980937,107.88824252289346,69.85151681611399
156.57599446852527,291.7294997193527,249.05936403345405,187.8698916226236,84.59929968381302,108.24842492215639,69.95700228168167
156.20547141794418,294.58606062751875,249.63527070027774,187.1546334293172,84.02220047693243,108.6108345499977,70.0459424081427
155.8080114555251,297.5447090560831,250.25665098402928,186.5970270323638,83.45475013929385,108.9734661392126,70.1181291214033
155.3845144084176,300.5936956505476,250.9214375566542,186.2027709733707,82.8991272647067,109.33409599918207,70.17339919927375
154.93605849043362,303.72128615525014,251.62786925127176,185.97700415109497,82.35735231824238,109.69029197732632,70.21162351898408
154.46390784973315,306.91574170933796,252.37432314531742,185.92423149006206,81.83123228538358,110.03943056436135,70.23272289204563
153.96951187951078,310.16521437155393,253.15910257791342,186.04828873166346,81.32231318225631,110.37873880373117,70.23667617295082
153.4544500650601,313.4576468794735,253.98029914040106,186.35223398086012,80.83184086392593,110.70537614592139,70.2235010261661
152.92036377536962,316.7806742174964,254.83572634532348,186.83823048448275,80.36073878394414,111.0165353119192,70.19323354295605
152.3689415761933,320.12157424242713,255.72289631422976,187.50749929393967,79.90961815855087,111.30953055095031,70.14593543061424
151.80194430885544,323.46733894725855,256.6390160377426,188.36028884035866,79.47883255977352,111.58184883919066,70.08171435077867
151.22119651651542,326.80484160104896,257.5809676372202,189.3958304194876,79.06855855643511,111.83115252358228,70.00072304475822
150.6285333738141,330.12098021207584,258.5452719460292,190.61235072520802,78.67886451959703,112.05525805761998,69.90313462668784
150.02577173285513,333.4027908465067,259.528120610256,192.00714366844238,78.30977430854873,112.25213101571619,69.78912822872375
149.4147333948212,336.6376741360338,260.5255377974939,193.57659568946553,77.96135434657086,112.41990863637606,69.65890852474779
148.79725893476262,339.8137240322182,261.5335607737808,195.31612862846458,77.63378579093556,112.55693269564966,69.51273641643402
148.1751651573096,342.9199587126312,262.54827996707394,197.22014855124152,77.32737002656911,112.66178155795811,69.35093424249386
147.55019963651463,345.9463697976263,263.5657985362793,199.28207644897586,77.04249504898489,112.73331081360742,69.17387111785332
146.92407070682822,348.88386405860257,264.5823624875761,201.49442141706487,76.77960843681156,112.77069562292523,68.98196704936512
146.29852707889188,351.72415985841013,265.5947109652309,203.8488042226541,76.53918958852125,112.77344064136443,68.77572360301502
145.67538286809392,354.4596710731208,266.6003367659946,206.3359283557776,76.32170121444813,112.74135446615104,68.55574106979353
145.05645957866204,357.0834600900343,267.5974233293806,208.94559344711777,76.12752651792802,112.67452357653164,68.32269657028908
144.44352637810303,359.5893131958155,268.5845895088044,211.66678538233765,75.95690861068458,112.57329470724407,68.0773122306848
143.83829430202022,361.9718125297973,269.5606491036886,214.4877664221447,75.80990177224467,112.43824357351454,67.82035216604838
143.24241855490024,364.2262615540966,270.52444523396804,217.39614004203483,75.68633561228367,112.27012992977896,67.55264132937424
142.6574572843472,366.34854300908796,271.4747647834593,220.37896027897597,75.58578929811519,112.06987009264132,67.27506752655002
142.08482606611153,368.3350443066813,272.41032066904694,223.42288060134888,75.50757460793365,111.83854161619507,66.9885561592491
141.52581827887127,370.1826114058546,273.3297324134261,226.51425171630459,75.45072761748325,111.57738847364458,66.69405422269476
140.98167285311152,371.8884482883282,274.2314555234475,229.63916858826445,75.4140114358552,111.28778899015227,66.39255226469594
140.4535986494213,373.45002770877255,275.11369527430367,232.78355520655583,75.3959363727041,110.97119634629438,66.08511748309657
139.94272968043816,374.86510945976437,275.9743569414292,235.93329931242315,75.39479686998786,110.62909649284447,65.77289336631269
139.45008590288745,376.13179451430847,276.81104891377214,239.07435709288367,75.40870848591189,110.26300139013195,65.4570693364506
138.97658940512304,377.2484756156936,277.6211193486696,242.1927870936507,75.43562990777265,109.87444297000917,65.13886303861543
138.5230857682347,378.21368546493454,278.40167449550336,245.27476525915958,75.47338735702198,109.46493497626176,64.81952983214504
138.09031380716507,379.0259817448078,279.1495420991039,248.30663962120565,75.51973809176289,109.03592455050166,64.50036457131144
137.67886073979548,379.6840007345052,279.8612113010391,251.27500570645688,75.57246767272979,108.5887818275145,64.18266975850423
137.28917812970474,380.1866420785271,280.53282309427533,254.1667651039624,75.62946963621654,108.12483512142528,63.867716390574245
136.9216477852183,380.53319539471556,281.1602492193913,256.9692160864636,75.68878849435848,107.64540803390234,63.556736474660525
136.57660877782428,380.7233470286673,281.7392329857358,259.67023024328023,75.7486511632157,107.15182940519837,63.250941507151055
136.25431680193992,380.75720362361244,282.2655306748877,262.2584252973075,75.8074870327433,106.6454316995077,62.95152549933346
135.9549094835244,380.63537100178763,282.7349836821608,264.72320300897997,75.86391415796892,106.1275479150292,62.659638383527124
135.67843046349967,380.3589526040668,283.14352566527634,267.054668557371,75.9166985829536,105.59949078637197,62.37636576793166
135.42486427754815,379.9294670941639,283.4872431661731,269.24356066677615,75.96471253380562,105.06251288130119,62.10274375782558
135.1941226216215,379.3489381951854,283.76253688220766,271.2812834780262,76.00690090649836,104.51778162397478,61.83978222935572
134.98601467642195,378.62025972915853,283.96624481117715,273.160002086229,76.04225212282263,103.96639745124666,61.588455578857385
134.800273949768,377.74752983036234,284.095609831132,274.87268548040606,76.06977132112185,103.40943076399458,61.349669252500945
134.63662920334247,376.736114893678,284.1481624779416,276.4130738045047,76.08846084197826,102.84792996008244,61.124245715740365
134.49483008325845,375.5926001754987,284.1216741343654,277.7756763141388,76.09731641302018,102.2829039481885,60.91294160663294
134.3745994310012,374.32478203901684,284.01425327067085,278.95584537499633,76.09533695029563,101.71533409564086,60.716458655206395
134.27558795977288,372.9416219394784,283.82450068641214,279.9498216712252,76.08153221607704,101.14623297338281,60.53542159317326
134.1973862987523,371.453101830249,283.55158542769624,280.7546779686343,76.0549194283801,100.57669819049521,60.37034757346396
134.1395476995227,369.87006168933084,283.1952238916194,281.36825599193713,76.01451624113625,100.00792713405325,60.22164218599691
134.1015627774229,368.2040557024602,282.7556427093972,281.78921717933736,75.9593373058938,99.44121223157497,60.08961531114989
134.0828200075076,366.46713814802575,282.23360298519174,282.017167284946,75.88839441971454,98.87792646500195,59.97448209722201
134.08262513328538,364.6715469923134,281.63053408906086,282.0527215832495,75.80070182289711,98.31948466275485,59.876341579071706
134.1002670496827,362.82937347209344,280.9486985930324,281.897484918127,75.69528619990717,97.76728304314528,59.79516597113854
134.13504371614655,360.9522755684172,280.1912025933307,281.5540013959213,75.5711942916561,97.22264763809635,59.73082416554731
134.18622535391253,359.05125820346683,279.361806935434,281.02566337968625,75.42749466760337,96.68682095488798,59.6831148235629
134.25302943685134,357.1366110631948,278.4647017098032,280.3165642955735,75.2632764935706,96.1609784884787,59.651771312176216
134.3346529343481,355.21802159512674,277.5044067710296,279.43137754675865,75.07764725901787,95.64624548853675,59.63644324259731
134.4303066139631,353.30466107117206,276.48578706620225,278.3753444243,74.86973311752259,95.14370794366464,59.63669128502742
134.5391916765537,351.4050940902558,275.4140453762309,277.1543200042656,74.63868923996097,94.65442323465126,59.652005737762494
134.66045767204713,349.5271594882545,274.2946474740523,275.7747525327714,74.3837189873366,94.17941622394183,59.68181851863997
134.79322393891357,347.6780111952435,273.1332566013453,274.2435592425796,74.10408870239412,93.71964591792924,59.72548894461047
134.93665620588885,345.8642577649181,271.9357072903298,272.56797158176875,73.79913214554581,93.27595496508535,59.782289319787765
135.0900013980232,344.09203158853967,270.7080114800483,270.75542351140916,73.46825612003667,92.84903754030313,59.85142430933812
135.25254203405433,342.36696235707916,269.4563917867065,268.81348478913463,73.11096411932839,92.43945974603993,59.932072624226755
135.42354699152176,340.6941375672851,268.1872706063071,266.74980432286713,72.72690745029959,92.0477202998872,60.023406829949835
135.60229196589034,339.07807665400856,266.9071607633942,264.5720678609179,72.31595433861268,91.6742917430455,60.12457765776828
135.78811357422356,337.52266540479167,265.62250936242634,262.2880114425096,71.87824544399673,91.31961915180932,60.23469743150549
135.9804120706424,336.03105450152134,264.33955628354585,259.9054768212567,71.4142127658662,90.98411301603603,60.352851567251086
136.17860052679922,334.6056542792403,263.0642034942116,257.4324215325407,70.92456909145743,90.66814980607904,60.47812024952955
136.38208000433872,333.2482854944578,261.80188281158127,254.87686308173937,70.41028044501839,90.37205783119747,60.609577879990354
136.59026917159346,331.96032540432793,260.5574701411145,252.2468640932071,69.87252499379308,90.09609178065375,60.7462766063232
136.8026211068565,330.74271485611814,259.3352881726886,249.55060873092063,69.31264489526701,89.84042534105265,60.88725010736721
137.0185814162243,329.5959424905922,258.1391379090212,246.79646055577848,68.73209912198563,89.60518028069616,61.03154485989699
137.23754201879368,328.5201418485882,256.97228574638626,243.9929192189511,68.13242073788784,89.39047857309573,61.17824148531051
137.45885700706384,327.51524196070415,255.8374364720543,241.14853374609723,67.51518196509534,89.19647026364449,61.32644244340226
137.68189188941543,326.58112356386937,254.73675989255005,238.27184287875176,66.8819750740636,89.02331147948124,61.47525456183028
137.9060282795595,325.71779818739066,253.67196338415656,235.37133593619563,66.23442431616753,88.87113149038781,61.62380370031822
138.13062295249296,324.9254794280463,252.6443566266908,232.45539551031246,65.5742341070814,88.74002987246797,61.77127092186015
138.35499758680047,324.20442608289113,251.65489195729046,229.53224346030558,64.90323950781301,88.63008895901005,61.916905745273986
138.5784835748674,323.5546903465266,250.70418307386842,226.60996510511796,64.22341617061255,88.5413743125633,62.0600033623603
138.80045183504964,322.97597448195773,249.79250172392568,223.6965881898317,63.536863286328774,88.47393353114163,62.1998831598541
139.0202796223569,322.46761954537646,248.9197886323757,220.80008626714886,62.84580937855433,88.42780751983969,62.33590118033869
139.2373051244332,322.0285935016411,248.0857101601661,217.92826793276618,62.15264343162141,88.40303155224123,62.46747799684471
139.45083253490677,321.65740056572463,247.28970647676908,215.0886598690751,61.45991982865292,88.39960387827436,62.59410234756642
139.66016313841595,321.35200774311215,246.5309607271216,212.28846784035738,60.77031121524642,88.41744238163288,62.71531095096752
139.86458822627253,321.1099044351283,245.80832366576254,209.53456763575622,60.08653909407156,88.45636333767048,62.8306833249134
140.0633498242305,320.9282334620373,245.12029086642067,206.8334577113658,59.41131520333387,88.51608180652943,62.93986421046163
140.25563713114144,320.80386084912413,244.4650764611891,204.191222670109,58.74729697080264,88.59620718125383,63.042576800174324
140.44063405100067,320.7334129153222,243.84075709883592,201.61358326059363,58.097049780842084,88.69623308710507,63.138601898596136
140.61754995231374,320.71336189652976,243.24541125923096,199.10597177931623,57.46301776320606,88.81555371031752,63.22775491923235
140.78559262082302,320.74009171392356,242.67716502295582,196.67352563074812,56.84751060491566,88.95351004469784,63.309902242768366
140.94393774878006,320.80991273504986,242.1341411987226,194.32102549431556,56.25270600936127,89.10941932129563,63.38500285539319
141.09175713126947,320.9191681560533,241.61439635017666,192.05286531806897,55.680654357102775,89.28255720300213,63.45312334553053
141.22827535926888,321.0644470042903,241.11589118284957,189.87306117323268,55.133274014470224,89.47212225781833,63.5144110132691
141.35277970401512,321.2427004029656,240.63651607012306,187.78527004030883,54.61233819098667,89.67722772899549,63.56906378114638
141.46458104305023,321.451213696301,240.17424706456796,185.7928067770135,54.11945628363231,89.89692153370721,63.617327617542124
141.56299551217398,321.68759570019733,239.7274087809815,183.89864997720255,53.65605020214432,90.13020156401744,63.65950191648751
141.6473723987587,321.9497961825637,239.29483939733294,182.10543746646562,53.22333175190579,90.37601519243783,63.69592048389557
141.71711298212387,322.2360133907401,238.87585803568157,180.41543993335924,52.82229091928192,90.63325965876999,63.72691683977403
141.77164589891,322.54450587015987,238.4701746191565,178.83049306078414,52.453700751908485,90.90078881296132,63.75281212179008
141.81040795208406,322.8734692476135,238.0778562939554,177.35193225665736,52.118137091696546,91.17741188570086,63.773934375596006
141.83287642843953,323.221024958025,237.6993046051245,175.9805990361176,51.81599765196898,91.46187653336371,63.79063182691912
141.83861267327768,323.58519592317504,237.33518014809107,174.71689156397073,51.54749993276114,91.7528553102193,63.80325444325129
141.82725404878326,323.9638207825905,236.98628227967617,173.5607661210098,51.31266112315378,92.04896022109098,63.812131729125085
141.79847306825496,324.3545634158344,236.65341483834663,172.51167075574313,51.11128714224212,92.34877260544087,63.81758467230096
141.75197963144944,324.7550979115801,236.33724661591307,171.56849337845748,50.942984845605054,92.65084962751142,63.81995938371018
141.6875769155735,325.16327441441626,236.03817316023796,170.72959475868714,50.807179998978214,92.95369730407666,63.819635700521594
141.60519080036954,325.5770997956236,235.7562132996509,169.99288628475122,50.703120345693705,93.25574214656137,63.81699809957996
141.50482683726835,325.9946313573179,235.49098960443496,169.35585998480943,50.62986598503798,93.55534267520937,63.81240870792127
141.3865107541981,326.41390194131543,235.24180128416526,168.81557088574948,50.58628373635717,93.85084383143212,63.80621771049793
141.25027776550823,326.8328418196466,235.00771568006084,168.36865942486293,50.5710601215377,94.1406255777486,63.79879203950892
141.0961939185083,327.24919240962316,234.78759006322605,168.01143779808095,50.58273021777765,94.4231119434792,63.79051728654793
140.9243502579884,327.66051913127967,234.5800187163274,167.73998609302345,50.619699797132206,94.69676443870942,63.781767949313654
140.7348282688351,328.064339208867,234.38327435246475,167.5502757297304,50.680252443475865,94.96008330106821,63.77288688495865
140.52769585168303,328.4582106602318,234.19530351466605,167.43837935264483,50.76257018846358,95.21160296335418,63.76419905836266
140.30305050795295,328.83970416959966,234.0137675046253,167.40067951601355,50.86478893428334,95.44987480451456,63.75603246048456
140.0610494927748,329.20638922195593,233.83608644329902,167.4339130631595,50.98506148073305,95.67346520033658,63.74871064713928
139.80188691127645,329.5559327988322,233.65947613409986,167.53504864562862,51.12159061119205,95.88099146012105,63.74252982436719
139.5257648472494,329.886190026617,233.4809757610988,167.70115151184936,51.27262876603418,96.07116842119935,63.737760430857996
139.23292022953797,330.1951511843329,233.29744019639216,167.92935751798018,51.436461022353775,96.24281873992403,63.7346738391822
138.92368407146657,330.48081383079574,233.10550784533157,168.21692562737164,51.61138547933921,96.39484479426477,63.733552109633955
138.5984973332616,330.74112264824817,232.9016319312852,168.56124719853665,51.795698970185974,96.52620276819832,63.734662059397905
138.25787743972236,330.97397135290043,232.68224211816926,168.95976941782448,51.98769083106401,96.63590307866107,63.73822721201819
137.9024104096653,331.1771621481637,232.44396049494227,169.40989567210144,52.18564560008777,96.72302268293708,63.744430771125764
137.53279722772302,331.3483271648338,232.1837247878103,169.90890259112336,52.38785316550021,96.78671060319793,63.75343333463358
137.14988516034384,331.48493322776653,231.89879135036276,170.4538523867191,52.59261797240417,96.82619022929049,63.76536958167583
136.75463270776768,331.58439369819337,231.58671584057998,171.0415058456324,52.79826099029332,96.84077042589018,63.78032747655248
136.34806445898033,331.6441754674427,231.24536874958838,171.66831082184615,53.00312039408443,96.82986168402861,63.79834854537315
135.93129365977487,331.6618723995999,230.87294867303876,172.33050376849718,53.205557598471714,96.79297830157833,63.819459735507095
135.50558581534608,331.6352945907901,230.4679569680107,173.02422639181546,53.40396489297034,96.72972472085098,63.843696107039236
135.0723690096457,331.5625047974676,230.0291508576774,173.74555331220853,53.596766706101015,96.63978915436965,63.87108476323731
134.63317663669469,331.4417156640858,229.5554989478901,174.49047444072335,53.78241135604678,96.52295065914527,63.90161977874296
134.18960810449963,331.2711232234296,229.04612690520057,175.254916761386,53.959362002600024,96.37907952973686,63.935269787848455
133.74335119323467,331.0488195798194,228.5002481349273,176.03477983762198,54.12610706398869,96.20812539255462,63.9720076465867
133.29619960615383,330.77282576000584,227.91713202762196,176.8259209031492,54.28119787842351,96.0101117920538,64.011817640118
132.8500100545325,330.44114956562146,227.29614782651922,177.62410526100433,54.42329045998146,95.78514734416015,64.05466920032966
132.40666205291862,330.05177334143576,226.6368267244936,178.42497435330887,54.551167461931506,95.53343686660035,64.10049450835935
131.96810404213298,329.6026170208634,225.93886193243577,179.22403348970406,54.66374811651967,95.25527189501113,64.14920070621251
131.53643971804902,329.09156267609234,225.20204256958712,180.01662980408491,54.76010893181458,94.95100906399335,64.20069662406573
131.11393814626658,328.5165031528968,224.42617812872047,180.79793020031153,54.83951929985378,94.62106746660596,64.2548935160405
130.70295969152278,327.8753469563506,223.61106062190345,181.56295262463226,54.90147384057654,94.2659504131483,64.31168146034977
130.3059024786361,327.1660417509854,222.7564594403847,182.30666788966852,54.94570490452814,93.88625913761163,64.37092614357132
129.9252173000792,326.38669230572236,221.86212141937938,183.0241077148276,54.9721692155308,93.48268238274545,64.43250577974494
129.56341445150807,325.53568499273746,220.92777251403967,183.71043044944687,54.98101125310717,93.05598478817143,64.49634734864826
129.2229982968473,324.61169691582154,219.95312150757667,184.36100571244998,54.97251988951272,92.60700957017224,64.56241961543577
128.90639169673614,323.61365911233185,218.9378526572736,184.97156679355777,54.947093545648215,92.13668134042291,64.63070206070647
128.6159429525183,322.5408542374769,217.88160938968093,185.53833419982857,54.90521063787467,91.64599831722465,64.70117963376161
128.3539863791113,321.3931473560164,216.78399409208484,186.05801062903953,54.847402209328386,91.13602673955288,64.77386881442165
128.12284582377742,320.171127055654,215.64461091537666,186.5277028379414,54.77424030390096,90.60790965857441,64.84882973602642
127.9247634344092,318.8760324188705,214.4631476867557,186.94486916603967,54.68634651102491,90.06287621841287,64.92614216612105
127.761852998781,317.50960126688545,213.2394444955507,187.30729005982062,54.584398068413705,89.50222748366629,65.00588474739493
127.6361267072722,316.0739828706471,211.97350510445222,187.61302236047322,54.469114188136295,88.92730055477743,65.08815665201361
127.54951637632668,314.5716795828632,210.66548557744113,187.86037807606203,54.34123251560686,88.33943555874059,65.17311569372845
127.50382071921548,313.00547803123675,209.31573285892793,188.0479856075697,54.201489559963285,87.73995568266504,65.26097916580889
127.500639140229,311.37845100937176,207.92489732223345,188.17487982153298,54.050604563454584,87.13014749147949,65.35198632034741
127.54138624969173,309.69404300513276,206.49406391943805,188.2405189343902,53.889261730209284,86.51123709109321,65.44637200678156
127.62736099230946,307.9560983466534,205.0248050930966,188.24473136247508,53.71809592278118,85.88439745893595,65.54437546288317
127.75975924491081,306.16875076941744,203.51912905641436,188.1876845244856,53.53769840019703,85.25083589765079,65.64625068042655
127.93960543586589,304.3362461002128,201.97940235971484,188.06991238516153,53.3486481745135,84.61193274598872,65.75224427450513
128.16769603074275,302.462772173329,200.4083145157031,187.89233442638042,53.15154299351201,83.9693241467024,65.86255954647505
128.44461114908435,300.55230021767716,198.80889648088305,187.65620785193215,52.94700072625121,83.3248827699518,65.9773475905115
128.77073274972796,298.60845035339935,197.18457426807205,187.36306300929186,52.735635582112224,82.68065478821221,66.0967256838404
129.14620697545504,296.63445281374305,195.53918363614062,187.01470296452592,52.51803437276644,82.03880666786246,66.22078231413758
129.57090216009732,294.63324866088084,193.87688136131138,186.613243860878,52.2947543614212,81.40157975383535,66.3495502602297
130.04444566718428,292.60763261961347,192.20200080496426,186.16109661715987,52.066346628678545,80.77124278103715,66.4829798630067
130.5663074441701,290.56029756488226,190.51894979474122,185.66086294021977,51.83338114740799,80.1500523488786,66.62094591249858
131.1358212776889,288.49380581918535,188.83218087932846,185.1152346059038,51.59645177892579,79.54022674061399,66.76327285986126
131.75212438545532,286.4106406905358,187.14619007757378,184.5269931363218,51.356178819540375,78.94391845531975,66.90973818196238
132.4141061182199,284.3133609789875,185.46549669946157,183.899086615932,51.113233536647456,78.36318195888686,67.06005060941321
133.1204183633086,282.20469333715846,183.7945921582572,183.23466695402726,50.868372133715496,77.79996762630292,67.21384242882473
133.86949173616622,280.08748086944394,182.13786558492944,182.53708601050846,50.6224528475801,77.25616654768064,67.3706955672928
134.65950086193948,277.96462716088104,180.49952246139082,181.81000457907217,50.376427587482105,76.7336709558076,67.53016899421675
135.48832074602674,275.8391457991004,178.88352190748392,181.0576291629573,50.13131524033828,76.23438557328596,67.69179534786761
136.35354608099374,273.7142120008695,177.29354921952665,180.28485267307116,49.88817025736305,75.76017706893195,67.85506852878682
137.2525543706486,271.59310007142665,175.73302794378031,179.4971813931427,49.64805788547133,75.31280702281569,68.01946332250381
138.18252834563407,269.4790777040807,174.2052163464322,178.70058484055235,49.41203980867123,74.89388934102955,68.18447881575935
139.1404163828751,267.37537347505,172.71344774717784,177.90137532435452,49.181167550005426,74.50487306390326,68.34965604659088
140.12289972766953,265.28518438064975,171.26143774569397,177.10606967689245,48.95647795523401,74.14702722010355,68.51455398317641
141.12642163784577,263.2116263398662,169.85347811199748,176.32122948996178,48.73898379096981,73.82141894759063,68.67872563212069
142.14724487556907,261.1576594287474,168.49445937182188,175.5534007103585,48.52965711938124,73.52890385621222,68.84173098115969
143.1814723675343,259.1261175714008,167.1898040972729,174.80919209192382,48.329414383561456,73.2701376873656,69.00316583691269
144.22504062028725,257.1198463365177,165.94536608849185,174.0953300848045,48.139117382961196,73.045584195502,69.16266316627303
145.27375553025144,255.14178121221659,164.76728190930152,173.41855067749444,47.95959262505334,72.85550142961226,69.31986708118268
146.32337708244398,253.19488442457367,163.66177218725198,172.78540596188472,47.79164745094765,72.69992693297314,69.47441759241343
147.3696757918191,251.28207338641823,162.63493932703287,172.2021392878856,47.636057769837954,72.57868270957407,69.62595906554324
148.4084261322493,249.40624486724215,161.6926211066861,171.67464858397082,47.49353432800877,72.49138900744941,69.77414216476217
149.43539568183397,247.5702976603155,160.84031360288068,171.2084329095037,47.36470268910909,72.43747078088319,69.9185994827109
150.44637326313145,245.77706751165454,160.0831202084226,170.8084736667385,47.250117557253304,72.41616883397417,70.05892291591843
151.4371993376283,244.0292701708745,159.42569823196374,170.47912355285584,47.15028826067822,72.42657942514444,70.19468151160375
152.4037692777735,242.32953097421117,158.8722259486762,170.22405382591015,47.06568122856579,72.46771032746183,70.32546935710307
153.34205085840057,240.68040689836135,158.42639978525045,170.04620978055056,46.996707318196506,72.53850746478349,70.45093055585612
154.2481498304422,239.08433500136903,158.09143017583125,169.9477356460797,46.94372654283849,72.63783562844768,70.57073889909428
155.1183775875535,237.54360399306682,157.87001655283953,169.92992900743647,46.90706991716258,72.7644510163272,70.6845697500455
155.94925946092667,236.06040042605827,157.76432642224785,169.99330054417564,46.88704713510255,72.91700875558439,70.79210291111916
156.737503296713,234.63681543766313,157.77601306259012,170.13769979539143,46.88392657477357,73.09410128637654,70.89304315673915
157.4800008599716,233.27474525184482,157.90624411736695,170.3623839910289,46.89790352552536,73.2942839919276,70.98711947820094
158.17387329165254,231.97579863077672,158.15566857785916,170.66599447445202,46.92907567874743,73.51607231453859,71.07406033123107
158.81649435461446,230.74131336992275,158.52433440844501,171.04654855927072,46.9774348243581,73.75794389761415,71.15358414384939
159.4054596897597,229.5724059045655,159.01166472281395,171.50154269658088,47.04287121399708,74.01836044537811,71.22542562024661
159.93855267144923,228.46993580075178,159.61654003931093,172.0281062574954,47.12517813550209,74.29577760251878,71.28936452270739
160.41374688230832,227.43442057691234,160.3374144658437,172.62309145686825,47.22405668064061,74.58862463989296,71.34521829787475
160.82921223106274,226.46603472458477,161.17238429256716,173.28311439808593,47.339130160013674,74.8952839100471,71.39281004371641
161.1832870343211,225.56470903313246,162.11919470066385,174.00461431199477,47.46995904628497,75.21410998090411,71.4319537543174
161.47444888823853,224.73019244141034,163.17519855176803,174.7838888434363,47.61604343311807,75.54348143400789,71.46247127871472
161.70134540400463,223.9620137360824,164.33727038485782,175.61705096354552,47.77682359468607,75.88183240050425,71.48421090343257
161.86287153469,223.2594619002218,165.60170305837204,176.49997852998118,47.951690702961514,76.22764087191726,71.49704011230146
161.95821189107943,222.62166023106573,166.96417092066204,177.42834537191482,48.13999569477932,76.57941322468429,71.50083133790326
161.98682466460954,222.0476253957284,168.41982059753815,178.39769219101476,48.341040020399944,76.93569438393087,71.49547298072898
161.94843358947782,221.53623149414292,169.96343468170122,179.403436005823,48.55405415161789,77.29508101264491,71.48089448098754
161.84306062054048,221.08618362254253,171.58956197028073,180.44082173909487,48.77818933064243,77.65621947377808,71.45706785828182
161.67104359786651,220.6960817373393,173.29256529383832,181.504917167804,49.01254583211222,78.01780561634537,71.42398497580163
161.43299650402608,220.36447056064432,175.06659648431338,182.59068298845338,49.25622639996979,78.37859471638393,71.38165071579279
161.1297576919654,220.0897955269183,176.90552942377818,183.6930260914319,49.50837098817253,78.73740300223379,71.33010996082884
160.76239179601973,219.87036188814815,178.80288512399716,184.806779707032,49.76815165123783,79.09308968473307,71.26947361839666
160.33223042994865,219.70436999452843,180.75179045802807,185.92668070449255,50.03474758998745,79.44453829663695,71.19990921843629
159.84087433776614,219.58994241336725,182.74502061191507,187.04740364347956,50.307323019157444,79.79066462777162,71.12161258929913
159.29013016919717,219.5250878597569,184.77514156156434,188.16359981745603,50.58501495981804,80.13044393357053,71.03479840721162
158.68194080852507,219.50769369752913,186.83473238968534,189.26988322635808,50.86692711519246,80.46291831033172,70.9397114366486
158.01836727291885,219.53559891638622,188.91665276996653,190.36080532057326,51.152122263737866,80.78717148701618,70.8366255873342
157.30160296344133,219.6066429217941,191.0142717965108,191.43089119657074,51.439617318953566,81.10230049358103,70.7258170399607
156.53396175487308,219.71862054752012,193.1215559482695,192.47471880394147,51.7283904918379,81.40740413806913,70.60753942720072
155.7178412423343,219.86923089975102,195.23300004284084,193.486960021128,52.017392738312736,81.70157584634046,70.4820271459171
154.85572225161948,220.05609304878854,197.34349227260734,194.46236702419145,52.305547550963325,81.98389185676184,70.34951034904509
153.95021334866775,220.2767637731356,199.448228909602,195.39576329180474,52.59173753397173,82.25340808918676,70.21020983014706
153.00406973443958,220.52868494464227,201.54270830564553,196.2820843487675,52.874789330642784,82.50917369796313,70.06431735965703
152.0201528874949,220.80911851843803,203.62274125836277,197.11645010563586,53.15346869490479,82.75024560462585,69.91199877522125
151.00138960654297,221.11517790273047,205.68442025653988,197.89421043268135,53.4264883872765,82.97568913225513,69.75342860226915
149.95077849883643,221.44393564688363,207.72403313543802,198.61095412512034,53.69252055955162,83.18457788919133,69.58881606576975
148.87140280654933,221.79247576449995,209.7379333057963,199.2625422165999,53.950209170029346,83.37601514763459,69.41839270748702
147.76639653994192,222.15786484447062,211.7224140903558,199.84517916582632,54.19819745507109,83.54916820059256,69.24238700262774
146.6388955504514,222.53716297586982,213.67364889880798,200.3554508398876,54.435177813793324,83.70328451822178,69.06102780185667
145.49204501678608,222.92751418245672,215.58770318951215,200.7902936307061,54.6599335120128,83.83768081064136,68.8745744738955
144.32905553632264,223.32619564284843,217.46054990491518,201.14695741035828,54.87134355046147,83.95172408985164,68.68333130218372
143.15322214443353,223.73056603950394,219.2880295888073,201.423030008768,55.06836288958675,84.04482020394336,68.48762678876366
141.96787759390446,224.1380188961233,221.06576998052066,201.61649148682622,55.25000184379318,84.11640813596433,68.2877914558725
140.77635369118053,224.54601032914812,222.78911277700806,201.72571743198068,55.415315451431624,84.16595180851989,68.08417040271956
139.5820010568048,224.95207411466626,224.45307629731815,201.74942135107025,55.563407949727065,84.19293191134813,67.87715476325043
138.3882121861943,225.35375659506187,226.05236080213083,201.68660094188346,55.69344732795591,84.1968492875804,67.66718667439135
137.198386365213,225.74855498478198,227.58139553432264,201.5365402703433,55.80467401760262,84.1772354094091,67.45472757844992
136.01588090603232,226.13394202128694,229.0344266028729,201.29884472565885,55.896397030902165,84.13365167468608,67.24022650819005
134.8440361723735,226.50741191842178,230.4056342886175,200.97345634907512,55.96798585250278,84.0656786539488,67.0241199191813
133.68625819349205,226.86645594885306,231.68924313440348,200.56067571173472,56.018869004642234,83.97291819157175,66.8068487374758
132.5460474724882,227.20851230125396,232.87957869416917,200.06123914824443,56.04854157932445,83.85501598756674,66.58885813134631
131.4269347779506,227.53099226367604,233.97105937819663,199.47638747986198,56.05657233829539,83.71168287732941,66.370580189245
130.33241980567965,227.8313666159469,234.95816860144546,198.80785183759315,56.04260527950811,83.54269865605214,66.15243070225594
129.26599962858134,228.10720600115434,235.83547821054623,198.05781741842614,56.006361752830806,83.34791291307276,65.9348256335271
128.2312338565751,228.35616651974405,236.59774469240386,197.22894703472627,55.947642118299605,83.12726244362665,65.71818545611104
127.23173830437732,228.57602673299496,237.24001145673694,196.32442185431137,55.86631922668825,82.88079638583345,65.5029133841508
126.27112288985087,228.7647948914933,237.75765792547102,195.34790409833371,55.76232623649873,82.6086842286632,65.28938192801378
125.35299674679463,228.9207635200817,238.14643457787395,194.30342458950742,55.63564621050653,82.31120795320454,65.07796195855231
124.48106077931598,229.04246489701046,238.40253639788426,193.19529953069156,55.48630615932129,81.98876006339026,64.86907062232568
123.65915563221203,229.12865023050315,238.52269393000546,192.02812834794872,55.314381286661956,81.6418470146097,64.66318403107819
122.89120572815737,229.17836214401913,238.50425086546727,190.80679147722557,55.120013263537324,81.27108115687271,64.46080694844643
122.1811691907177,229.19098970625424,238.34523243326316,189.53637539279788,54.90342913659533,80.87715940189844,64.2624449595431
121.53305546501812,229.1662270968678,238.04439028128192,188.22209253104484,54.66494449077645,80.46084338237401,64.06860783408932
120.9509159638398,229.10402662959314,237.60118273843221,186.8692877547415,54.404954829926446,80.02295585237968,63.87981862751122
120.43875913155892,229.00461123623785,237.0156939387866,185.4834853255917,54.12393649264563,79.56438964242476,63.696595183083275
120.00048881740011,228.8684606638686,236.28856213175698,184.07037076432826,53.82246850072689,79.08610940906964,63.51941511107622
119.63991490277701,228.69621150566678,235.42098297632995,182.63571868751956,53.5012574355805,78.58913735250795,63.34870123046994
119.36073513848304,228.4885670520986,234.41476650077942,181.1853614381145,53.1611415764883,78.07453454331268,63.184834700026926
119.16642306692222,228.24632687301974,233.27236173665082,179.7252030353317,52.80307191829544,77.54338921459585,63.02816305722861
119.0601102504967,227.97048259241404,231.99682837745613,178.26118845428113,52.42808114490146,76.99680763776414,62.87898286106254
119.0445646785913,227.66223592582702,230.59183119376257,176.79919867819817,52.037252687314066,76.43589896087664,62.73752388809226
119.12222930668192,227.32293036767433,229.0616813478608,175.34493033580264,51.63169911661267,75.8617644228542,62.603966608208175
119.29520737102607,226.9540317438169,227.41133619721595,173.90379777601396,51.21255889684228,75.27551696580083,62.478475713385755
119.56518146880825,226.5571983436834,225.64630700592664,172.48084487241135,50.78102299679128,74.67832835692714,62.3612066245165
119.93336806790332,226.134317458136,223.7725449237635,171.08066532609297,50.338380816711364,74.07145895516597,62.252280760201344
120.400544088942,225.6874565495944,221.79637356288748,169.70736614146404,49.88604502221119,73.45624502204524,62.15177056986684
120.967054374139,225.21885174516368,219.72444180381487,168.3645907482954,49.42553727671318,72.83407096971962,62.05971923973436
121.63274629398377,224.73098938089825,217.56365075681694,167.05555241137625,48.95846014231431,72.20635664226545,61.976166298655556
122.39691233676913,224.2266465889982,215.3210739794789,165.78301917460243,48.48647631668518,71.5745553722606,61.90114305957323
123.25832161571402,223.7088144700997,213.0039100115106,164.54927963743637,48.011290305744744,70.94014885725875,61.83465286833096
124.21528995137143,223.18062176063734,210.61944821274187,163.35619263797898,47.53462363490092,70.3046449874216,61.77667655342777
125.2656871489553,222.64533714111218,208.17500497479782,162.2053414081043,47.058185548922054,69.66959047563799,61.72720214841485
126.40688569786388,222.1063604017525,205.67784392068526,161.09817321820037,46.583648484056354,69.03658521001698,61.68623692113081
127.63575075950463,221.567162292804,203.1351323119948,160.0360583899857,46.11263501701038,68.40727150010706,61.65378225322865
128.9487058017179,221.03126807609783,200.5539373661905,159.02033656492662,45.646713719948025,67.78330128394074,61.62980126091359
130.34178952183507,220.50229359428934,197.94121024588975,158.05239064466306,45.18739598417029,67.16631847182781,61.614216032138465
131.81065225470937,219.98390918710757,195.30373969509094,157.1337081214706,44.73612840566841,66.55797229639624,61.606929528552826
133.35055803424862,219.4796960276502,192.64812008686036,156.26588936900788,44.29427749397885,65.9599289741938,61.6078336729206
134.95643931508224,218.99301545900306,189.98075773654924,155.45060603497387,43.86310652108137,65.3738547452788,61.61678897595503
136.62294251622967,218.52698761070926,187.3078763253963,154.68953307467908,43.44375048739765,64.80138999056551,61.63360786854577
138.34441378990545,218.08452030721153,184.63548855008227,153.9842611938186,43.03719604373754,64.24413962392,61.65806983467865
140.1148809320987,217.66827748748625,181.9693653289997,153.33623127147584,42.6442701288044,63.7036691798091,61.689946831251085
141.9281011249191,217.2806064169522,179.31504634941382,152.7467736259671,42.26564025126389,63.1814860919023,61.72900295576529
143.7776431290064,216.92353783905446,176.67787008768894,152.21722698999523,41.901831443473796,62.67901827691364,61.77497596182765
145.65692185986296,216.59886185073327,174.06296610104053,151.74899033127906,41.5532590722158,62.19762136622954,61.827576812500816
147.5591845853081,216.30815135444786,171.47521341454913,151.34345568909998,41.22025974073852,61.73860905003912,61.886510763957475
149.47752833120634,216.05268561552867,168.91923280320174,151.0019311007361,40.903101999323276,61.30326313092325,61.95148452308621
151.40497537766097,215.83338176658182,166.3994353497662,150.72562529577772,40.601981248929086,60.89281136921376,62.022183919051855
153.33453616878003,215.65080718214017,163.9200604309812,150.5156278547678,40.31701949190062,60.508407311427646,62.09825583013067
155.25920916624847,215.5051966498279,161.48516051233923,150.37282691432702,40.04828087927145,60.151129975710596,62.17932982782559
157.17196787979722,215.3964087885834,159.0985863842675,150.29783694184874,39.79579274159546,59.821984059812124,62.26506144820019
159.06580013618827,215.323893357148,156.7640198649683,150.29103328962094,39.55956207792963,59.52188556446206,62.35514724302083
160.93377617544823,215.28673561939462,154.48501106201672,150.35264705588148,39.339588589566524,59.25165123818232,62.44930133733075
162.76907553139307,215.28370974754125,152.26496597719293,150.48278559492763,39.135870186119845,59.01201993588178,62.547234417904576
164.56496836311945,215.31327567297657,150.10710988123273,150.68135619855317,38.94839682392939,58.80369289293671,62.64866175952722
166.31481621544737,215.37358694670797,148.0144834190273,150.94799717244337,38.77714386243942,58.62734551721667,62.75331491070285
168.01211943553258,215.46256887587674,145.98996171951103,151.28207627144855,38.62208206721716,58.48360094659656,62.8609267774554
169.65055975499368,215.57798402891623,144.03624145140805,151.6827176048344,38.48320682635403,58.37300807575132,62.97120718767622
171.22399917205556,215.71741302165222,142.15579859425625,152.14883340554334,38.36056596280094,58.296044905086696,63.08384865383349
172.72647580101858,215.87823136707615,140.35087106085462,152.6791787745479,38.254260785089,58.253115860178426,63.198561981413434
174.15225077071955,216.0576660075314,138.62346742892282,153.2723995905293,38.16441992486891,58.244519915333576,63.31509673587167
175.4958854423597,216.25286550189153,136.97535415588783,153.9270187517709,38.091169932389455,58.27041517005595,63.43322242444042
176.7522822615679,216.4608943487957,135.40803060034128,154.64137060318956,38.03462079309421,58.330819999278795,63.55270203834655
177.9166809046068,216.67870036787096,133.92275533865345,155.4135518860198,37.994861309701,58.42564915979195,63.67329572008699
178.98466975862544,216.90315432464791,132.5206234771017,156.24143783831636,37.97195044329664,58.55473725689054,63.794783003888654
179.9522354412141,217.1311379918894,131.20261048135814,157.12272845396876,37.965899846254544,58.717822172734124,63.916963797482964
180.8157968075023,217.35957282246488,129.96952985115635,158.05495962502,37.976649562380736,58.91451949235312,64.03963278222604
181.57218809437325,217.58537929922107,128.82195381269247,159.0354859477196,38.0040402846313,59.14432549413026,64.16256562240399
182.2186383904497,217.80547072572392,127.76018650612893,160.06148565679564,38.04779220764125,59.40663824388186,64.28554026319195
182.75280279246928,218.01682017689265,126.78430479598269,161.12998299835513,38.107506289057866,59.70076084352944,64.4083636105009
183.17281608308613,218.21651035752012,125.89418914508983,162.23782893863665,38.18268918921505,60.02588678614993,64.53086569081694
183.47729768400328,218.4017154412047,125.08950970370833,163.38162660209116,38.27277743621653,60.38110155715464,64.6528737235473
183.66530649803406,218.56969706008027,124.36974191929225,164.55768413762468,38.37714031242466,60.76540355333447,64.77420817618548
183.73631325003993,218.71786716671144,123.73424509485321,165.7620789822682,38.49506866500273,61.17770991794762,64.89470631776835
183.69021744842775,218.84383134202358,123.18231667662076,166.99078831374572,38.62576499201104,61.61684114500881,65.01423407506346
183.52735852586258,218.9453463864367,122.71317435485481,168.23976423557372,38.76834028601858,62.08152409774955,65.13266374407188
183.24848440392924,219.02027418692361,122.32593417598143,169.5049400922028,38.92181576911741,62.570438692267544,65.24984589652524
182.85471296674552,219.06661633866943,122.01962539471941,170.78224480727286,39.08512574558982,63.082274824829476,65.36561390097972
182.3475258382521,219.0825668940922,121.7931894988565,172.06762151798918,39.257119962895864,63.615745903550774,65.47981500280413
181.72877093291132,219.06649005993563,121.64542824887523,173.35700785190863,39.43656580278147,64.16955618050048,65.59232420624575
181.00063464162767,219.01686646863334,121.57496154074204,174.64633551726615,39.62215232973453,64.74236824370499,65.70302449519622
180.165606684796,218.9323167856259,121.58027016645636,175.93160823461844,39.81249862934583,65.33279554238406,65.81179093408693
179.22649163363133,218.81169103970115,121.65978395472146,177.20897813340022,40.00616495538026,65.93939771179127,65.9185107185986
178.18645236672617,218.65410842400811,121.81190160612586,178.4747234363536,40.20166419935347,66.56066037841778,66.02311378535197
177.04901148864568,218.4589343464929,122.03491265770955,179.7251637625786,40.397476239796674,67.19498188682078,66.12557124622705
175.8179923671876,218.225808786658,122.32690366057484,180.95661537646663,40.5920711168268,67.8406977402594,66.22586728270494
174.49747068274579,217.95474362083118,122.68573192068271,182.16542644472938,40.78394042129561,68.49612928143755,66.32398547338182
173.09180122384552,217.6461552529641,123.10905906470258,183.34803919239508,40.97162687841548,69.15960709901447,66.41992000614309
171.60568486388772,217.30077819327897,123.59436825742844,184.50101165106253,41.15374394801593,69.82945179021011,66.51367856317829
170.04417983616298,216.9195835213894,124.13893716996567,185.62102138157985,41.32898230862844,70.5039503990643,66.60525804565124
168.412635395537,216.5037925290779,124.73981690754698,186.70492930016928,41.49610387447042,71.18136477810899,66.69462294985674
166.71662469416876,216.05489588407534,125.39384317895426,187.74989067825118,41.653934390715655,71.85995810094737,66.78172071296203
164.9619235314271,215.57458093161677,126.09764291753774,188.7534021713037,41.80136717077444,72.53800167612064,66.8665183094255
163.15448832507855,215.06463597124687,126.84761521773008,189.71325495939766,41.937374621393936,73.213760759763,66.94901341783815
161.30039106650568,214.52694936753275,127.63992776236506,190.62749488783098,42.0610155947348,73.8854976779307,67.02921012252249
159.4057527464729,213.96357614322375,128.47056424117255,191.49443908900815,42.17143577384947,74.55150371622311,67.10709953797966
157.4767335583701,213.37674503662433,129.3353814726425,192.31267757221602,42.267868272618685,75.21012052629133,67.1826744559249
155.51955700629793,212.7687926235261,130.23011808406304,193.08102685938113,42.3496411139501,75.85972365275435,67.25595294868775
153.54049338950927,212.14214420014164,131.15037977166972,193.7985005226986,42.41618944385308,76.49869741500922,67.32697309840053
151.5457934812814,211.4993734412126,132.09167573541967,194.4643181380688,42.467063998178794,77.12544683761686,67.3957695166292
149.5416441040102,210.84322497890523,133.04950773259716,195.0778923559144,42.50193287813784,77.7384420893209,67.46237508722864
147.53417750408155,210.17655580618126,134.01942851506863,195.63877804045316,42.520584361279404,78.33624453156659,67.52685368210025
145.5294729587917,209.50230653347054,134.997029965509,196.14663729759604,42.52293716098354,78.91749371537107,67.58931908735566
143.5335061972867,208.8235492748829,135.97791726407385,196.6012480855717,42.50905441859128,79.48088817739279,67.64991372007223
141.55209678733215,208.14349649843155,136.95771858424956,197.0025232572573,42.479156952900006,80.02518142475142,67.70877870202263
139.59090668846133,207.46541071025396,137.93210455561317,197.35049422698143,42.43363210661616,80.54917578056057,67.76605490658886
137.65545410173442,206.7925239738985,138.89678544860584,197.6452630023062,42.37302998712274,81.05170392011208,67.82190384231318
135.75108030577738,206.12804204377343,139.84752327123556,197.88696807442636,42.29804266332924,81.53162022157956,67.87650533975139
133.88288922323392,205.47514670440918,140.7802094117094,198.07576886583644,42.20947073641431,81.98782387571266,67.93002373894069
132.05573932566992,204.83692786641294,141.69096815571646,198.2118062369687,42.10818629290345,82.41929695470151,67.98258201872859
130.27429817616897,204.21632313543935,142.5761950578666,198.2951432873023,41.995101994851034,82.8251185142158,68.034270389571
128.5430731722286,203.61612658191174,143.43252157784212,198.32575948846556,41.87115770650216,83.20445085297287,68.08516366880993
126.8663765065297,203.0389883381615,144.25678627622312,198.30362525809318,41.737338390946476,83.55653074119988,68.13531250143132
125.2482968834404,202.48733880690878,145.04605485451341,198.22877131833053,41.59471900687724,83.8806755275088,68.18471734874753
123.6927295177343,201.9633163159288,145.7976393988463,198.10129134957367,41.444503550928445,84.17627945122712,68.23331898824154
122.20340022291707,201.4687858535442,146.50906832149767,197.92135888607532,41.28803609351178,84.44278886758478,68.28101017223882
120.78382127908769,201.00538840793476,147.17804250184287,197.6893299070381,41.126792068410516,84.6796816829348,68.32763922868162
119.43723292199174,200.57452007617812,147.80244221065834,197.4058425404523,40.96235637550487,84.88648403837152,68.37299165171346
118.16661532191328,200.17728393371456,148.3803741950578,197.07182447315068,40.79639011709159,85.06281667202889,68.41677755991344
116.97474780822881,199.8145343441234,148.9101880266604,196.68847737267214,40.63060190169582,85.20842250739746,68.4586556658134
115.8642177763726,199.48699610769697,149.3904472914743,196.25732046519158,40.4667408583586,85.3231519336501,68.49827734047838
114.83736188071437,199.1953186376306,149.81991236197382,195.7802350622617,40.30660790912186,85.4069337719241,68.53530448519604
113.89622622425972,198.94003881185668,150.1975527034089,195.25943173528267,40.15206102363629,85.45975979531299,68.56939109617257
113.04259219280625,198.7215710074612,150.52254082379588,194.69739757125063,40.00499867071566,85.48167716227532,68.60016899122782
112.27800193687575,198.54025855876273,150.79420387228762,194.09690975560574,39.8673288904475,85.47277346795815,68.62726673766188
111.6037211106466,198.39638430494327,151.01197069050218,193.46106174372983,39.740931555714134,85.43316332840583,68.65033640557489
111.02069267678698,198.2901128071643,151.17534976859702,192.79320403562804,39.6276148868476,85.36300297513938,68.66905075751541
110.5295713827284,198.2214738992749,151.28392048320174,192.09682526940904,39.52907035483397,85.26253012084466,68.68307947337526
110.13081187959362,198.1904263938881,151.33730730541475,191.3754716087947,39.446831190587886,85.13208805556171,68.69208255434903
109.82469601741991,198.19689135607356,151.3351519625132,190.6327265166451,39.38224036882169,84.97211183588182,68.69572926237699
109.61127655362074,198.2407093411302,151.27711912468922,189.87218057638805,39.336433132802604,84.7831053493662,68.69371063083199
109.49034113941119,198.3216340022177,151.1629277588538,189.0973544776676,39.310330921216874,84.56564375403609,68.6857252499436
109.46145192440531,198.43940915803833,150.99236347758998,188.31164520322977,39.304636772332266,84.32039094978336,68.67146313569137
109.52398124461793,198.59380821512377,150.76525213471942,187.51836547089886,39.31982774845527,84.04809668509512,68.65062191820759
109.67708313622494,198.78457416603672,150.4814243487674,186.72082210598504,39.35614771788743,83.74956751970305,68.62294627747795
109.91966571304984,199.01137185631586,150.14071730158182,185.9223309748392,39.413602552595,83.42563842140878,68.58824675793912
110.25042034660403,199.27382075867501,149.743018473343,185.12617729099316,39.49196169386044,83.07716118220979,68.54638227435686
110.66784763114771,199.57151276596107,149.28830003827898,184.33559406982909,39.59077732424996,82.70499766632983,68.49724276773783
111.17021766647096,199.9039580450691,148.77660843319504,183.5537481147387,39.709422812905615,82.3100049149685,68.4407670542723
111.75552035613877,200.2705593251304,148.20803563596715,182.78368158042423,39.84713029857981,81.89302780303555,68.37697670642281
112.4215006809879,200.67067032847382,147.5827060785853,182.02823282311834,40.003007577077,81.45492545917794,68.30598185001905
113.1657553978197,201.10363131922642,146.90077317960564,181.2900146832425,40.17603755345815,80.99661930845569,68.22796099994477
113.98577532508509,201.56871998675618,146.16240634156762,180.57146897437812,40.365079888072664,80.51911854878956,68.14316059765409
114.87891461276367,202.065115001119,145.36777259339388,179.8749130809618,40.56889176545,80.02350862639219,68.05192489674087
115.8423892971262,202.59192536315376,144.5170354879643,179.20252380526972,40.78616919095851,79.5109307215265,67.95471016293716
116.8733358571746,203.1481936969183,143.61037761904518,178.55632921393507,41.01559858504129,78.9825733891511,67.85205590348708
117.96883581634891,203.7328324341135,142.64802172335692,177.93825566311193,41.255904806235115,78.43966632777052,67.74454959055394
119.12586360717391,204.34459886210593,141.63022845162646,177.35014971123204,41.505880100989266,77.88346102330571,67.63282953914064
120.34123819494386,204.98216289974806,140.55728244508174,176.79372418099732,41.764389761878505,77.31520908562428,67.5176128295196
121.61163507244932,205.64415714783848,139.42949308449604,176.27050844762203,42.03036283331769,76.73616665749785,67.39969729993429
122.93360262940634,206.32914141348078,138.24721762554577,175.78186083744603,42.30277156558915,76.14762443288744,67.27992435727808
124.30352385337198,207.0355867220603,137.01088686763262,175.32897867052836,42.58060421635818,75.55092356606228,67.15914559124741
125.7175658177559,207.76194414683079,135.7210119355894,174.91286299006623,42.86284565976894,74.9474342282966,67.03822606942612
127.17169154300706,208.50668843095178,134.3781797917079,174.5342986623394,43.14847247645231,74.33852360995844,66.91805836836646
128.6617172278215,209.26826584280732,132.98306243948284,174.1938784108693,43.43645336907025,73.7255519710783,66.79954728213505
130.18333135150908,210.04504841805894,131.5364424664372,173.8920063943579,43.7257459838073,73.1098945788501,66.68357867529146
131.73206124293228,210.8353628622228,130.0392295541807,173.62885054422722,44.015290914287874,72.49295032719748,66.57102100759057
133.30326243348472,211.63750404343205,128.49245361667914,173.40431345491757,44.30401251287375,71.87612002852431,66.46276348308768
134.8921677733949,212.44967676336654,126.8972545528948,173.2180706358796,44.590835323132225,71.26077909872647,66.35973663682324
136.4939349557561,213.26995696498395,125.25489771019167,173.06960724595515,44.87470543161967,70.64826250368793,66.2628814507186
138.10363762974663,214.096328595719,123.56681219157825,172.95818275604725,45.15459882606227,70.03985144185165,66.17309889480504
139.71624586646152,214.92670864491052,121.8346155043045,172.88279101860417,45.42952442794498,69.43675302387729,66.09122920388307
141.3266744132332,215.75890432068357,120.06010512433554,172.8422487611139,45.698540870031785,68.84008437564705,66.01806339602993
142.9298821584487,216.59058459782844,118.24524110673269,172.8354014277813,45.96078417618885,68.25087611288474,65.95434477047078
144.52092650191116,217.41931934719076,116.39214379970134,172.86126242564052,46.21548890610353,67.67008808646389,65.90073920805429
146.09494379367834,218.24260708165178,114.50309421002274,172.91899031521658,46.46199376980322,67.0986139086721,65.85780658609133
147.6471343598025,219.0578435758437,112.58051611035874,173.00781820194436,46.69974142426655,66.53727072140717,65.82600469674166
149.1728039396094,219.86231463744176,110.62694793490523,173.12703058466843,46.928287245220204,65.98679474177865,65.80570616862316
150.66740869768466,220.65326026097435,108.6450315382327,173.27593043976023,47.14731394606437,65.44785004235327,65.79719274087904
152.1265482635691,221.42791877762127,106.63752540021261,173.45374397349497,47.35663826654212,64.92103651019876,65.80063381217632
153.54595092771282,222.18349271590026,104.60731687288185,173.65952532427622,47.55620362674202,64.40689093692332,65.81608743597977
154.92152681046696,222.917124117525,102.55741070534839,173.89213624096385,47.74606430757986,63.90589564739627,65.84352974048703
156.2494656674619,223.62594535425183,100.49090629167426,174.15027428972908,47.92637019257001,63.41850844441542,65.88287339490115
157.52627938029437,224.30712921528655,98.41098565808284,174.43246850773866,48.097350243275024,62.945199926285966,65.93395196727018
158.74876210897403,224.95788129825775,96.32090641922119,174.7370286428688,48.25928851846918,62.48646510575843,65.99649915001953
159.91394515650632,225.57545202029013,94.2239802910109,175.06200646240234,48.41249718349404,62.04280336603607,66.07015960991852
161.0190976467299,226.15721337600303,92.12353959964604,175.4051943599932,48.55729712341394,61.61469645094795,66.15452176343607
162.0617315924804,226.7007085201113,90.02291852374519,175.7641293548134,48.694015109868495,61.202600121083805,66.2491302990894
163.03956649829695,227.2036197634795,87.92546590103352,176.13610653833175,48.82299586604106,60.80693222080291,66.3534680682991
163.95049155316286,227.66374011789998,85.83456728681332,176.5182530117639,48.94461074843249,60.428046133474005,66.46694655002548
164.79259227378128,228.0790042897871,83.75363999667073,176.9076520453705,49.05924885495989,60.06621462543248,66.58893240828125
165.56422268330567,228.44750601675148,81.68609977348561,177.30142994875555,49.16729595334111,59.72166055151717,66.71878130221428
166.26403251281218,228.76745557919864,79.63533018538841,177.69675011594435,49.26910980001756,59.39462432605887,66.85583833082042
166.8909220834841,229.03715232090255,77.60467375991605,178.0907550651124,49.36499406503636,59.08540869925904,66.99941560937282
167.44399918333144,229.25501851753776,75.59742979841162,178.48054113542634,49.45517340412112,58.79436959492611,67.14879279474725
167.9225988516294,229.41961919672,73.61683739859826,178.8631880818492,49.53977988204604,58.521884391914234,67.30325127682941
168.32632690862243,229.52961649409158,71.66605338248591,179.23578422906198,49.618868631094216,58.268334796937076,67.46209951909795
168.65505350781646,229.58373529357326,69.74815400133193,179.5954127587277,49.69246488414677,58.03410135405582,67.624659317336
168.9088621443656,229.5808095110329,67.86615891414255,179.93914105149688,49.76061860698141,57.819545321978346,67.79023883414122
169.08802517924056,229.51984379032032,66.0230393779973,180.26404779194786,49.823444016423586,57.62497433530136,67.95813096682592
169.19302604945253,229.40000035431152,64.22169056021238,180.56725738775157,49.881132172950245,57.45061416097133,68.12763286885288
169.2245695806107,229.22054618067182,62.464894890839936,180.84594044701376,49.933933975904615,57.296599402422174,68.29805019445644
169.18354700212166,228.98086061736976,60.755311889081774,181.09730288580175,49.982131286137864,57.16297098017052,68.46867366409674
169.07100071768292,228.68050512331158,59.0954912440124,181.31862615055863,50.0260154865008,57.049669123626664,68.63875868865884
168.88812617091932,228.31925569355042,57.48787442149966,181.50735240652912,50.06587112678703,56.956531722048325,68.80753445694134
168.63627549829954,227.89706211735177,55.93476911916427,181.66112783106277,50.101961441225065,56.883310716329575,68.97422437897707
168.31692450579115,227.4140183684925,54.438318675167466,181.7777667238522,50.13452189733429,56.82969583255851,69.13804623629412
167.93164143312467,226.87039379304522,53.00048825394683,181.85520897608322,50.16375746186737,56.79532459055383,69.29820000959442
167.48212204478247,226.26665350404727,51.62305894427346,181.89154595409528,50.189833098513596,56.779783831676006,69.45387976358963
166.970268706106,225.6034169027861,50.30761117370101,181.8850838248227,50.212863151004136,56.782627634668444,69.60431230077377
166.39821974974706,224.88142193646473,49.05550156703914,181.83436307695553,50.232921581551636,56.80340777825676,69.7487801494995
165.76830496070787,224.10154707815366,47.86784976232374,181.73814056627606,50.25008004801557,56.84168331138125,69.88660520789735
165.08300681448833,223.26482803037348,46.74553388711404,181.59540950002832,50.26444554391048,56.89700315431667,70.0171233073025
164.34497654510488,222.37242539426583,45.6891805029853,181.40545592522858,50.27617151525664,56.96889395607605,70.1396878453137
163.55704933530058,221.42561434609846,44.699148386429684,181.16787267365822,50.28545127203943,57.05686778468611,70.25369587102529
162.7222019283954,220.4258417164061,43.7755229592232,180.88251206994465,50.29250852357291,57.16042707410229,70.35859789961125
161.8434924656025,219.37476969860134,42.918133830026306,180.54944477011966,50.29758095967446,57.279053593650715,70.45387949352968
160.92405533416402,218.27423721198426,42.126583129667374,180.16896514614095,50.30089234044173,57.41220071743164,70.53905058088354
159.96714067218713,217.1262069085924,41.400259079710736,179.74160009078219,50.302621812336064,57.559304132975996,70.61367349258174
158.9761173588972,215.93279610839355,40.73832827430488,179.26807419692838,50.302880492705356,57.71979471335662,70.6774043262757
157.95441464108396,214.69635878349865,40.1397242250721,178.74926641603702,50.30169651267409,57.8930929111839,70.73000010084372
156.9054743692459,213.41950087267543,39.60314982910193,178.18622777079364,50.29900448471832,58.07859686374545,70.7712923605021
155.83276512236145,212.1050118630373,39.127093310788744,177.580245115925,50.29463955806157,58.27569485466128,70.80116954155551
154.73980662633232,210.75582115028848,38.70984470450042,176.93285888662675,50.288340724393684,58.48379934666419,70.81958272861525
153.63013873407155,209.3750307724351,38.34951150941904,176.24580355170508,50.27976254562132,58.70236239614674,70.82654407912074
152.50726721951634,207.96593675684738,38.044047157911756,175.52094360002727,50.26848851140962,58.93085296635292,70.8220992055507
151.37466880347273,206.53198049760772,37.79129234627817,174.76026652719054,50.25404193174082,59.16872318045661,70.8063013787209
150.23585107418586,205.07671196778765,37.58900747725664,173.9658984466278,50.235893900648534,59.415396375130086,70.77922151627693
149.09437202504606,203.603822945965,37.4348826561705,173.14008122493448,50.213468676155166,59.670274292183734,70.74098176375986
147.95378019742992,202.11716609046897,37.326540967743504,172.28512614784634,50.186150049215506,59.93273882343461,70.69176760680845
146.8175529581143,200.62069952765515,37.26155841008609,171.40340122280915,50.15329037623462,60.20214864594237,70.63180471805572
145.68910575024302,199.1184386391699,37.237495151504824,170.49734384777176,50.114214517892016,60.47785060835274,70.56133690417857
144.57183382965744,197.61447309329807,37.251910784211546,169.56943613289513,50.06821785742619,60.759197841616334,70.48063442443194
143.4691032881204,196.11296792901274,37.30235589763413,168.62213625024862,50.01458097673658,61.045549497434465,70.39001148035908
142.3841972108604,194.61809070769624,37.386361755531006,167.6578359816122,49.95261896125503,61.33625429926716,70.28981833785386
141.32029961768404,193.1339480773257,37.50144657802959,166.67888221396197,49.88174101470268,61.630643955198764,70.1804178520355
140.28053497276838,191.66459789739216,37.645129672278905,165.6876043078302,49.8014778173438,61.92804966917059,70.06218850840774
139.26798307466518,190.21405892131295,37.81493420161613,164.68628871509063,49.71146978003577,62.22782274786047,69.93556092810816
138.28562408146237,188.78624941175838,38.00838058071496,163.67714385495788,49.6114456978801,62.529331925831,69.80104170108598
137.33628079823393,187.38492983330227,38.22299313905071,162.66233088869726,49.50121607229235,62.831941207206015,69.65919332528478
136.42263369052978,186.01372040616164,38.456330162509246,161.64403562673402,49.38067736565328,63.13499768556045,69.51059904625454
135.54727224341724,184.6761224238365,38.70601682145777,160.6244869098005,49.24981134778265,63.43783846527611,69.35585521566622
134.71269001333042,183.375475757716,38.96975943760008,159.60590742260501,49.108678197591175,63.739793461677735,69.19558783127728
133.9212205235858,182.11492609771426,39.245354953802114,158.59047986837896,48.95741632575293,64.04017142843003,69.03045367231105
133.17500201119722,180.8974660049169,39.53072052699974,157.5803668354558,48.79625233583973,64.33824993023852,68.8611103799203
132.47600392695972,179.72596913931716,39.82392947946655,156.57772369442438,48.62550557905043,64.63328786745578,68.6881863435761
131.82604183059053,178.60315452380416,40.12321839746356,155.5846624455229,48.445573759399,64.92454554102349,68.51228183860675
131.2267290055294,177.53156502079776,40.42696449191618,154.60321945053647,48.25690702863525,65.21128591086524,68.33398861393772
130.6794234399071,176.5136184653388,40.73366797372103,153.6353784651212,48.059990003386474,65.49276187272329,68.15389155060937
130.185242812064,175.55163878760615,41.04195960606271,152.68310518106398,47.85533972191834,65.76822136686653,67.97254847132639
129.7451160585458,174.64780131343082,41.35061233577592,151.7483271191308,47.643507118437256,66.03693619136119,67.79048240272071
129.35978657299148,173.80408185529132,41.658531034861646,150.83288479892485,47.425068022147904,66.29821933275096,67.60820161342497
129.02976585729292,173.02228081676537,41.96473610487167,149.93853776520908,47.200606130074824,66.55140919140246,67.42621555827844
128.75531963385313,172.3040415501518,42.268380313024785,149.0670289299054,46.97069850630787,66.79584765758062,67.24501712548181
128.5365113630958,171.65079621033226,42.56879774307026,148.22011283723936,46.735905692894235,67.03089068077193,67.06504988540269
128.37322743728402,171.06371985812962,42.865533232344966,147.39950406440863,46.49675926519966,67.2559469414917,66.88670148685084
128.26513569621397,170.54375943063317,43.15831968124403,146.60682169320316,46.253744292609426,67.47050124211509,66.71032924445457
128.21164124862696,170.09165766172248,43.44702630427068,145.843598988042,46.00728584359719,67.67410424543513,66.53627893150502
128.211918985747,169.707904920804,43.731615630659334,145.11131498237032,45.757750996564525,67.8663539765607,66.36487061756429
128.26499155257932,169.39269799818922,44.012124563215,144.41137228900348,45.505465413201236,68.04688593517821,66.19637791349665
128.36975466087037,169.1459737745868,44.2886576154142,143.74504130725995,45.25072934922357,68.21536146518713,66.03103838434278
128.5249362509828,168.96744042035363,44.5613732143759,143.11345671223313,44.99382156567982,68.3714489550625,65.86908679718971
128.7290786732146,168.85653842380836,44.83046994263772,142.51767325134182,44.73499588167498,68.51481429769197,65.71076809050486
128.9805867600079,168.81240772269052,45.096191198029786,141.95869139040576,44.47448317156432,68.64514008378578,65.55631837902538
129.27776902492255,168.83392812449722,45.35883364229487,141.43741673671232,44.21250211629681,68.76216235160253,65.40595513207164
129.61881175099765,168.91975818277868,45.61872928607782,140.95462736414882,43.94926554071309,68.8656892919617,65.25990723171076
130.0017436267065,169.0683063199498,45.876206875552185,140.5109967023037,43.684971123429285,68.9555930554031,65.11845358817742
130.42447162395862,169.27770445991686,46.13156956004938,140.10711254892857,43.4197829160206,69.03180108755375,64.98192222329371
130.88485790706216,169.54584502054726,46.38510534830256,139.74343780108813,43.153818991631915,69.0943054590917,64.85065595629032
131.3807427344989,169.87041403280662,46.637102618309754,139.4202643492788,42.88715911734019,69.14317988276115,64.72499296978718
131.9099060496864,170.24886990041375,46.887841309124255,139.13773788717933,42.61987313268443,69.1785816347753,64.60528150803472
132.47005715032105,170.6784482057129,47.13757173539316,138.89592808024284,42.35205272662384,69.20073805702795,64.4918938437144
133.05888739748963,171.15624769137233,47.38650833973965,138.69484709749813,42.08383388032649,69.20994568093155,64.38520808413239
133.67410922355506,171.67930456468545,47.63483618500736,138.534399988576,41.815412043105724,69.20658757079049,64.2855808165475
134.31342322051307,172.2445823334137,47.88270596154184,138.4143537857989,41.54704859217031,69.19113534322832,64.1933503983889
134.97447040450322,172.84895655093663,48.13021270883029,138.33436899431575,41.279060909839295,69.16412013082353,64.10886262113546
135.65485054055614,173.4892616578828,48.37738456391747,138.2940276569759,41.01179811248932,69.12610043886285,64.03247394167693
136.3521828068802,174.16232635881332,48.62420121690635,138.29280392003434,40.74561655663307,69.07765479901666,63.964519128667156
137.06411945454954,174.86493592109545,48.87062171252824,138.33002770605836,40.48086613787248,69.01938960825697,63.90528023360789
137.78830102504872,175.5937944260482,49.11658786748993,138.4049028542222,40.21788604137907,68.951932777364,63.854988235260635
138.5223332762044,176.3455521617994,49.36200518009353,138.5165421834926,39.957005570491035,68.87590896963029,63.8138391746862
139.26382284032601,177.1168367375941,49.60673310255085,138.66395155647976,39.69854801599116,68.79191960219615,63.78198855319569
140.01040869763744,177.90423770346453,49.85059658592314,138.84599129129063,39.44283300212579,68.7005357638243,63.75952663688419
140.7597369492151,178.70431215279302,50.09339479234141,139.06140266052995,39.19017631674689,68.60228950092117,63.746469545704535
141.50942966184905,179.513650964066,50.33488721258483,139.30889489425422,38.94089025056099,68.4976600320072,63.74277469100804
142.25712278646515,180.32892156635458,50.574771940288564,139.58718652747322,38.6952800021921,68.38707032757678,63.74834784753765
143.00054455026446,181.14683385531708,50.812685766820586,139.8949611270981,38.453631651511856,68.27090376306762,63.763022755170425
143.7375384363418,181.96410772038624,51.048234075804444,140.2308216939164,38.21620119007992,68.14952808544206,63.78654298011303
144.4660160076877,182.77750391453793,51.28102359051677,140.59330285931773,37.983222360202745,68.0233021836059,63.81858083387969
145.1839196759899,183.58385215444977,51.51066764263559,140.98088723881526,37.75493498808518,67.89256071836088,63.85877761401838
145.889233571427,184.38001859864198,51.73677083066142,141.39196909312264,37.531607175020724,67.75759654436995,63.906758604810236
146.579988858881,185.16288031177726,51.95892504747774,141.824811123385,37.3135292909638,67.61865224278736,63.962111540276794
147.25422955780476,185.92937153018462,52.17672585458052,142.2775754158204,37.100990168249595,67.47591103579563,64.02436601181924
147.90999339393792,186.6765368784275,52.389783797344236,142.7484100413153,36.89425705014862,67.32947740923701,64.09300482032222
148.545353281181,187.40151082482566,52.59771244544681,143.23549148034783,36.69357250711947,67.17935031732613,64.16748907881393
149.15846753031875,188.10147201176432,52.80011012696892,143.73699900648302,36.49917514511503,67.02540339303229,64.24726056150324
149.7475705028184,188.77367571813235,52.996559487839995,144.25109944338251,36.31133555148281,66.8673931723536,64.33172507971858
150.31093190381853,189.4155517124099,53.18663961584052,144.77597498539768,36.130380827521556,66.70499883609158,64.42025836226385
150.8468681505505,190.02475281190812,53.369927925960695,145.30983184480496,35.95669195668778,66.53786486024164,64.51224987331624
151.35381217758177,190.59912879366578,53.545991383099114,145.85085186575301,35.790684925397116,66.36562421443165,64.60714405085078
151.83035627434433,191.1367303067849,53.71439046767249,146.39714743332775,35.63278887813663,66.18791220331725,64.70444008363378
152.2752279327841,191.63588106891322,53.87470053807832,146.94679664313094,35.4834213954355,66.00438015426609,64.80367054000952
152.68726242193986,192.09521522484764,54.026524816381105,147.4979326186936,35.342962400460245,65.81469885493209,64.90440411405677
153.06541888952162,192.51362485345138,54.16948933524851,148.04878230531085,35.21173704573647,65.61854720218064,65.00627285007121
153.4087935969183,192.89021082350018,54.303248021461435,148.5976233850245,35.090011419407105,65.41560185674007,65.10898035721132
153.7165856967349,193.22430572649492,54.4275158441419,149.1427389227103,34.977991663716864,65.20554619850842,65.21227115365593
153.98806153171498,193.51549438422202,54.54210242627424,149.68242451161606,34.875819041876404,64.98809285124092,65.31589290233711
154.2225841336758,193.7635668183732,54.64691123189568,150.21500314317655,34.783565094541125,64.76299466335247,65.419584393451
154.41968045492794,193.96847510632315,54.74191112681875,150.73880041797108,34.701234196525654,64.53003683997926,65.52307814381244
154.57905954725476,194.13035954718953,54.82711738042851,151.25211918560615,34.6287714958435,64.28903059844035,65.62608809969107
154.70057385138625,194.24957185964547,54.90259894068935,151.75327004465234,34.56606622948959,64.03982102427136,65.7282858473329
154.78420542360337,194.32662264803633,54.96848855556709,152.2406263769628,34.51294720616179,63.78229498031023,65.82929825434447
154.8301094579962,194.36212469938383,55.02496938665306,152.71263021077812,34.46917921913396,63.5163737238759,65.92873353546958
154.83864405735227,194.3568332684608,55.07224749872636,153.16776002538057,34.43447186068943,63.24200181313916,66.02619908872065
154.81033132815304,194.3117398490831,55.11053860295078,153.60454458748234,34.408501476023226,62.95915671778839,66.12128632962852
154.7458015361917,194.22809190626214,55.14007342498148,154.02163523395308,34.390931440530345,62.66787539175777,66.21354812678796
154.64579741267679,194.107329196738,55.1610981248888,154.4178489596625,34.38141773193195,62.3682680248651,66.3025050490219
154.5112208393048,193.95105686753405,55.17385792996321,154.79214104410715,34.37960512543865,62.06051410144218,66.38767425761858
154.34313729320345,193.76109781532384,55.17858455074768,155.14357566852058,34.38512800782608,61.744867697209806,66.46858295472937
154.14272064116648,193.53951956269657,55.17550911852173,155.47134584281685,34.39761780906288,61.42167933234678,66.54475316591588
153.91121101378917,193.28858416354174,55.16488691408266,155.77479211302258,34.41670393874207,61.09140821998274,66.6156891518734
153.6499233949069,193.01071833234107,55.147000247168705,156.0533652803514,34.442002787249386,60.75460777844496,66.6808952537742
153.3602510382922,192.70855150243625,55.12213435136526,156.30658246642747,34.47311237059676,60.41190299782407,66.73990541887078
153.04361738145533,192.38491816878403,55.090557129532684,156.5340666146192,34.50963025114548,60.06399015683968,66.7922884231783
152.7014253016862,192.0427630415861,55.05252393946918,156.73564881155517,34.55118391450494,59.71165724669263,66.83763180122097
152.33507304280013,191.68504551462885,55.00829041856889,156.9114153341535,34.59744719059035,59.35578979587332,66.87554144584279
151.94601122796658,191.31472907682394,54.95810916464317,157.06167017356952,34.648134256260256,58.997345178344254,66.90566794406895
151.5357541754769,190.93479138342354,54.90221533137231,157.18690982513502,34.702984754717164,58.63731981883301,66.92772472148214
151.10583045989412,190.5481660106856,54.84082131740709,157.28785122649788,34.761752335591886,58.27673519864657,66.94147232708418
150.65774427393734,190.15766368577096,54.7741230530117,157.3654343618184,34.82419659149329,57.916636405518325,66.94669401475231
150.19298498531444,189.76598404277652,54.70230089966563,157.4207582674353,34.89007547682541,57.55808124899658,66.94320295555579
149.71303480661277,189.37580198725212,54.62550613731282,157.45502292060837,34.959137725700266,57.2021186995652,66.9308778182459
149.21933103050364,188.9897963567414,54.54385017663004,157.46953123623368,35.031114748571,56.849775072480156,66.90968127535763
148.71322814357944,188.61058713820012,54.457419646990914,157.46569431106334,35.10571823379327,56.50204973567749,66.87963925539536
148.19602742569643,188.24069875559937,54.36630964676556,157.4449781554036,35.182662915431514,56.15990213858529,66.84081432413879
147.66904837076297,187.88260347562968,54.27064061672929,157.40884223784096,35.26171921452437,55.824227390442445,66.79331071944328
147.13365058711517,187.53874191655942,54.170546763562456,157.35876065537246,35.342760287088105,55.49584394140988,66.73729817744083
146.59118786461573,187.21146094700072,54.06616365536002,157.2963030983332,35.425770522677546,55.17551238268708,66.67301458834483
146.04297195877513,186.90296554058548,53.95763823348309,157.22316377524317,35.51082501341483,54.86396917306634,66.60074502415904
145.49029069632505,186.61534870757842,53.84514636270499,157.14112765614328,35.59806414036448,54.56193862941953,66.52081523433203
144.93442728711966,186.35061166497735,53.72889019392471,157.0520827688915,35.68767389220706,54.270112456585046,66.4336118975915
144.37662879587282,186.1106181550895,53.60907636026293,156.95809753513518,35.779872780077795,53.98912264590699,66.33959286293639
143.81806643821238,185.89707372469053,53.48590395390163,156.8614436559698,35.87490337580047,53.71953614389669,66.2392620109478
143.25985857229654,185.71157941769587,53.3595785680083,156.76451157259038,35.9730262469599,53.46187053228801,66.13313444390349
142.70313469796798,185.55565943705946,53.2303312346782,156.6697122354798,36.074513757731964,53.21660331412772,66.02172754091525
142.14905211889203,185.4307092717015,53.09841404751129,156.57944026323102,36.179641814170736,52.984160535016166,65.90557204161762
141.5987486909686,185.33796585602272,52.964078294763645,156.4960510951405,36.288682498308454,52.764902038829014,65.78520784067358
141.0533121792109,185.27855575429473,52.82756279860166,156.42178995861732,36.40190093305454,52.559121207959684,65.66115395457841
140.51381325723383,185.25352051917002,52.689100001535294,156.35871313683984,36.519552941935046,52.36705387082376,65.53388475726682
139.98134203446574,185.2637611385015,52.548919506115425,156.30868582660975,36.64187865847218,52.188879142920456,65.4038422432693
139.45698365932884,185.31000024159172,52.4072345805693,156.2734426525265,36.76908970136899,52.024710601836375,65.27146692994127
138.94177329242405,185.39282173604744,52.26422516972153,156.25460570192706,36.90134959113818,51.874594948544846,65.13720522967955
138.4367109852018,185.51269546176664,52.12003855731622,156.2536232231577,37.03875337997177,51.738520787231245,65.00148650204378
137.94282285625866,185.66993484469214,51.97480458621628,156.2717084197439,37.18131830979319,51.61641769251324,64.8647060968815
137.46117589421428,185.86468035156966,51.828640978954056,156.3098357891155,37.328989675451865,51.50813714057455,64.7272395986294
136.99281746777336,186.09695222528828,51.68163899015999,156.3687485580618,37.481651354026425,51.41343571547088,64.58946657984639
136.53871738759588,186.36667174451048,51.53385021321468,156.44892652890422,37.639135554950805,51.331987107041876,64.45176958915643
136.0997822863838,186.67360425897945,51.385295993293916,156.55056292581693,37.80123642045337,51.26341775171081,64.31451631228717
135.67690684253807,187.0173294411405,51.235989466139436,156.6736284693833,37.96771953213824,51.20732964590971,64.17806270016919
135.2709799374082,187.39729619137358,51.08594314956542,156.8179890542667,38.138315357796635,51.16329580308177,64.04278045364026
134.8828476547728,187.81286131720822,50.93516082030656,156.98345836278654,38.31270436177866,51.13085841266896,63.90906879853068
134.5133110196022,188.26325184968562,50.78364676909697,157.16975155299176,38.49050918320246,51.10955540091315,63.777331525578084
134.16317201683833,188.74754369753296,50.631453157064215,157.3764249413242,38.6712956440464,51.09895657389953,63.64795138539459
133.83325072306124,189.26470684475242,50.478734000426236,157.6028629115154,38.85457412284575,51.09867482468367,63.52129324338114
133.52434343112483,189.81362012272106,50.32575785756283,157.84827605733432,39.039801689924914,51.108352689618094,63.39771954941393
133.23719087386092,190.392996595087,50.172879951348726,158.11166421613729,39.22640223023612,51.12765241957957,63.277582538972275
132.97249966341727,191.00131268278543,50.02051825772503,158.39177696198408,39.41381325593955,51.15625747386778,63.161194875256605
132.73095952166852,191.63682989946366,49.86915685696831,158.68713829449047,39.60153281676776,51.193866237783304,63.04881776855694
132.51320111101728,192.29765010406004,49.719350937983116,158.996123027896,39.78913541491967,51.24016812946735,62.9406864858637
132.31974204103182,192.9817065363395,49.57170602358741,159.31699693657245,39.976265385187915,51.29481958968075,62.837041698687436
132.15100359241333,193.68672926622577,49.42684416544336,159.64788916663295,40.16263278544763,51.357445086440976,62.73812860192278
132.00738166192605,194.41030208030415,49.28538402396994,159.9867608556036,40.34801094328689,51.42766112996917,62.64417717364341
131.88927133528253,195.14999726388325,49.147935454400255,160.33141642948323,40.53222045150312,51.50509320538555,62.55540597596469
131.79701267311253,195.9034434495453,49.01508827864301,160.67952434577901,40.71509937450249,51.5893766051921,62.47205131984619
131.73083668542864,196.66828419354226,48.887387441608524,161.0286099654611,40.89647409939983,51.6801645432505,62.39437839915837
131.69086855572203,197.44214876758298,48.76531255148541,161.37605044188564,41.076148585940594,51.77714705985955,62.32265513132159
131.67714039576876,198.22269757203884,48.64928063253147,161.71911683371866,41.253917656263226,51.880054943935846,62.257126470643094
131.68955749423645,199.00764891550494,48.53966172583451,162.05503745199934,41.42958614779911,51.98863873329143,62.19802964037979
131.7278628099079,199.7947343798731,48.43677982113451,162.38101977696243,41.602973962150536,52.10264465981989,62.14563272621707
131.7916833996522,200.58167610916934,48.34089642071413,162.6942365683278,41.77390815359917,52.22181399119776,62.100245161602444
131.88063500226616,201.36624043252976,48.25220748361768,162.99184164870536,41.9422108125912,52.345901894010446,62.06219026979251
131.99437041972158,202.14627246692362,48.17087264922568,163.27102763853983,42.107684159387354,52.47468602667221,62.03178208615641
132.1325445739158,202.91964786507432,48.097049727629134,163.52906351746515,42.27009298843762,52.60795845681305,62.00933206640654
132.29479028295583,203.68422704974435,48.03089874763508,163.76328329451994,42.429148301813164,52.74552684283411,61.99515784728535
132.48074939103142,204.4378765727555,47.972562834069045,163.97107538397677,42.58449634591448,52.887232478335136,61.989563451406646
132.69008948180263,205.17848202755334,47.92216043880616,164.14991031374768,42.735716678479285,53.03296048768933,61.99281088927966
132.9224615305077,205.90389004316307,47.87979741303591,164.2973719182691,42.88232895472351,53.18262484405992,62.00512412421885
133.1774553451514,206.6118597909926,47.845572588242355,164.41115048760466,43.02380152024442,53.33614242016301,62.02672115709946
133.45460076745357,207.30012254369308,47.819562257269496,164.48902815132664,43.15955829594517,53.493425758728236,62.057826105132015
133.75337147981452,207.96649910539855,47.801805462714185,164.5289215521864,43.288990044527125,53.65440099805496,62.09864062318203
134.07314303017768,208.60894177068184,47.792311219993856,164.52897222693525,43.41147232607553,53.81902027048379,62.14931244805865
134.4131475363565,209.22548805554297,47.79107311343008,164.48759686692838,43.52637835226456,53.98724389353933,62.20993942684357
134.77249975847724,209.81424789926388,47.79806394157499,164.4034605562566,43.63307584369732,54.15901053973272,62.280591778433305
135.15027445712275,210.37347243318467,47.813213926945615,164.27543361053816,43.73091296256698,54.334229287910325,62.36130919682037
135.5455349490723,210.9016007157387,47.83640667362846,164.10258358056458,43.819208095201496,54.512795391764435,62.452070600237015
135.9572790043113,211.39722351446866,47.867510030317106,163.8841771417443,43.89725832584448,54.69459806636518,62.55277924948649
136.38437954922676,211.859055355773,47.90641269848817,163.61965305377103,43.96436862134502,54.87950241235433,62.66328565866675
136.82559397366413,212.28597562071025,47.95303168350463,163.30859082190443,44.01988158448167,55.06732642880211,62.78341459644534
137.27961412913606,212.67705584099517,48.007298896689214,162.9507328879367,44.063188453345425,55.257842777913204,62.912958289487825
137.74507864327478,213.031522722796,48.069153838181684,162.54605064349195,44.093734189966256,55.45080469818369,63.05165195223794
138.22054598183666,213.3487422307166,48.1385409555533,162.0947730638615,44.11105119097104,55.64596452308365,63.199175735469446
138.7045049987444,213.62826949705325,48.215392450780115,161.5973449517321,44.11482352516189,55.84306851813942,63.355187197020065
139.1954399759464,213.86987423933232,48.29959696389222,161.0543728021271,44.1049316004293,56.04184955600629,63.51934050069859
139.6918698591534,214.07349600286477,48.39098021833947,160.46660725551703,44.081447503592294,56.24203239534665,63.69126738354751
140.19231933010184,214.2392202069605,48.489320209554066,159.83493716257473,44.044620822717945,56.443333876180944,63.87055004221146
140.69528477561448,214.36732140262407,48.594382919118196,159.16035721200873,43.994897359809066,56.64544531572769,64.05671951685422
141.1992505319365,214.45828041633624,48.70593909745861,158.44393623576582,43.932954909709345,56.84802022869349,64.24926659170276
141.70271562389263,214.51272227310804,48.82374905409182,157.68684758150826,43.8597207736045,57.05069942243246,64.44763354223737
142.20417382434465,214.53136636456406,48.94754234088735,156.89044876952664,43.77636372361773,57.253161969308564,64.65119007158484
142.70207351754604,214.5150506044625,49.0770145186871,156.0563191659333,43.684268739389104,57.45515371254798,64.85923004309322
143.1948308168386,214.46474744236846,49.21182957846525,155.18621885177444,43.58499568164054,57.65647669534275,65.07100335330519
143.68089643060085,214.38151445101988,49.35160776140421,154.28204241855863,43.48022236997761,57.856969577260564,65.28574756121125
144.15879064199743,214.26646349298295,49.495902694690926,153.3458419281509,43.371681718228196,58.05649901690089,65.50268482250628
144.62706643013303,214.120803174889,49.64418966684102,152.37988697706615,43.26110612148111,58.25495025487065,65.72100252812216
145.08427231118642,213.9458642769842,49.795872651106365,151.38667297155914,43.15019060284867,58.45220610278645,65.93985855737968
145.52898688760325,213.74304773023283,49.950292935139736,150.3688664882157,43.04057623355282,58.64812768805926,66.15841146298042
145.9598873698072,213.51378208084472,50.10672519876076,149.3292634684024,42.93383712067985,58.84255880037884,66.3758362508824
146.37576685652672,213.25955110695813,50.26437570610913,148.27079249511607,42.83146026008304,59.03534822772171,66.59131027526706
146.77550834342424,212.9819072933436,50.42240780942887,147.19650608533053,42.73483593021757,59.226355649034616,66.80400467669536
147.15810491946235,212.68241114454693,50.57998827891712,146.1095215005794,42.645271654855634,59.41542694656171,67.01311288881082
147.52273873846505,212.3625801788959,50.73631639334357,145.01296156679757,42.5640096107087,59.602372508972444,67.21789183758047
147.86882082827685,212.0239107570166,50.89061813693802,143.90995571292405,42.49222718970372,59.78698779975157,67.41766995124912
148.19593981462555,211.66789396153172,51.0421338231533,142.80367320640067,42.43102611892592,59.96910292576079,67.61182180697661
148.50379392404318,211.29596606793334,51.19013510849467,141.69731339841874,42.38142234749786,60.14860892914831,67.79975226244471
148.7921878909439,210.90947543671672,51.33396581495983,140.59405344806254,42.34434206204766,60.325443030316414,67.98091161844519
149.06106573489788,210.50972584487127,51.47306471658257,139.49703160386386,42.32062323044042,60.49956224924633,68.15481198803694
149.31049764361597,210.09801036054265,51.606951059047745,138.409387444598,42.311016130605765,60.670923431493506,68.32101250906032
149.54062126135395,209.67556918727516,51.73520287401846,137.33428181327915,42.316176193092296,60.83946034088002,68.47909006588272
149.75161687331672,209.24355066490736,51.85745980781235,136.27484957249047,42.33665103719058,61.00505596332681,68.6286349921303
149.94373948436044,208.8030393551785,51.97343895174823,135.23415105526806,42.372870666552046,61.1675271684905,68.76927360625595
150.11733400362735,208.35507776124348,52.082933047131576,134.21519959002052,42.425149046261055,61.32663551697459,68.900679738087
150.27278754930106,207.90062779327633,52.185790751744236,133.2210288487459,42.493698289222735,61.48211183870803,69.02255632672333
150.41047835551595,207.4405506742211,52.28190707083634,132.25469885941982,42.57864646975883,61.63366485723398,69.13461646710986
150.53079050702462,206.97565674001592,52.37123317558185,131.31923218320338,42.68004799904402,61.78096626042481,69.23659683954314
150.63416289556653,206.50674048212485,52.453780155116945,130.4175827871441,42.797881990167,61.923642595580205,69.32828878765076
150.7210881435876,206.03454281248725,52.529597794713474,129.55268323146603,42.93203902942362,62.06130340102306,69.40954516257968
150.79205671495603,205.5597201582279,52.59874685354548,128.72748195837454,43.082301930073484,62.193588828534764,69.48025679475494
150.84752767922495,205.08287876229375,52.66129657490284,127.94492116609587,43.248332868245576,62.32019155842993,69.54033597683876
150.88795967585924,204.6045989424652,52.717348507705324,127.20795224157094,43.42967935933318,62.44084200782664,69.5897280149652
150.913833728976,204.1253949655599,52.76705223438185,126.5196370000219,43.62579780078786,62.555287647882814,69.62842366003501
150.92561862207586,203.64569069502923,52.810591418676715,125.88321110949751,43.836080750851245,62.663284802650054,69.65644208226945
150.9237319886309,203.1658695332739,52.84816208656793,125.30203595568571,44.059879269363606,62.764590231933504,69.67379686131075
150.9085523897485,202.68631630976984,52.879972282636146,124.77955149268702,44.29651736956164,62.85894147416684,69.68048285223635
150.88044317892022,202.20738699571706,52.90625631489205,124.31930448558508,44.545291294023535,62.94603896922814,69.67649794768097
150.83973062049475,201.7293853213961,52.92727422063927,123.9249508144987,44.805451735796616,63.025553702106,69.66186951389466
150.7866690689502,201.252609370624,52.94329116228258,123.6001685626119,45.076180795091084,63.097159240979856,69.636652333744
150.7214700573229,200.77739027580506,52.95456895552927,123.34858732571077,45.356577071340254,63.16055496974337,69.60091116249652
150.64438427466484,200.30406159579857,52.96139349544852,123.17379993965217,45.6456527965961,63.215464248151854,69.55472419536471
150.5557397756258,199.8329322138939,52.96411064181685,123.07935607295269,45.94233759666678,63.26163135651735,69.4982067742781
150.45590119849612,199.36431633784358,52.96313024937485,123.06867478136542,46.2454823129278,63.2988342804635,69.43151812114833
150.3452261183481,198.89854822315314,52.95890945811451,123.14497634895586,46.55386144992076,63.32689555309356,69.35483727049224
150.22407845342505,198.43593526966492,52.9519551549317,123.31129633593676,46.86617662311412,63.345672334892356,69.2683414856212
150.09285406531635,197.97673423340905,52.94284479978476,123.57048389333553,47.181065362577904,63.35503945112274,69.17221930408087
149.95195490147597,197.52120740210552,52.93222684071059,123.92512366685722,47.49711750583584,63.35489445617914,69.06670144098638
149.80174149558255,197.0696684127476,52.92078554772481,124.37748063604896,47.81289706024467,63.34518354422736,68.95206722047587
149.6425465234775,196.6224495575875,52.90919957481317,124.92952871809194,48.12696836058028,63.32591499550827,68.82862071311222
149.4747493258882,196.17988055264522,52.898130505536784,125.58296209780971,48.43792654013875,63.29714563597218,68.69667638556676
149.29881729712415,195.74235037765527,52.88824025690741,126.33912880295327,48.74442531570921,63.25896333652298,68.55658063216939
149.11527417370291,195.31035909385164,52.880199882062634,127.1989917311503,49.045189353546945,63.21148686681627,68.4087415805756
148.9246674971845,194.88447973516045,52.87467098906221,128.1631798016749,49.33900758592113,63.15487379079458,68.2536261878962
148.72759048625278,194.46531384620312,52.87228800184752,129.2320200873557,49.624715963990006,63.08931646863668,68.09172980654877
148.52471007966926,194.05351633248145,52.8736680898437,130.40548059354307,49.90117813433814,63.01503136364243,67.92355951688347
148.31673917641703,193.6498125806998,52.87943008566027,131.68312551888712,50.16726980589716,62.932265380388756,67.74964804670954
148.1043873136724,193.25494185373182,52.890188152139345,133.06415131960296,50.42187457662353,62.841318112643,67.57056731308627
147.8883744657936,192.86960821503257,52.90652100926439,134.5474077561658,50.66389343266359,62.74255021505173,67.38691265532647
147.66950241866712,192.49450669309752,52.928946686464656,136.13134494574092,50.89225742281107,62.63636520069857,67.19927665207412
147.4486821163906,192.13034578342865,52.957915543659574,137.8139876331606,51.10593500588248,62.52318890657357,67.00824547886839
147.2268736758403,191.7777999151326,52.99380321926129,139.59299487060986,51.303935475944556,62.403475945151655,66.81441032522623
147.0050163523,191.43747072412165,53.03688787428075,141.46569969105093,51.48530751276233,62.277737876922046,66.61836068489347
146.7840257178052,191.10992297695935,53.08732392269478,143.42906136341233,51.64913095123203,62.14655617046456,66.42065645848938
146.56482839769785,190.79571499140707,53.145137992038734,145.4796203309832,51.794508195157604,62.010560761823406,66.22181549193148
146.34835314921227,190.49535564378337,53.21025284167648,147.61351895710186,51.920563511534525,61.87039763487204,66.02233953903433
146.13547411676333,190.2092664198287,53.28251198648122,149.8265141572732,52.026449746456564,61.72671518899046,65.82274796181392
145.926984048699,189.93781586615927,53.361678962496725,152.11393230940797,52.11135558506829,61.58016629077543,65.62357689783548
145.72362755089688,189.68134851361023,53.44742209894641,154.47063954306878,52.17450988998781,61.431400860678764,65.42535333410527
145.52612522766154,189.44013961014653,53.539316410941574,156.8910793929632,52.21518750985357,61.28104462198259,65.2285871892312
145.33513553639875,189.21434892255314,53.63687077923955,159.36931113710037,52.23272484347107,61.129686026333886,65.03378986725241
145.15120836192355,189.00404171393743,53.73955249165484,161.8989882873009,52.22654400995562,60.97787930750808,64.84148251734736
144.97480679349997,188.8092114660834,53.8467846227463,164.47333331162244,52.19617137318715,60.82614495620979,64.65217243088941
144.8063705615583,188.62974427120275,53.95792948897538,167.0851899269565,52.141242116655654,60.674953751816226,64.46632618715121
144.64632936022497,188.46539268292938,54.07228847183576,169.7271245120084,52.061497869093095,60.52471055758382,64.28437570556382
144.4950525563656,188.3158165063863,54.1891230108652,172.39147760250933,51.95678714176728,60.37577021027846,64.10674631927726
144.35281615361856,188.18061735432207,54.30767023641911,175.07034831254484,51.8270680955236,60.228485033725974,63.933864536325856
144.21982755519645,188.05930706804432,54.427134652749075,177.7555933947044,51.67240399167788,60.083238035576514,63.766137964155895
144.0962470280874,187.95128686805944,54.546671868470135,180.43888097892912,51.49294778419179,59.94043358813641,63.60394779799651
143.98215321014743,187.8559004656041,54.665392344134716,183.11174279610984,51.28892481099995,59.80046937556979,63.44767565877394
143.87750331481212,187.77248087413886,54.782387586408305,185.76558524071527,51.060623786442456,59.6637170982304,63.29772939568372
143.78216199238602,187.70032116150767,54.896752052403855,188.39171008553566,50.80839656218914,59.53050959964631,63.1545301717567
143.69597104176188,187.63864923607517,55.00758076082367,190.9813932974174,50.532658756449,59.40112591498056,63.01847776009023
143.6187686647729,187.58668551316805,55.11395257952791,193.52597536633263,50.23388559742953,59.27578414193383,62.88993658212425
143.55034636191436,187.54370778908185,55.214921949545506,196.01689667865304,49.912604139738306,59.154658878373525,62.76924773758443
143.4904242576137,187.50902848424934,55.30952759640804,198.4457057196245,49.56938625422081,59.03791490893042,62.656731715179866
143.43868367812414,187.4819447605969,55.39680445504323,200.80411495915368,49.204845567353985,58.92572512036864,62.552663422760865
143.39479475149614,187.4617815343899,55.47578411520596,203.08409596023526,48.8196368114043,58.81826288740921,62.457247715361554
143.35838668679145,187.44800205943983,55.545493659750534,205.27793073977017,48.41445371309372,58.71569107495374,62.37062763811412
143.32901288074277,187.4402476763709,55.604975733884324,207.3781926010669,47.99002458825491,58.61815741082121,62.29291250351907
143.3061861552363,187.43828217745633,55.65332817991871,209.37772573867142,47.547109879441585,58.525784184807364,62.22418499500527
143.28945494461988,187.44196030733698,55.68973197542142,211.26969170599565,47.086507359863845,58.43865162892538,62.164478460390626
143.27842514979744,187.45126433467914,55.71345066890795,213.04765786530984,46.60906600802534,58.35679583443305,62.11376200615141
143.27271474423395,187.4663073920626,55.72382519466732,214.70564452841128,46.115701753598536,58.2802367462212,62.07196111853287
143.2719256476217,187.48725101809924,55.720293519452234,216.23810951694057,45.60740326563878,58.209016807260696,62.03898786308545
143.27567394251707,187.51423193296569,55.70242579239867,217.6399326852454,45.08522357873731,58.14321088628672,62.01473965932977
143.283614503189,187.5473768602743,55.669939993931024,218.9064372335971,44.550268057143796,58.08289793289558,61.999069877731976
143.29540320610556,187.58683628060328,55.62269096202365,220.0334092200291,44.0036912658924,58.02812680464219,61.99177080584182
143.31064219536307,187.63274447565212,55.56066374230479,221.01708039140524,43.44670215275968,57.97891100552075,61.99259198771872
143.32888600845197,187.68515060738042,55.48398967047547,221.85410798086107,42.88056430888507,57.935249445843276,62.00126847133216
143.34969678116062,187.7440314336286,55.39296120192575,222.54160416036936,42.30658343820411,57.8971415455429,62.01752241120584
143.372663128776,187.8093756264551,55.28801684863146,223.07719859229238,41.726089931412915,57.86458810486117,62.041046845276774
143.39735953010583,187.88121738195494,55.16970750905059,223.45906425823176,41.14042715323512,57.83760138022686,62.07150773977202
143.42331977869347,187.95959063404882,55.03867664056852,223.68589256469738,40.55094548159096,57.81622680095307,62.10856419048129
143.45006603566193,188.04451525527674,54.89565778386482,223.75687814039088,39.9589951292865,57.800546545077324,62.15187182873777
143.47713376954664,188.1360571186524,54.741462619685606,223.67174160118552,39.365916826934864,57.790653987941056,62.2010617835965
143.5040398436121,188.2343541716405,54.57694813994164,223.4307431938947,38.77303615975742,57.78662756028993,62.25573327453996
143.5302439443125,188.3395533119058,54.40298447848382,223.03465010376158,38.18166202935579,57.788533025966935,62.31548606437091
143.5551785783984,188.4517612649798,54.22044208774168,222.4846957132762,37.593083596863,57.79644350096034,62.379961584719695
143.57832303071626,188.5710821084143,54.030186376335976,221.78258983175675,37.008560727144456,57.81044176659375,62.44884705171676
143.59922873137106,188.69765308417223,53.833061995665915,220.9305647088319,36.42930724689808,57.830595081482436,62.52184940148195
143.61747914786557,188.83159698145795,53.62987585903557,219.93138267992748,35.856474725902075,57.85692777696083,62.598682951307204
143.6326639513461,188.97296279585458,53.42140191146237,218.7882868741553,35.291150255097364,57.88941369402134,62.67908228894538
143.64440875341938,189.1217395766566,53.20840654603582,217.50495573350193,34.734370846637866,57.92798188763984,62.76280653876006
143.65240050231262,189.27788798751638,52.99166534919539,216.0854954450482,34.18713882410052,57.97251510294363,62.84961484134252
143.6563550984847,189.44130363024038,52.77195131413324,214.53442879861237,33.65042500699178,58.02284202721327,62.93924058450559
143.65597429562797,189.61176047588913,52.55000794228235,212.856643288525,33.125162131914074,58.07874631997965,63.031397870866705
143.65096761618128,189.7889453295881,52.326535675161814,211.05733426197034,32.61223407178414,58.13999247347692,63.1258082501847
143.64111894371493,189.9725637579641,52.10220097144748,209.14200264239238,32.11246277414995,58.206336816186194,63.22220628877632
143.6263054712439,190.1623826272347,51.877646790805336,207.1164932214964,31.62659643886928,58.27750915789736,63.3203135551044
143.60644661404407,190.35817894123977,51.653481974958126,204.98699565659936,31.155305319708265,58.353189795510524,63.41981642674251
143.58146013141086,190.55971788876963,51.43025618432321,202.75998467394908,30.699186033704784,58.43301055292111,63.52037778417929
143.55127582032853,190.76681522838948,51.208447091752596,200.44216129912033,30.258764658042566,58.516574939386125,63.621664681004525
143.5158579044598,190.97937785261064,50.98847289048122,198.0404346290822,29.834490839396427,58.60346909417653,63.72335350773036
143.4751795415757,191.19736318531352,50.77071093319415,195.56190474613004,29.42672716447895,58.693260989807236,63.82511169355759
143.42918673194595,191.42075368197422,50.55549751607524,193.01380621770113,29.035741825985518,58.78551866089936,63.92659012216113
143.3778273486465,191.64959943356203,50.343114476035836,190.40344684381537,28.66170811488856,58.879852169930594,64.02743650614946
143.32112899547766,191.88403455808069,50.133785887502995,187.73820431963753,28.304711335887355,58.97593882787669,64.12730019848965
143.25922859789506,192.1242209161647,49.92768839059636,185.0255657988861,27.964760923204988,59.073507570802555,64.22581167438025
143.1923254086994,192.37031713561484,49.72495747621301,182.2731278484605,27.64180123715382,59.172311220432675,64.32256408509188
143.12063915219724,192.62252067186824,49.52568078715871,179.48853361578676,27.33571722492566,59.27212683052304,64.41712991922911
143.04442803542153,192.8810851447212,49.329892360971364,176.67941448347398,27.046337198703363,59.372782038531476,64.50910063989868
142.96401179097273,193.1462620268899,49.13758309382014,173.8533775510419,26.77343462132534,59.474167599859776,64.59810456310318
142.87973837645015,193.4182579741427,48.94871834230928,171.01799322679278,26.51672924250527,59.57621548223063,64.68378985394186
142.7919355726461,193.69725755896746,48.76324089371688,168.18073778362356,26.27588909657948,59.67886978104935,64.76581008409671
142.70092706860595,193.98342778654197,48.58105926180567,165.34893286966275,26.05053620338835,59.78208639551743,64.84384165560168
142.60709721419164,194.27686206321908,48.40204591352778,162.52975506584158,25.840256866498095,59.885855625514836,64.91760985140778
142.51091032261797,194.57755014424563,48.226057478559696,159.73029698387342,25.64461233350967,59.99021135546862,64.98688690450153
142.41286062547692,194.8854163541202,48.05295563530267,156.95758165234557,25.463144992172463,60.095220820656806,65.05147047877624
142.31343348342455,195.20033264291772,47.88260570332996,154.21850024218094,25.295379893238255,60.20098330367158,65.11118077940654
142.21312519298849,195.52204691981197,47.71486288896437,151.51975178673524,25.140826385527276,60.30764043062845,65.16588170015362
142.11246135950833,195.85011488273187,47.549575651719884,148.86783801478123,24.998985795253905,60.415369572153864,65.21548935938893
142.01195714273862,196.183929680918,47.386614901250134,146.26906335407577,24.869365677363422,60.52435175486347,65.25994916386507
141.91206935042422,196.522797512684,47.22590220300506,143.72948491812934,24.751494709263536,60.63474167179758,65.29921207626923
141.81322142051425,196.86594403704325,47.06741075996827,141.25485597209368,24.644930246926823,60.74667014942786,65.33324327838066
141.71587918895378,197.2124564871733,46.911151005286605,138.8506444369993,24.54925526800873,60.86027050228188,65.36204803424789
141.62057517080245,197.56127565304206,46.75717037918305,136.5221070281015,24.464069126244205,60.975688840839624,65.38567386263846
141.52784887745952,197.9112686989844,46.60556829196627,134.2743111643645,24.38897882671481,61.093067272597715,65.40418422661887
141.4381828682519,198.26127418717093,46.45649797063053,132.11207331731282,24.323593320002576,61.21253384031495,65.41764381630176
141.35200553916332,198.61005629481846,46.31014423705233,130.0399040432165,24.267517121656564,61.334218041980265,65.42614062444326
141.26972710914342,198.95625911910383,46.16670352093399,128.06201948236782,24.220339992419834,61.4582651460154,65.4298147473766
141.19173369956283,199.2984457141678,46.02638904028824,126.1823594467342,24.18162794866886,61.584823524797116,65.42885325100724
141.11834773825174,199.63515848841615,45.88944529586055,124.40454415894979,24.150925032879226,61.71401966214139,65.42346090108677
141.04983351700028,199.96490819984814,45.75614292284998,122.73181322336045,24.127765899825903,61.84595118020154,65.41384905588198
140.98645835318257,200.28613382182442,45.62675526256953,121.16704098716973,24.111686468821976,61.98069864659646,65.40025174691931
140.9285245102639,200.59724372965627,45.501544648140424,119.7128195586712,24.102223750547143,62.11832733346464,65.38293222394822
140.8763323689223,200.89672707672014,45.380770801322655,118.37149954886982,24.09891105240194,62.25886844236711,65.36215814670936
140.83014228374128,201.18320713937902,45.26469964918636,117.14516167872122,24.101278586305277,62.4023030302022,65.33817652987891
140.79018615934763,201.45540133428554,45.15359037703346,116.03562083544541,24.108860116988637,62.54856134171187,65.31122576585818
140.75667988639808,201.71210104313352,45.047670497520656,115.04449481279008,24.121198611511172,62.69752084440181,65.28156956631969
140.72978523688155,201.95222614142202,44.9471251617274,114.17323138934292,24.1378493530839,62.8489920704534,65.24950577744326
140.7095684739949,202.17485997397424,44.852107928394496,113.42304423905992,24.158386885930927,63.00271122279945,65.21534135621314
140.6960333215558,202.37921551071307,44.762752225669715,112.79485461369963,24.18241752527442,63.15836302314147,65.1793760290437
140.68920460304662,202.56463112352156,44.679162611742406,112.28930515000536,24.2095903408666,63.315620449879106,65.14192323572324
140.68915938374408,202.73064545853504,44.601391492377715,111.90677209881608,24.239597051909964,63.474161836706884,65.10333889546551
140.695977563167,202.8770420601089,44.52942515057877,111.64731437392811,24.272157966882062,63.633656609492895,65.06401591365861
140.70969501813414,203.0038005891002,44.46319109579919,111.51062851509647,24.307004618125656,63.79374993927893,65.02435294012726
140.73031371520128,203.11105586885125,44.402571372967046,111.49607104719088,24.343876386342117,63.95406401856896,64.98473946951499
140.7578174230296,203.1991291260433,44.3474007867022,111.6026815998948,24.382534421798375,64.11420101207759,64.9455667192736
