HandOpen,HandClose,Wrist Flexion,Wrist Extension,Supination,Pronation,Rest
0.0,2.841950130030663e-06,0.0,0.0,4.059928757186661e-07,4.330590674332439e-06,7.172540804363102e-06
1.353309585728887e-07,2.9600983007918772e-05,1.353309585728887e-07,1.353309585728887e-07,5.33069252093906e-06,4.540269906417874e-05,7.52743439892433e-05
1.4611252703096133e-06,0.0001537126352658958,1.4611252703096133e-06,1.3257943117367246e-06,3.64473034460444e-05,0.00023731978403081753,0.00039395466983733264
7.927823099855037e-06,0.0005396928266680656,8.87513980986526e-06,6.602028788118313e-06,0.0001714221869612242,0.0008383077436702228,0.001393585554620853
2.9289289311739452e-05,0.0014638171000911759,4.073514483106275e-05,2.3769908192204254e-05,0.0006196391569367001,0.002285742600652193,0.003805080697867656
8.593020065057742e-05,0.003311310174510462,0.00015376310403091188,7.49319422894332e-05,0.0018321002933595482,0.005193210328915986,0.008655139535458968
0.00022463226306867465,0.006560368325285806,0.0004900756491905223,0.00022630054828486046,0.004621636571318646,0.01032466673196415,0.01722027797239922
0.0005633835820837184,0.01176290760154861,0.0013429379039934597,0.0006522456206507485,0.010259675185266295,0.01856086519978491,0.030965719947181947
0.001376446463744729,0.019525857077784592,0.003227216951024434,0.0017326170022338534,0.020520827215827875,0.030864646455080892,0.051483586904091896
0.0032063493432310337,0.030493144516052086,0.006936421020940011,0.004159642406048098,0.03766368053414215,0.04824781965312137,0.08043736909235717
0.00696910133703232,0.04532904161256131,0.013569544162506697,0.009018784819488073,0.06435869152269946,0.07174498005686279,0.11951588571515984
0.014018485158575794,0.06470787183700111,0.024518992332652777,0.01781783701375974,0.10358715837106752,0.10240502270826587,0.17040423548072595
0.026151418275098173,0.08931987772619676,0.04142576268014432,0.03246106571699606,0.15853187303672342,0.1413105782029619,0.2347903033746363
0.0455585907356787,0.11990242952526174,0.06611796407817039,0.05518291463190597,0.2324707019512481,0.1896276358993579,0.31442537960071715
0.07474040469262082,0.1572963976589697,0.1005461677882031,0.08846161040900956,0.3286789520336133,0.2486782047140298,0.4112361975075574
0.11640986458865807,0.2025134861020683,0.14672171094135078,0.13492944999979328,0.4503456551335508,0.3200188433073387,0.5274579236367695
0.17339635747585913,0.2567903391301218,0.2066595772490973,0.1972887406009026,0.6005138926668189,0.4054985288600122,0.665742800459863
0.24855704606607093,0.3216074165318302,0.2823272953944406,0.2782366395972705,0.7820630696212744,0.5072707210887801,0.8292041222146965
0.3446995590842971,0.39866624856096405,0.375605039450552,0.3804016011174795,0.9977474219883066,0.6277522212012266,1.021378629326576
0.46452008575765774,0.48983618920473043,0.4882661485021233,0.5062982365111331,1.2502826780424088,0.7695435423970198,1.2461218139626802
0.610565702771869,0.5970875165681058,0.6219855122969565,0.6583129007055598,1.5424463787036526,0.9353345390649455,1.507469443016375
0.7852358650724828,0.722423186050757,0.7783732679719674,0.8387301904547525,1.8771472396427045,1.1278126032211229,1.8094947213430932
0.9908325072716853,0.8678162631349278,0.9590189126845903,1.0497950408035912,2.2574326298934713,1.3495801632705113,2.156175865506168
1.2296454998612985,1.0351568422099675,1.16552558977829,1.2937860161751509,2.6864322310348925,1.6030829822587702,2.5512785233228046
1.5040376808986167,1.2262113121314424,1.3995184391427062,1.5730679557050278,3.167260111182301,1.8905521266510026,2.9982558515429925
1.8164908365378465,1.442599106262651,1.6626216329108376,1.890101142486961,3.7029024736875753,2.2139673222797316,3.5001749813651886
2.1695925866639247,1.6857932797533488,1.956411937908331,2.2474032131601125,4.296109247469095,2.575052799870976,4.059687170132478
2.565971634651439,1.9571453317754017,2.2823636662953373,2.647477313539478,4.9492975017590535,2.975311679260028,4.679057313064533
3.0082057946516017,2.257922511923509,2.6417964151394915,3.0927260610359224,5.664472429829475,3.4160903784090997,5.36024475235446
3.4987260209393334,2.589336245366614,3.03583003992568,3.585366819694127,6.443182691614723,3.8986480313296825,6.104990444323974
4.039737469838559,2.9525432906412985,3.4653483866973227,4.127361289070088,7.28653205862775,4.4241961263393925,6.914852227370447
4.633184287052285,3.348617030755173,3.9309784674452515,4.72037634128325,8.195232313724276,4.9938852104488785,7.791170116283029
5.2807667079740135,3.7785042693404782,4.433096106975128,5.365783323969738,9.169638865571878,5.608753086560959,8.73500868316392
5.983970507771489,4.242991894195816,4.971852510356336,6.064670990809971,10.209740274555342,6.269676402489321,9.747140046786772
6.744057808980344,4.742698145314924,5.547194221995976,6.817836520408196,11.315140761466063,6.977348046204288,10.828068931913938
7.562022475386144,5.278076806553062,6.158861427533578,7.625757575858188,12.485076541082423,7.732262204349784,11.978039718971013
8.438557683121704,5.849409535860911,6.80638276627748,8.488582576933227,13.71844780801664,8.534682828347457,13.196995195224753
9.374057820371942,6.456782851393977,7.489089812685015,9.406150806747172,15.013824582292253,9.38460123381811,14.484531163793191
10.368624136910547,7.1000717392087385,8.206145265333987,10.378008521972221,16.369430147217376,10.281708738569177,15.839899322797
11.422044664542485,7.778943654137367,8.956557918607636,11.403397047578771,17.783147654841784,11.225396858675285,17.262044698834213
12.533768298534648,8.492868479686763,9.739176481142431,12.481237774960757,19.252564618099694,12.214769485641167,18.74961950590038
13.702908908128249,9.241114574491956,10.55268566603215,13.61014991257113,20.77501190482934,13.24864653831255,20.300957820411504
14.928273565781067,10.022734173002986,11.39562228540783,14.788493508822683,22.347563119964928,14.325565391753349,21.91406093591507
16.20837497342324,10.836559566904619,12.266395808499077,16.014395693228344,23.96702262273676,15.44379948778067,23.586630541273596
17.541415826191006,11.681221551301551,13.163292891250995,17.285744376777405,25.6299500921028,16.60138744751617,25.31611594247766
18.92528288213402,12.5551750033179,14.084477191689654,18.600183174323767,27.332718784413604,17.79614658949918,27.099724734542853
20.35758302676922,13.456710164646307,15.028009358920503,19.955140102370233,29.071556445540047,19.025667025334606,28.934410571469247
21.835696278488605,14.38395499829848,15.99188181495254,21.347872676534784,30.842546591374056,20.28731227026615,30.816893596007787
23.356798682660127,15.334894416439319,16.974037517319385,22.77548999149558,32.64163292059592,21.578245261315512,32.74371847738573
24.917856342900762,16.307411275928843,17.972363667412377,24.234952094608627,34.464667791985285,22.8954642710906,34.71129151212456
26.515636673867657,17.29932062931466,18.984687154954653,25.723082920613894,36.30747763960419,24.23582164023621,36.71586614452716
28.1467553552098,18.308375272376686,20.00879533656745,27.23660677696885,38.16589020039034,25.596026675320488,38.75352147640573
29.807718972355495,19.332258615617036,21.04246885154812,28.772175741770386,40.03572376180479,26.972659816894367,40.820186806667806
31.4949278893429,20.36859877085148,22.08349574900259,30.3263681134847,41.912790458545004,28.36221010391161,42.911698737429084
33.204666228363536,21.415011217859607,23.129663020032606,31.895684327078737,43.79293403018539,29.761113352192993,45.023832795540415
34.933127798711546,22.4691374693235,24.17875200001479,33.47657142048473,45.67206065021105,31.165766885839,47.15229362447806
36.67647398573073,23.528651147896454,25.22855348920745,35.065463524351834,47.54613144576057,32.57253129263297,49.29271308013394
38.4308709856698,24.59124635604389,26.27688524249036,36.6588014314162,49.41114891560428,33.977745984575506,51.44069242694818
40.192484224929025,25.654643145655058,27.32158948989475,38.25302568439334,51.26318287156266,35.37775917648872,53.59185331676951
41.95747112895687,26.716615844356546,28.360514955440678,39.844578246139086,53.09842380367569,36.76894799565181,55.74184632405896
43.722011827082135,27.775013438730824,29.39150613350046,41.42993714903983,54.913209254318,38.14771961866595,57.88633094429167
45.48235564866162,28.827750114639876,30.4124116451658,43.005659548541885,56.70400483362221,39.51051382360287,60.02098374091231
47.23483604181566,29.872784768701212,31.42109904441887,44.56839519838914,58.46738270379621,40.853827356062695,62.14154478654366
48.975853981165386,30.908123741230966,32.41545859840169,46.11487627842995,60.20003904301922,42.17425102483722,64.24384970942315
50.70187476191586,31.93185237029606,33.393402007382605,47.64192079177674,61.898832341620825,43.46849208256377,66.32381459063551
52.40945887842072,32.94216324299358,34.35287685997236,49.14645731903823,63.5607945475282,44.73337638202951,68.37741186830425
54.09529315029936,33.93735387375537,35.29189671000996,50.625538768425535,65.1831122449987,45.965854864390025,70.40068928016532
55.756186188466216,34.91580689135909,36.2085613280055,52.07632701657553,66.76312349460733,47.16302756142969,72.38982112677319
57.38904420921625,35.875979579706495,37.101054500443766,53.49607643247116,68.29834806428514,48.32216466420685,74.34113347431429
58.99087054861904,36.81640313540426,37.96764020119862,54.88215107189955,69.7865100644159,49.44070420824566,76.25108411326535
60.558794860269835,37.735673085498995,38.80668038419442,56.232064320807346,71.22552100090655,50.51623717604035,78.11624606472373
62.09009150997397,38.632428072760504,39.61666385714098,57.543496459595424,72.6134541739425,51.54650598660536,79.93333602365477
63.58216377553431,39.505337699457904,40.3962164218193,58.814277331071594,73.94855938658574,52.52942229545515,81.69925840962061
65.03252411765877,40.353114267721246,41.1440885757563,60.042370583854854,75.22931060967052,53.46308244381844,83.41111247053945
66.43880424104307,41.17453355213349,41.85914997080855,61.22588734186068,76.45442892330591,54.345761412067716,85.06616838949476
67.79877954664765,41.96844010694087,42.54040797051066,62.36310830124797,77.6228557349232,55.17589426967195,86.66186587567327
69.11037129892237,42.73373917890438,43.18702813117528,63.452481238396174,78.73371877841466,55.95207327130973,88.19585221347272
70.37162675057237,43.46939868344802,43.79833046366242,64.49260099270072,79.7863345353326,56.67307597477188,89.66601249751086
71.58071356820574,44.174467883443405,44.37377211263024,65.482210367077,80.78022950928461,57.33790262838973,91.0704579098365
72.735945777847,44.84809228410896,44.91294366243047,66.42023465950501,81.71513438174956,57.94578848442485,92.40750882028148
73.83581150458458,45.48950969970444,45.41557896445182,67.30581231335016,82.5909496186532,58.49619091776446,93.67571487191744
74.87896979011104,46.098042218607965,45.88155364294726,68.13828799174291,83.40772535029521,58.98877905005195,94.87388485412673
75.86423067862103,46.67310847871155,46.31086371186485,68.9171902518768,84.1656712779488,59.423436530025434,96.00107810103385
76.79055753639172,47.21425278078682,46.70360719318736,69.6422341343709,84.86516004446464,59.80026060302384,97.05657232210713
77.65709470429907,47.72115998512981,47.05999103060738,70.3133421262006,85.50669772494777,60.119546065921476,98.03986284149327
78.46318123871184,48.193641506901145,47.38035151645613,70.93064328436046,86.09089212533847,60.38177093351336,98.95069747024826
79.20833044977195,48.631614524043044,47.665157232386875,71.49444367253308,86.61846375826083,60.587605236499435,99.78909021663172
79.89220776415652,49.03509840328213,47.914988327206416,72.00520772749654,87.09028916928435,60.737931707051985,100.55528503440723
80.5146435170913,49.4042209594536,48.13051677010544,72.46357430665523,87.50741868982148,60.83384524521712,101.24971443966501
81.07566522850681,49.73921195713545,48.312504029560074,72.87037525797956,87.87104763513648,60.876623202220244,101.87300405290296
81.57550523609198,50.04038202969464,48.461802216977794,73.22661693319073,88.18249181982756,60.8676946388573,102.42600487675861
82.01457923320218,50.30810732849114,48.579339114595655,73.53343796213508,88.4432124983026,60.808635369972386,102.90979420542159
82.39347619839305,50.54283002668556,48.666091714811,73.79208778255088,88.65485772197111,60.70118029448276,103.32563565799198
82.71297644521881,50.74505910020101,48.723069739331486,74.00393494274523,88.81925696253617,60.54722165006914,103.6749495464685
82.97406164290244,50.91535460576107,48.751317424109686,74.17046759135125,88.93836730501073,60.3487843615345,103.95931882805365
83.17788784119158,51.05430210687202,48.751917124834115,74.29326252128679,89.01422881420223,60.108005544929135,104.1804907685215
83.32574673317953,51.16249817286417,48.72597695375399,74.37394914869803,89.04896553620623,59.82713910782226,104.34033968271844
83.41905697230365,51.24055680290649,48.67460880375238,74.41420158482015,89.04480272538174,59.508566067432184,104.44081912349988
83.45938353087284,51.28912290856592,48.598921090138,74.4157493552616,89.00405310846386,59.15477962964333,104.48395302826488
83.44844150872186,51.30887300463579,48.500037548746306,74.38037177455752,88.92908012906788,58.76835082055642,104.4718631619904
83.38806600809069,51.300506762869915,48.37912080384595,74.30986883358332,88.82228557235364,58.35190982538548,104.40677856469135
83.28018811891768,51.26475017720775,48.237373476924674,74.20604017311018,88.6861265239193,57.908154670680275,104.29099925064061
83.1268555546767,51.20237216865903,48.076024793872364,74.07069385761733,88.52311318291402,57.43985685258121,104.12685287155487
82.93027116690972,51.114192309133614,47.89633706685977,73.90566138107928,88.33576509666996,56.94983847424083,103.91669072091126
82.69279233689633,51.00106782549032,47.69964037880359,73.71278560193412,88.12656609881972,56.44094005517738,103.66290973214426
82.4168850851592,50.863875782940035,47.487358405475995,73.49389039166381,87.89795833702503,55.91601190268981,103.36794915703423
82.10508165273224,50.703510293496535,47.26099539247276,73.25076862589917,87.65235554015032,55.37792393063736,103.03425123215952
81.75997265491023,50.52089145545081,47.02210451804137,72.98519602842059,87.39212770166596,54.82955949519477,102.66423315392952
81.38420713669731,50.31696592435637,46.77227427760266,72.69893834809852,87.11955523109637,54.27378412229045,102.26030365777264
80.98046400329673,50.09269314892409,46.51313499761923,72.39373221137448,86.83680125728834,53.71341843794559,101.82489140153552
80.55140724994428,49.84903554803817,46.24635677972907,72.07126606128729,86.54593014617404,53.15123700740032,101.36043662248913
80.09966524427267,49.5869666685682,45.97362386691832,71.73319371621817,86.24893648940652,52.589975004563186,100.86935843077441
79.62783834484472,49.30748408406479,45.69660435957564,71.38116683636918,85.94773771905207,52.03231238234937,100.35405215151461
79.13849722878778,49.01160665528649,45.41693909900341,71.01684306121349,85.64414503097919,51.48083869362362,99.81692416811916
78.63415398077896,48.700360378649115,45.13624472905324,70.64185986854658,85.33986711456205,50.938031027057306,99.26040818609657
78.11723905553887,48.37477719817666,44.85610589833989,70.25781066935096,85.03655293983209,50.40625753432665,98.68693317016452
77.59011741419545,48.0359161509677,44.57805004700393,69.8662518376036,84.735816913713,49.88778053677343,98.09888888104639
77.0551225077437,47.68488442369594,44.30352832852317,69.4687211660273,84.43921803313891,49.38473569260895,97.4986372600073
76.51455975819933,47.32283526205138,44.03392084839113,69.06673143615622,84.14824030232573,48.89910056824907,96.88854512169569
75.97067230088119,46.950952350494134,43.77054934952906,68.66174254599929,83.86431704433505,48.432681733607645,96.27097954299765
75.42560968345813,46.57044446867335,43.51467125115688,68.25515034140416,83.5888652694566,47.98712325703441,95.64826048263298
74.88142973519057,46.18255099190546,43.26746035017407,67.84830390732867,83.32327439005178,47.56390918794944,95.0226250574845
74.34011381166621,45.78853859987755,43.029999488891995,67.44251693621483,83.06885757790383,47.16434440279328,94.396239596963
73.80355843475338,45.38968280505563,42.803288308618164,67.03904900205048,82.8268223926819,46.789534777056964,93.77122595448652
73.27354715405102,44.987252117931085,42.58824345431688,66.63908292043023,82.59828086385015,46.44039208615142,93.14965075289071
72.7517421436272,44.58251003341948,42.385683185470896,66.2437344070634,82.3842573909569,46.117654956510606,92.53348793075502
72.23970686186016,44.176722813482066,42.19632152907626,65.8540841490734,82.18565998131918,45.82189655428557,91.92460810120791
71.73892174295108,43.77115122971854,42.020793270104534,65.47118940679991,82.00324044033545,45.553513195336166,91.32480327176444
71.2507665995081,43.36702918213707,41.85968935584916,65.09606351932605,81.83758929749911,45.31271886343771,90.73579585350762
70.77649733400482,42.96555457131597,41.71356443941764,64.72966220417104,81.68916363964044,45.09956119588131,90.15920450145606
70.31725192720265,42.567903176153166,41.58291181205978,64.37290814358,81.5582997246568,44.91394051253947,89.59650732179028
69.87407269834544,42.17524356400374,41.468136573112645,64.02672781383824,81.44518828838885,44.75560907100513,89.04904914938952
69.44790521834885,41.78873006007537,41.36955078659768,63.69205387066345,81.34985031176691,44.624159361463036,88.5180767468021
69.03956836525094,41.40948453182091,41.287381059208805,63.36979486153227,81.27215045241013,44.519031046573595,88.0047465231406
68.6497340808374,41.038592363502424,41.221765212208176,63.06081547705111,81.21182800601139,44.43954588474821,87.51009118488602
68.27894462600311,40.677111827589016,41.17273654010065,62.765943352295814,81.16850209638585,44.38494334195771,87.0349949691128
67.92764290477773,40.326072946302816,41.14021686789514,62.485970741570334,81.1416512789746,44.35438848182583,86.58021906902717
67.59617549127809,39.98645694856504,41.12402717819072,62.22162734109089,81.130610831205,44.34696125212963,86.14644815416747
67.28477326860141,39.659175830086234,41.123896791250495,61.97354876168484,81.13461095550551,44.36165877991944,85.73429997751155
66.99354970980997,39.34507323585175,41.13945546558619,61.74227822037318,81.15282223576044,44.397420267278164,85.34429781547269
66.72252668710072,39.04494031740757,41.1702221053376,61.52829523722613,81.18436473360762,44.45314994233095,84.97685888558566
66.471651369484,38.75951971552892,41.21561404282402,61.3320277199676,81.22829450764279,44.52771723688675,84.6323172044588
66.24078206399363,38.48948828705299,41.27497672327939,61.15383162237744,81.28361874683189,44.61995076613094,84.31093684155064
66.02967463858835,38.23544137148053,41.34760618496227,60.993973251933,81.34934462312492,44.728655997194544,84.01288520469433
65.83800726141912,37.997901656904865,41.43274489337661,60.85264349980282,81.42450852451802,44.85265158560337,83.73820026118695
65.66542656871252,37.77734245349174,41.529564788051886,60.72998195215408,81.50815830115496,44.9907885069569,83.486797375472
65.51156572114344,37.57419620236004,41.637166291805656,60.626073341332734,81.5993295880105,45.14193924203499,83.25850468148948
65.37602296985354,37.38884402774971,41.75460211251314,60.54092275090616,81.6970589136991,45.30498804317135,83.05307449418888
65.25833955476955,37.22161060590121,41.88090347314052,60.47445041080199,81.80041403844253,45.47885314032677,82.87015419817328
65.15800675896668,37.07277310705587,42.01508557760451,60.42651659374979,81.90849571399279,45.66252540427246,82.7092617930232
65.07448302102294,36.94256294351227,42.1561406904904,60.39693874194148,82.02041324906767,45.85508139308971,82.56980656409662
65.00718881177127,36.8311481077579,42.30304214078895,60.38547302277257,82.13528098710563,46.05566450473221,82.45113022569974
64.95548757425993,36.738615332539496,42.45476007046128,60.391782279464294,82.25225075373703,46.263470986516666,82.35251728627568
64.91868995452015,36.664972123116534,42.610268256407515,60.41542726298509,82.37053557343471,46.47775988908149,82.27317667158803
64.89608705188644,36.61015867980318,42.76853463106908,60.45588255251097,82.48939128742887,46.697861222602306,82.21224431399563
64.88697254826029,36.574046354420396,42.928514421525115,60.512544695549686,82.60808917343547,46.923156594449004,82.16882036476117
64.89062858274738,36.556422506986216,43.089161442370184,60.584717712791985,82.72592639340478,47.15304460956975,82.14199385511868
64.9063043917849,36.556985197941884,43.24944484185945,60.671604064955964,82.84226021950893,47.38692234611153,82.13082449839096
64.93322549092883,36.5753585507093,43.40835067067841,60.77232703738662,82.95651363849366,47.62419221774299,82.13431995431785
64.97062360275326,36.611109900368014,43.56487187692217,60.885963990795155,83.06814337863496,47.864270091694294,82.15145807021169
65.0177456371799,36.66374799262969,43.7180118129496,61.01155425989515,83.17661803534195,48.106571692247506,82.18123899011495
65.07383080819228,36.73270947984947,43.86681321986428,61.148088191735205,83.28143705508269,48.35048859331148,82.2227067021617
65.1380934611324,36.81735812793153,44.0103896139976,61.29451775814219,83.38215766908553,48.59538340527356,82.27492142199216
65.20974299995447,36.9170026258727,44.14793055639465,61.449796840621865,83.47838813182037,48.840610650391305,82.33693189036175
65.28801806175322,37.03091052045767,44.27868723059496,61.61290917095098,83.56976600162474,49.08553565832711,82.40779145503035
65.37219068703166,37.15830134525369,44.401968031552514,61.782855789018654,83.65596654947556,49.32952851367958,82.4865937833556
65.46154023700689,37.29833339448596,44.517154691084784,61.958630148565426,83.7367332749968,49.57194955334521,82.57247575569741
65.5553397915793,37.450107434486924,44.62371763313121,62.13922248295631,83.81187997040365,49.81215628577358,82.66458944991066
65.65287886126592,37.612685210285456,44.72121005357342,62.32364977074456,83.88125065364441,50.04952688623672,82.76209652257324
65.7534942168992,37.78509960109182,44.80925077128423,62.510970058976575,83.94468047241814,50.28346851453646,82.8642023710639
65.85657211312704,37.96634620572096,44.887520237576275,62.70026535098882,84.0019954827634,50.51340443282729,82.97018057196229
65.96153264730188,38.15537218631227,44.95577204467822,62.89062826164259,84.05303361998014,50.73877045869602,83.07935330200617
66.06783242523076,38.35108279448125,45.01383745735795,63.081185036519386,84.09764360600676,50.95903779038997,83.19106661837331
66.17498399286484,38.55236351555454,45.06161124179655,63.27113307560795,84.1356604602298,51.173736896493274,83.30470583918556
66.28255566871606,38.758093916656975,45.09903637137298,63.459748292143885,84.16690096094179,51.38245297456089,83.4197267016193
66.39014194473911,38.967141264337656,45.1261075380645,63.646361308295994,84.1911952613473,51.58480163809779,83.53564964777598
66.49733949264677,39.17835202113796,45.14288529489568,63.83034286213742,84.2084119758042,51.7804179953495,83.65202217991879
66.60375796745626,39.39056146117375,45.14949608390945,64.01111619712007,84.21844104797479,51.96897106324806,83.76840455140817
66.70904602054146,39.60261417024714,45.14611512695343,64.18816671831298,84.22116141391544,52.15017759938337,83.88439655165524
66.81289363239296,39.81337333848683,45.13295642990181,64.36102226841822,84.21644220428703,52.323790002023564,83.99965657627573
66.91501328955806,40.02171643945664,45.1102819902072,64.5292235680605,84.20417686395581,52.489572720123014,84.11387665482043
67.01513900890137,40.22653845529861,45.07841020997716,64.69232019665442,84.18430113851,52.64730138640584,84.22674795352974
67.11305129956861,40.4267730068999,45.03770300368482,64.84989034303005,84.156769789593,52.79678822596211,84.33796759536001
67.20858815163164,40.6214125618366,44.98853881006648,65.00154913553493,84.12152683867242,52.93789959342782,84.44727542457296
67.30161879050924,40.809507613085685,44.93129432158093,65.1469319198061,84.07851250207177,53.0705443920789,84.55446416104586
67.39201077435796,40.990151943502795,44.86634528917331,65.2856836505149,84.02769684077252,53.194656634921586,84.65934839154626
67.47962866980025,41.1624776424237,44.794071771569655,65.41748175911088,83.96909113238947,53.310201672742515,84.76174233763395
67.56435636537594,41.32566926974765,44.714848360535534,65.54206912555236,83.90272200773481,53.417195640154574,84.86148376810696
67.6461021210099,41.47897970377122,44.629022861059305,65.65925525973233,83.82861084721148,53.515704970210905,84.95847129570689
67.72477250177789,41.6217279587604,44.53690558103761,65.76888834846282,83.7467907397137,53.60582148212844,85.0526616496541
67.80024928126727,41.753285271885204,44.4387817160816,65.87084325165229,83.6573319882122,53.68764543553172,85.14403522487571
67.87240129608372,41.87307255474212,44.334932226224375,65.96504747794467,83.56033484270434,53.76129839188787,85.2325877724054
67.94111285444747,41.98057661742296,44.225639607991525,66.05150934646092,83.45590317008217,53.82694322628448,85.31836358526424
68.0062866944721,42.07536500068352,44.11117852080488,66.13030985057961,83.34414675587948,53.884778573524024,85.40147655214176
68.06781961271027,42.15708039647975,43.99181236034378,66.20157742241017,83.22521828999783,53.9350142308833,85.48208187336675
68.12559089312525,42.22542481725747,43.86780463114092,66.2654865006456,83.09933611741921,53.977860548651435,85.5603358578283
68.1794822600118,42.280157298306904,43.73942918948114,66.32227454687393,82.96676348677157,54.01354106168385,85.63639773639939
68.22939775587184,42.32110954461231,43.606963931207616,66.37223786895628,82.82777955258159,54.042301914135614,85.71046355328065
68.27525313695126,42.34819963432304,43.470676485327765,66.41569810913879,82.68268637278265,54.06439843743236,85.78277319647805
68.3169558745485,42.36142634880762,43.330823405224756,66.45297798017351,82.53183835032918,54.0800768463398,85.85357164153123
68.35441671035541,42.36085096630595,43.18766715911194,66.48441407339617,82.37564391425707,54.08957935445955,85.92307628591998
68.38758743043887,42.34658912397019,43.04148972797889,66.51038057749773,82.21452752756575,54.093167900008105,85.99149696307596
68.4164772201904,42.31882303299145,42.89258624070689,66.53128271152471,82.04889408198818,54.09113323177451,86.05907909161861
68.44112993707378,42.27781620496028,42.74125310095071,66.54752497455465,81.87912810252821,54.08377709317011,86.12610776052925
68.46160248243564,42.223909839727526,42.587796452393356,66.55949676006087,81.70560595227913,54.071395221647755,86.19287168812991
68.4779817998271,42.157510042717696,42.43255828154447,66.56759148539679,81.52868391049888,54.05428608520324,86.25964311793223
68.49041870440116,42.0790892282995,42.27592918379305,66.57222387817629,81.348671391027,54.03276975816696,86.32669423103337
68.49913077517675,41.98919939403314,42.11833316364522,66.57381306201769,81.16583302678826,54.007185326889065,86.39430569418923
68.50437391459675,41.88847145963076,41.960205939653385,66.57275168945084,80.9804258150803,53.97786686583943,86.46273423931386
68.50642791577046,41.77759244838493,41.80199118131693,66.56939972052601,80.79272346346193,53.94512888202678,86.53217055758309
68.50561222497167,41.65728521687766,41.64414938772279,66.56410034212571,80.60299856005975,53.90927694733266,86.6027358605788
68.50229365664178,41.52831303212778,41.48715576930079,66.55718159714831,80.41149608586561,53.870621503223184,86.67451229256453
68.49685891498706,41.391495337108545,41.33148198380167,66.54893157669773,80.21844448206834,53.829468544915606,86.74755511696674
68.48967956440876,41.24770493038443,41.17758422759648,66.53957796559835,80.02409703548284,53.78609552680532,86.82186507144237
68.48110801465226,41.09784357790134,41.02591323462268,66.52929836542404,79.8287517435866,53.740745169454435,86.89736437485647
68.47149767527851,40.942822459500235,40.87692869207655,66.51824287262606,79.63272748375414,53.69364822604595,86.97391643327798
68.4612060466454,40.783564596702774,40.73109355374179,66.50653311644126,79.4363341539339,53.64504592381234,87.05136170083708
68.45056675991769,40.621012671758336,40.58885473293616,66.4942407800042,79.2398728060294,53.5951855935495,87.12951860380136
68.43986589550192,40.456118172176645,40.45063955140039,66.48138527990962,79.04364779648259,53.54430463351501,87.20815529594931
68.42935420089847,40.2898178799404,40.316877288442456,66.46796396039139,78.84795602558982,53.49262892956238,87.28698420392233
68.41927419914036,40.123024254909474,40.188018872044054,66.45397635899177,78.65306281412117,53.44037985561582,87.36569347737456
68.40985957325006,39.956635978497616,40.06452961204431,66.43941003696406,78.45920536462735,53.38776635616862,87.44396769540977
68.4013077435146,39.79154470302862,39.9468661162443,66.42420966382565,78.26662735001047,53.334961756694284,87.52146561684228
68.39376858576337,39.62862000967383,39.83546546844028,66.40827364863635,78.07559792660203,53.28209319555624,87.59779174686203
68.38736795322085,39.46868699198738,39.73075326633083,66.39148446435269,77.88638963789117,53.229260945190845,87.67251217223625
68.3822315840818,39.31252286958899,39.63314916283604,66.37373170069291,77.69925171169353,53.176564610980016,87.74520155912386
68.37847653995753,39.16087475625199,39.543052658655625,66.35489912613681,77.51442042442862,53.12410428484603,87.8154620944462
68.37619105987511,39.01447217017186,39.460821426679345,66.33484089901894,77.3321496464521,53.07196380767662,87.88289671437484
68.37544432935394,38.87401511655498,39.386766966033896,66.31338661260408,77.15271247323427,53.020208440786405,87.94708640647214
68.37632158221376,38.740151788641526,39.32116964915447,66.29037130177674,76.97636620561028,52.96890233929312,88.00761446393203
68.37893793796187,38.6134739385364,39.26428781808446,66.26564941393542,76.80332419536748,52.918116693224405,88.06410982023894
68.3834125378256,38.494534495121805,39.216344408285806,66.2390768875834,76.63376401902741,52.86791196028187,88.1162533044614
68.38984119206609,38.38386124005529,39.17750686780621,66.21049609345232,76.46784568828156,52.81831701723555,88.16374902074655
68.39830798052131,38.28194752949513,39.14788542893656,66.17975507578821,76.30570254360485,52.7693332748223,88.20631690465545
68.40892018040478,38.1892369135242,39.12755022724352,66.14673927828116,76.14741816372508,52.720955599536836,88.2437254286744
68.42181636230265,38.10612730764414,39.11654214108932,66.11137400714688,75.99303387846017,52.673179105245495,88.2758154306016
68.43713656811117,38.03298903817087,39.11486141740699,66.0735975188956,75.84258914402295,52.62598535940037,88.30248276989724
68.45499753580364,37.97016817447048,39.122450595092275,66.03334296052789,75.6961444220322,52.579335063859816,88.32366283619407
68.47550282426454,37.91796588902761,39.13919777457229,65.99055128353703,75.55376078259935,52.533186205274156,88.33936255476931
68.4987609406145,37.87661652244196,39.16495865376844,65.94519254814907,75.41547811995477,52.48751913054078,88.34970707996483
68.52487433469473,37.846287509585316,39.19956942380011,65.89726185570564,75.28134055635698,52.44234108088325,88.35493916553456
68.55391023426908,37.82709436174393,39.24283656649709,65.84675394946235,75.15145000065228,52.397681835879,88.35537857483023
68.58589159943409,37.8191051060167,39.29452196274932,65.79364915664246,75.02598466198886,52.35361828847034,88.3514070386715
68.62081282397978,37.82232836847318,39.354344120909786,65.73791927936534,74.90516593400424,52.31032510180381,88.3434983380079
68.65864560227539,37.8367092246908,39.42198934283678,65.67952734024361,74.78922564048042,52.268099192934685,88.33223609228983
68.69931733713292,37.86215033882173,39.49711148750426,65.61840879896114,74.67841636635164,52.227332761862804,88.31827936476259
68.74268991334596,37.89853905180504,39.579316660900844,65.55446130330002,74.57303912594382,52.1884736580037,88.30231610694103
68.78856954611146,37.94575069685788,39.66815327103176,65.487567623091,74.47343777927028,52.15201813600955,88.28505415159188
68.83673416275997,38.00363246639985,39.76312147130425,65.41763105994549,74.37996337066542,52.11852765706313,88.26723131651124
68.88693931347922,38.07199798504478,39.86368817466001,65.34458465171365,74.29295974238839,52.08862660645676,88.24959524659567
68.93889633956869,38.150641986187814,39.969287315782665,65.26837528078721,74.21278719093942,52.06296665039014,88.23285495935514
68.99225921671496,38.23935098372608,40.079308399855464,65.18896033209396,74.13983717944676,52.04218867781583,88.21765430843365
69.04664261241683,38.33789114002297,40.19309783317365,65.1063300724986,74.07450410509819,52.02691104834239,88.20458523858471
69.10164444115397,38.44598873281832,40.30998710868302,65.0205227007083,74.0171495747323,52.01773288019085,88.19419703119836
69.15684072630047,38.56333069858846,40.429326333107596,64.93160643055087,73.96810697041855,52.01522328649606,88.18696694612369
69.21176679793871,38.68958565802093,40.55049200860671,64.8396517457746,73.9277116452126,52.01989717831163,88.18326201211569
69.26592279929433,38.8244169413281,40.67287298524662,64.74473105018235,73.89630409480581,52.03220710174093,88.1833401341407
69.31880508112445,38.967470051879175,40.795865798813665,64.64694189329012,73.87419948867836,52.05255849991813,88.18738485939542
69.36992353419203,39.11835116627483,40.918891707919116,64.54641501395355,73.8616765930909,52.08131758649167,88.19552198522811
69.41878427051985,39.27662339511877,41.04141299182985,64.44329343415444,73.85901589445434,52.11879209194477,88.20779999394618
69.46486791960722,39.44182240189404,41.16292599806321,64.3377148161756,73.86654115711623,52.16520962070629,88.22418132988876
69.50763889748778,39.613466739049706,41.28293952428553,64.22982400597387,73.88460977319335,52.2207265968445,88.24458229345723
69.54657508933444,39.79104829337495,41.400965858330906,64.11979616425852,73.9135698301324,52.285458824708705,88.26892500397145
69.58117861177476,39.97401849530802,41.516535591160746,64.00783641019562,73.95374383383883,52.35949343831729,88.2971422351934
69.61095821908279,40.16179114514882,41.62921532214977,63.8941643251319,74.00545072146244,52.44286814579446,88.32914112464569
69.63541556897113,40.35375772863497,41.738605461082294,63.77902574000754,74.06901552788413,52.53554667425294,88.36478422000992
69.65405684501371,40.54929253015541,41.84432763100638,63.662736953274326,74.14473575020692,52.63741653710649,88.40390915776274
69.66640809975955,40.747740575892145,41.94602478623692,63.54571026429288,74.23284127964413,52.74829769615237,88.44634313645423
69.67200805305256,40.9484082195824,42.043372646085245,63.42842848582078,74.33349263039652,52.86793702660958,88.4918791993808
69.67039305740767,41.15057155535668,42.13608064832053,63.31140092125598,74.446801849038,52.995993007980154,88.54024903090223
69.66110858868176,41.35349022235774,42.22387646339388,63.19514880977872,74.57282814912044,53.13204016119437,88.59114084543405
69.64374462513003,41.55640768113818,42.30649591139297,63.080221538978975,74.71154452119104,53.275598150319816,88.64424677032935
69.61795371943103,41.75854171609987,42.38369669428272,62.96720269656614,74.86282059779079,53.426152139736665,88.69927971736
69.58343278499112,41.95908804002082,42.45528169434805,62.85668464891275,75.0264426162894,53.58314418505401,88.75594433378312
69.53989885195517,42.157247442668385,42.521104582701454,62.749240325442216,75.20213388154583,53.74596015827262,88.81391406601006
69.4870924131762,42.35225504496691,42.581058951167364,62.645424489634394,75.38954245285662,53.91394055294656,88.8728563044334
69.42479888493195,42.54338597347753,42.635077438299994,62.54579092027079,75.58822026369647,54.08640307643707,88.93247507947765
69.35285316568971,42.72994425321467,42.68314805752536,62.4508873212285,75.79763499360027,54.26264567727544,88.99251382076591
69.27112202544467,42.91126175809939,42.725322826900474,62.36122373841934,76.01720449921908,54.44192846066358,89.05271827266675
69.17949739316336,43.08671350986061,42.76170108041174,62.277250802236416,76.24630579639917,54.62346570856987,89.11281426803609
69.07791840191119,43.255727212800885,42.79240306083465,62.19936780604784,76.48424910459435,54.80644816238778,89.17252864817357
68.9663950760163,43.41777096755813,42.81756147938217,62.127933501115,76.73026536272529,54.99007517611477,89.23161592515031
68.84500308435285,43.572332182678366,42.83733707622918,62.06325132912362,76.98354121347585,55.17356364605454,89.28984703889148
68.71386357174265,43.71891161707162,42.85193423222253,62.005547369485704,77.24326564156591,55.35613554325908,89.34697874833351
68.57314753583576,43.85703746950366,42.86159409142919,61.95497759291802,77.50863482541341,55.537016255267424,89.40275422136348
68.42310740568648,43.98627946370125,42.866575905724574,61.91165991010841,77.77882350311124,55.71545615505476,89.45693532470133
68.26409212115911,44.10624438499238,42.86715316799848,61.875688822530186,78.05297546741765,55.89074895086334,89.50931471472995
68.09652278207564,44.21656128306098,42.863625918226276,61.84711857558733,78.33022804552446,56.06222175503152,89.55968657304437
67.92086421469484,44.31688097538766,42.85632338332068,61.82595410826587,78.60972804609254,56.22920996545642,89.60782026987256
67.73763249922074,44.40689710760764,42.84558510443566,61.812180921564796,78.89061030109438,56.39105230716009,89.65347739797927
67.54742351036815,44.486365856166934,42.83174350453745,61.805803984294606,79.17197075557607,56.547117601034316,89.69644536841214
67.35091588865289,44.55510286865399,42.81513122007228,61.80684794353769,79.45287830906688,56.696832034346336,89.73653463372497
67.1488403901567,44.61296813242508,42.79610010367003,61.81532247896218,79.73241502244026,56.83967586329276,89.77354153071981
66.94195759237678,44.65986478051511,42.77502189847433,61.831198828333015,80.0096937035567,56.9751633204536,89.80723154234266
66.73107172013185,44.69575521151676,42.752267411722265,61.85442079286106,80.28383777609069,57.10283948570409,89.8373694807524
66.51705236572346,44.720669877995824,42.72818772470832,61.884922728552354,80.55396554676257,57.2222957844185,89.86375399762318
66.30082560811154,44.73469213649774,42.70311040455097,61.9226212516453,80.81920938582667,57.33317439375916,89.88620936751668
66.08334834030822,44.73793569421269,42.67733775351001,61.967392429560675,81.07874142232157,57.43515171070097,89.90455553005404
65.86561110144753,44.73054481308841,42.65113282929971,62.01906938947792,81.33176781772694,57.52793018960511,89.91861034693133
65.6486708015864,44.71272211548195,42.62470078044551,62.077460875591186,81.57750860371239,57.61125826057713,89.92822475003216
65.43366219292473,44.68475303563074,42.59818502324553,62.142356009006534,81.81520821912736,57.68495273876163,89.93329642769704
65.22176066004286,44.6470001983929,42.571683375733194,62.21350148909532,82.04417403155124,57.74889207939084,89.93373850484568
65.01413049136613,44.599879762494474,42.545265479826924,62.290582216658514,82.26379243901475,57.8029918648252,89.92944994983677
64.81190212079896,44.54384938883841,42.51897285323902,62.37323450564809,82.4735004838644,57.8472005820742,89.920335723027
64.6161747574297,44.47941464986391,42.4928092624751,62.46107380392461,82.67274994061142,57.88152445771094,89.90635294026534
64.42800704972616,44.407131760823404,42.46674317319744,62.55369846537031,82.86100693565018,57.90604640002816,89.88752256573078
64.24838447912856,44.327589727754884,42.44072397682041,62.65066988504571,83.03777868958345,57.92091223580839,89.863900111102
64.07819572449854,44.2413842219317,42.414690647566,62.75150786782363,83.20262088668343,57.92630289112381,89.83555803776498
63.91824106073636,44.149106530996036,42.38856298342801,62.855718740244484,83.35510986151647,57.9224237164545,89.80260439866493
63.769248394690976,44.05135162788386,42.36223397709337,62.96282412723385,83.49481960831469,57.90950999609348,89.7651960274367
63.63186266738673,43.9487246158486,42.33558101067701,63.07235618915398,83.62133984971679,57.88782279188899,89.72351206575935
63.50661877793921,43.84182769868942,42.30848384023137,63.183831809468955,83.73431132462348,57.85762692794417,89.6777226441627
63.39393939937749,43.73123797237624,42.28082600942289,63.296743538006965,83.83342979809343,57.8191737395711,89.628005066398
63.29416542196956,43.61750060058444,42.252482717555104,63.41057538100829,83.91842051548379,57.77270657412225,89.57459398394668
63.207576671338735,43.50114158339716,42.22332344760098,63.52481262759696,83.98902972868328,57.71847434200957,89.51779999696838
63.134376211685414,43.38267679521984,42.19324148980462,63.63892770670902,84.0450476289353,57.65672783292581,89.45797485682816
63.07466869784717,43.26260034745239,42.16218442014025,63.752371003952064,84.08632236034029,57.587701081734586,89.39547616183691
63.02847049156013,43.141367934107734,42.130157410643335,63.864600180625224,84.11273817162423,57.51160511214741,89.33067705366093
62.99573951041188,43.01940320518291,42.09720844202512,63.975128892082054,84.12418903854227,57.42864531442921,89.26399266715956
62.97638388327282,42.89712743398896,42.063422108850084,64.08354426465196,84.12059156928363,57.33903857938437,89.1958688227577
62.97024251278578,42.77498043700802,42.02892442852809,64.1894841556679,84.10192809752813,57.24300622337506,89.12673546011764
62.97707440196293,42.65341241878017,41.99387849126039,64.29261756246676,84.06826701310058,57.14075445101966,89.05697937562313
62.996579774505136,42.532865199649876,41.95846468209799,64.39265527469479,84.01974092209086,57.032474383216346,88.9869623336416
63.02842611816394,42.41376973956407,41.92286474976824,64.48936319147879,83.95652672533576,56.9183699725483,88.91704448925442
63.072243845981426,42.29655740182566,41.88726418003145,64.5825461260369,83.87886587702498,56.79868392569842,88.84756799447462
63.127603517914224,42.181659738059906,41.851859705836226,64.67201888713981,83.78709723312335,56.6736942788043,88.7788189727854
63.19401788662648,42.06948901011733,41.816852040301065,64.757602147713,83.6816525051872,56.543695566677336,88.71102306018713
63.270976148367694,41.96042540677598,41.78242748179528,64.83914091942056,83.56301887090768,56.40899710176608,88.64438363108943
63.357966675692744,41.8548347370856,41.74875053806883,64.91650742398357,83.43171923749719,56.26994063246681,88.57910843463054
63.45445991094006,41.753099300497844,41.71597597714193,64.98957478414098,83.28832805568474,56.12690746309637,88.51538933081541
63.55988034404172,41.655625348518136,41.68426095190062,65.05819499677169,83.13348235592353,55.98030244268068,88.45337146931229
63.67360724134468,41.56282422434176,41.65375814353757,65.12221195977382,82.96785665919143,55.83054111628423,88.39315695094433
63.794997268628414,41.475097644872086,41.62460030481888,65.18149124762114,82.792130455203,55.67806239763062,88.33482672325972
63.92338970118858,41.39284123384898,41.59690135825498,65.23592605422166,82.60699348425389,55.52334866633706,88.27843515930628
64.05808397590437,41.31644608691181,41.57077627562914,65.2854162511153,82.41318105979477,55.36692198865888,88.2239778694137
64.1983253310233,41.246280144666315,41.54635290851875,65.32985701527838,82.21148676860479,55.209320451626354,88.171380137121
64.3433264914412,41.18266168660869,41.52375833925014,65.36915537964228,82.0027324339108,55.05108775427172,88.1205242628607
64.49230260698089,41.12585059526904,41.50309821516143,65.40324679833739,81.78773697971761,54.8927860901986,88.07127275550503
64.64447986085949,41.07606258235078,41.48445862787499,65.43208284432045,81.567323639927,54.73500461458325,88.02345350392147
64.79908232129746,41.03348338732182,41.467930295805104,65.45560571303609,81.34234516164675,54.57834176813092,87.97684022280367
64.95533920556547,40.99826173919137,41.45362383607808,65.47374478407059,81.1136814856506,54.42337859568117,87.93117426144724
65.11252331107745,40.97048947636906,41.441658377878234,65.48643667953007,80.88221115517193,54.270677401309094,87.88620993656158
65.26997735382052,40.9501948785757,41.4321443107728,65.49363476436932,80.64879979886409,54.1208082685891,87.84172694388243
65.42709743265283,40.93735792603655,41.42518538098144,65.4952917131211,80.41431707762607,53.974365321651085,87.79750064087692
65.58330288730852,40.931926171465506,41.4208916658638,65.49134302338743,80.17964132202532,53.83194841558789,87.75328072960896
65.73803606439567,40.93381015122507,41.41937789836451,65.48172004733489,79.94562597947105,53.69413437087858,87.708811188344
65.89078676253428,40.94286844860184,41.42074606565601,65.46637632999544,79.71305809701514,53.561471861051764,87.66385888778942
66.04109831489473,40.958910490915855,41.42507593351288,65.44529115432466,79.48264925991202,53.43449596707078,87.61820829619747
66.18853959364304,40.98172356795133,41.43243400233784,65.41845128758578,79.2550518760234,53.31372940603796,87.57164037379462
66.33267785637044,41.01109682366155,41.442883140306655,65.38584923658514,79.03085920753809,53.199659722400405,87.52394484018014
66.47308784622662,41.04681798525953,41.45647527068842,65.34751449197232,78.81057796807669,53.092721514866184,87.47496215803731
66.60938247381964,41.08865440718434,41.473236596779344,65.3035433438412,78.59461131096742,52.99330613490175,87.42459901766827
66.74122101440494,41.13634997193019,41.493167871484815,65.25409173049951,78.38328060818273,52.901778087455575,87.37279518857744
66.86828686707823,41.18964868695725,41.5162604826118,65.19934840379902,78.17686015594427,52.81846981502204,87.31948752363135
66.99027511001394,41.24831866733468,41.54250472512755,65.1395325367137,77.97558313133959,52.74366747759219,87.26461709401191
67.10691385691264,41.312149722632235,41.571878149376744,65.07491980484565,77.77962563803673,52.67761890668862,87.20816083201888
67.21798802135991,41.380939714602526,41.60433046127626,65.00585502423468,77.58911449021213,52.62055790940082,87.15013424709412
67.32333005626666,41.454505150839914,41.63978228861666,64.93272968274411,77.40416834491793,52.572708179352595,87.09055664242219
67.42279307485134,41.532714999239715,41.678130581260675,64.85595687897788,77.22492470041061,52.53425682146315,87.02942777066639
67.51624241490023,41.615507864401266,41.719243386286635,64.77597934049592,77.0515211423818,52.50533092358222,86.96674864431087
67.60356456794867,41.70287273157847,41.76294500140773,64.69329476526697,76.88406205093959,52.48600700070301,86.90255242039724
67.684662089085,41.79481921738108,41.80901024693017,64.60845537623432,76.72261494474915,52.476337528036005,86.83689689713081
67.75942673070642,41.89136521172248,41.8571760896206,64.52203634382042,76.56723151396584,52.47635590296895,86.76983053011132
67.82772157116501,41.99253472507651,41.90715427547741,64.43461316032962,76.41795215904698,52.486055471888946,86.70138253185642
67.88939629327659,42.098344466973664,41.95862754478626,64.34677201079907,76.27478156632762,52.50537947898103,86.63158540957689
67.94431559472298,42.20878134071731,42.011236218715716,64.25912451298048,76.13767265968532,52.534244654723,86.5604853961223
67.99236274326785,42.32379421086034,42.06457739952437,64.17229146061545,76.00655007698526,52.572571551700406,86.48811843705374
68.03341736334157,42.44330725110671,42.11822455818219,64.08686992063443,75.88134845071174,52.62028396449847,86.41448869739482
68.06734549960241,42.567232146391135,42.17174720831398,64.00342699483114,75.76201902592972,52.67728353082324,86.33958446606755
68.0940202055063,42.69545804137116,42.224709476762385,63.92252533830788,75.64850556393318,52.74343731256795,86.26340671433222
68.11334163440621,42.82782895244645,42.27665732530426,63.844736484149244,75.54073527812476,52.81859003383946,86.18596427829655
68.12522751550159,42.96413631472019,42.327121685943304,63.770617278517435,75.43864170457589,52.90257161063647,86.1072405332727
68.12959573185522,43.10413517605821,42.37564268342314,63.70068315525821,75.34217950948451,52.99517933633272,86.02718480648511
68.12637542442165,43.24756022487515,42.42178979624008,63.63541628148877,75.25129980740152,53.09615679957946,85.94575354000447
68.11553656731996,43.394118687931474,42.46515856793553,63.57529254841591,75.16591373461821,53.20519994937764,85.86295543523043
68.09709614858427,43.54346899042683,42.505355813019776,63.52078337383382,75.08588977258007,53.321981607907425,85.77884822087684
68.07109576456988,43.69521207117621,42.54199966392728,63.472325124284446,75.01108236223057,53.44615801111737,85.69350433916678
68.03759619425408,43.84890544169025,42.57474296680244,63.43029299873802,74.94134671022579,53.577348007498635,85.60700018620446
67.99671825343194,44.00408018819539,42.603297556710395,63.395005462328086,74.8765262270774,53.71511987854984,85.51943639861359
67.94869313311983,44.160239139952175,42.62743494215355,63.36673882081277,74.81645346915941,53.85901500172754,85.43094382872647
67.89386733369531,44.316844086561716,42.646976064870884,63.3457192499098,74.76098348024567,54.008585494115266,85.34165319968292
67.83266396067252,44.47331804384805,42.661805172460866,63.33209877825129,74.7100174863799,54.16340293262578,85.25166611856875
67.7655486662649,44.62906821796054,42.67190914281187,63.32594913199853,74.66348264610467,54.32303802975206,85.16106632126314
67.6930256483825,44.78350424042111,42.67740048417933,63.32727887246023,74.62129495549667,54.487048525838425,85.06995056691329
67.61563924087689,44.936031803546584,42.67849938919734,63.3360407392368,74.58335172181675,54.65499095197015,84.97842911049631
67.53395222931249,45.08603679142506,42.67550003322809,63.352112115806754,74.54955319465387,54.82643042814793,84.88659117365515
67.44851459344835,45.232888249053595,42.66875335966173,63.37527781995063,74.51980997235714,55.0009262222757,84.79448269400385
67.35985720673177,45.37596280882947,42.65866395975944,63.40524552497672,74.49402092754927,55.17801161939303,84.70212485780083
67.26850966915814,45.51466401123462,42.645678269978866,63.44167720106699,74.47206430113482,55.357197709541616,84.60954110742291
67.17500419820925,45.648418027435426,42.63025933807182,63.48419739244246,74.45383450823219,55.53799328563381,84.5167497013606
67.07984923738407,45.77666157593722,42.61286904875773,63.532374376768466,74.43928822328607,55.71990723494256,84.4237345311442
66.98350536387758,45.89885280279422,42.59397108599745,63.58570965963991,74.42844448628188,55.902427555940044,84.3304418002165
66.88639575236503,46.01450936872999,42.574037343173984,63.6436562065508,74.4213441021392,56.08500920010709,84.23680941406509
66.7889335732053,46.123239857396726,42.553535483652055,63.70564038093111,74.41802267812766,56.267092132041185,84.14278383719393
66.69152603089768,46.22474012464992,42.53290349575647,63.771058682428176,74.41852329261427,56.44812725153676,84.04830083337541
66.59455465575579,46.318768877145956,42.512536440417115,63.83926283581305,74.42291405723552,56.62757714791172,83.95326876727528
66.49837312695757,46.405136599522386,42.49279451578123,63.90956738872941,74.43127196767183,56.80489577504275,83.8575960161091
66.4033411082873,46.483717846160125,42.474012288333014,63.98128102219362,74.44365021352024,56.9795211031228,83.76123940154842
66.3098565184391,46.554462962920994,42.456488557559695,64.05372595866253,74.46007225647591,57.150897213280345,83.66421741809081
66.21834717234958,46.61738645461159,42.44046306371056,64.12622647942113,74.48055275900876,57.31850190277615,83.56658590071528
66.12923870506388,46.67254266572316,42.426102830309894,64.19809385380766,74.50510337419053,57.481850396694774,83.46843067116775
66.04294268072978,46.720018034109344,42.4135118462207,64.26864019154503,74.53370943122933,57.6404861100145,83.36989808803226
65.95987004400989,46.75994753069763,42.40275223862786,64.33720890878499,74.56631701924667,57.79399145250022,83.27121583933454
65.8804325067859,46.79252910013941,42.39385309930742,64.40318300791986,74.6028591471274,57.94201558326108,83.1726669960256
65.80501333725627,46.818012181629555,42.38680599810082,64.46596764561797,74.64328829254107,58.08428146984061,83.07455149392932
65.73393902989473,46.83667145004925,42.381568837540286,64.52498614406714,74.68756956868764,58.220562062611464,82.97718565934434
65.66748595075107,46.848796410611776,42.37808297799166,64.57970829915774,74.73564565297018,58.350662243397196,82.88092842219629
65.60590610385839,46.85470816877854,42.37628168365438,64.62967730253114,74.78742358730426,58.474434751695505,82.78618058779183
65.54942906984883,46.85477948593152,42.37607781105299,64.67450237151132,74.84279635115536,58.59180591228619,82.6933463734309
65.49823459800044,46.84942974619062,42.37734955954562,64.71383647006739,74.90165657213913,58.70277160414506,82.60280691546473
65.45243508387348,46.83910137070718,42.379947136203036,64.74737850762017,74.96387163657384,58.80736921794926,82.51493854057114
65.41209207474643,46.82424692192232,42.38371423734284,64.77489746788514,75.0292474087006,58.90566540144963,82.43014015271477
65.37724080408275,46.80533298596674,42.38849729051997,64.79623847459024,75.09752452816707,58.997770276777416,82.34882258626448
65.3478875648126,46.782836395412055,42.394133582876194,64.81129661215111,75.1684061768862,59.083845209261426,82.27137642038491
65.32398716015548,46.7572213844115,42.4004405274929,64.81999260614106,75.24157372283705,59.1640814310463,82.19817030486031
65.30543541757235,46.728921624485466,42.40722435244708,64.82227980898645,75.31667260200379,59.23867039028511,82.12958111943891
65.29208502250279,46.69834783297247,42.414294081203465,64.81816344719788,75.39330981777745,59.30779738430289,82.06600230150879
65.28375483735425,46.66590339895632,42.42145901202693,64.80769590972862,75.47109742873437,59.37165593485869,82.00780696664977
65.28021293656188,46.63197959999192,42.428516305310275,64.7909490032526,75.54970693608708,59.430450530628704,81.95531026786368
65.28115764705123,46.596934114404945,42.43525118187779,64.7679988869645,75.62887793511143,59.48437438323061,81.90877909261879
65.286234608898,46.56108202852165,42.44145027319382,64.73894205874053,75.70838394648453,59.53359075403079,81.86847199296285
65.295085155332,46.52471104105313,42.44690611731413,64.70391539067485,75.78800788054414,59.57824693058169,81.83465068094088
65.30737676009316,46.48809734393906,42.45140338986917,64.66308806859192,75.86755165349788,59.61850499820338,81.80754846976784
65.32279148707032,46.45149808546525,42.45470335646634,64.61663680295263,75.94684655309186,59.654549875720335,81.78734436468422
65.34100825308771,46.415128119686756,42.45654410998736,64.56473827691423,76.02573084642083,59.68656982690602,81.77417706066662
65.36171312915184,46.379145098844454,42.45665155746699,64.50758120661914,76.10401473191094,59.714744900806544,81.76816759980092
65.38461758631027,46.34365212137595,42.45474181970376,64.44536791457168,76.18147583346241,59.739262761657756,81.76940822846281
65.40945093753948,46.30870402238026,42.45051065123218,64.37829268183418,76.25788678251553,59.76033545592656,81.77793418341265
65.43593888848346,46.27430101080437,42.443628197855205,64.30652252563061,76.33303114861589,59.77818805148587,81.7937278577753
65.4638081021134,46.24037459431969,42.433751512817835,64.23020685676994,76.40668616005678,59.79303357631692,81.81675532135971
65.49281976642406,46.20678811670373,42.42054067830792,64.14950296609985,76.47860748294906,59.805068771005956,81.84698109197502
65.52278856823375,46.17336363678265,42.40365878027887,64.06458093252515,76.54854928385815,59.8144916505366,81.88433619919051
65.55356202496563,46.13991579437569,42.38275980584459,63.97560134717411,76.61629487011858,59.82150703369093,81.92868095784773
65.58499122518849,46.10626412022339,42.3574880458699,63.88269968652075,76.68165465008215,59.82630386980187,81.9798080265145
65.61693257774992,46.07222604765843,42.32749978338036,63.78600037348851,76.74443825603689,59.82903081613875,82.03747173047732
65.64927131279387,46.03761759170103,42.29248721647707,63.68563790243477,76.80444670048556,59.82979956132339,82.10139367382098
65.6819242501379,46.00227002637406,42.25218141897043,63.581754099732144,76.86149687604043,59.82870535395095,82.17123338295305
65.71481041078859,45.96604076454438,42.20634285190231,63.47448271629591,76.91543694508384,59.825830629479846,82.24656824452543
65.7478258307693,45.92880155922804,42.154765418717666,63.36395698941625,76.9661231355239,59.821225995872034,82.32691560093711
65.78085125159691,45.89041679442924,42.09729634660652,63.25034122078623,77.0133850884187,59.81490113780036,82.41176741220681
65.81377204012205,45.850736156937415,42.03384664951091,63.13384669462716,77.05702069604546,59.80684662658794,82.50059142023649
65.84647484081427,45.80960569573396,41.964379173168204,63.01471281642372,77.09681676902159,59.797060953855365,82.59280960737499
65.87882503603487,45.76687705136525,41.88889326374557,62.893187105087016,77.13255537948113,59.785548580296805,82.68780433414624
65.91065943425963,45.722400410739084,41.80742749364599,62.76954086277666,77.16399109754327,59.772298423352005,82.78495960674631
65.94180251821616,45.67601365756924,41.72007337749475,62.64410443341031,77.19083443776678,59.75727846031561,82.88368684410692
65.97207444372917,45.62754880223816,41.626976637047875,62.51727536786078,77.21277389550492,59.74045240221441,82.98340639764908
66.00127336501649,45.57685335798416,41.52832118357963,62.38949070829615,77.22951449968768,59.72178782860278,83.08352308864404
66.02916274353386,45.523801051877236,41.42431534640182,62.26120440174105,77.24078732576446,59.70123907160827,83.18344106280249
66.05549467151776,45.4682800841179,41.31519368474245,62.132898636294996,77.24632971453174,59.67872985373856,83.28260209444643
66.08004811083718,45.410179104547076,41.2012222444587,62.00510338179502,77.24587876573919,59.65416409257281,83.38049603061218
66.10263785588583,45.349392834232724,41.08268997696924,61.878386465756904,77.23919217377545,59.627451807775984,83.47663813232667
66.1230919718258,45.285839555371446,40.959891559027476,61.75332567230889,77.22606013383883,59.59851426604786,83.57056352154295
66.14123923417378,45.2194658890457,40.83312406165824,61.63050547956042,77.20628401149558,59.567264505703065,83.66186018153853
66.15693135520917,45.15023513188119,40.70270538818704,61.510542450895855,77.17964979813858,59.533598183171854,83.75019393894198
66.17007247006563,45.07812348544189,40.56899291982962,61.39409518236014,77.1459351771229,59.49741522848643,83.83528753977943
66.18061579621552,45.00313997029938,40.432379740999465,61.28183621660159,77.10494269491642,59.4586451379831,83.91688844552301
66.18853419332171,44.92535011339967,40.29327664334308,61.17442180158673,77.05651437339375,59.417242945817456,83.99477752595799
66.1938095931707,44.84487731998711,40.15210541591926,61.07249939904481,77.00051139509063,59.373171468368675,84.06880620405389
66.19645736390436,44.76189487515968,40.00930915078497,60.976736904296274,76.93679555627368,59.326413263885215,84.13890464846928
66.19654757609477,44.67664394463534,39.86535861074191,60.88782595922694,76.86524688490623,59.27701472307214,84.2050485177451
66.19419243735763,44.58947454403214,39.72073870705015,60.806449657230516,76.78579731363921,59.22511341909287,84.26723628667071
66.1895264628793,44.50086431281723,39.57592734601874,60.73325125289769,76.6984357892657,59.17091858041325,84.32551186480295
66.18271745285178,44.411393636918106,39.431391289931014,60.66882795072919,76.60318342961843,59.114672660299604,84.37999556382928
66.1739938397277,44.321706574262905,39.28760341114632,60.61372958970211,76.50008268775605,59.056634264909896,84.43087305015844
66.16364462711906,44.2324908470922,39.14505743838818,60.56843619590787,76.38922221200067,58.99708271533091,84.47835581966206
66.15198822425728,44.144472727336755,39.00426004333681,60.53332754421024,76.27076299639836,58.93631470309432,84.52266837629423
66.13934822129727,44.05840149002209,38.86571198542307,60.508679588497486,76.14492889479247,58.87462586189205,84.56407324467251
66.12605216420224,43.97501975600705,38.72990487677961,60.4946896077739,76.01197898040999,58.81230511966978,84.60288317847782
66.1124259589614,43.895044483341316,38.597337233512995,60.49149191931793,75.87220695897882,58.74965283932477,84.6394283926953
66.09876165695864,43.81917241403607,38.46852455827091,60.499144148051776,75.72597128262505,58.68699176150318,84.67401715992298
66.08527617351673,43.74808885515045,38.34398537810468,60.51761537129012,75.57371003395824,58.62464761198519,84.7069420619033
66.07209699334406,43.682454369574515,38.224218576388125,60.54681033911913,75.41591716105009,58.562923017756155,84.73851946301558
66.05928567852324,43.62287705994774,38.10970298833202,60.586610445036676,75.25311959962407,58.50210122796665,84.76910093411526
66.0468662903876,43.56989893298601,38.00092531701195,60.63688501500642,75.08589621218995,58.44247517875495,84.7990383854534
66.03482432620079,43.524003653486325,37.89840395670232,60.69746938609612,74.91491432088858,58.38436068839695,84.82865751488846
66.02309045625506,43.485622026525434,37.80268083184013,60.7681529946552,74.74092932980759,58.32807558193035,84.85828427963948
66.01154550930262,43.45511810286073,37.71429534861983,60.84870161299986,74.56474233191776,58.27391627622338,84.88828923870507
66.00004479717298,43.43277222784356,37.63377153222211,60.938884069652225,74.38716403810331,58.222166559021545,84.919088091044
65.98842655269006,43.41878606729195,37.56162385735437,61.03846627942403,74.20901627572442,58.17312611745861,84.95110165407587
65.97649306832682,43.41330460020506,37.49835871936948,61.14718371984803,74.03114417378502,58.1271168737542,84.98472959398853
65.9639939042862,43.41642494739254,37.44445538399975,61.26473312576788,73.85440146194449,58.084457928124124,85.02035696960414
65.9506368735044,43.428181348908815,37.4003408235933,61.390790621180244,73.6796227100919,58.045446858148736,85.05835630432212
65.93611140396312,43.44853185451396,37.36638468257655,61.52502026933519,73.50762274903451,58.01037321182296,85.09906025421112
65.92009211067683,43.47737041632636,37.342917294397736,61.66705382972384,73.33921948256493,57.9795375831856,85.14273570730803
65.90222429234598,43.51455076302188,37.33024360168353,61.816472469480075,73.17523527214058,57.95323954662117,85.18959300666447
65.88212449437775,43.55989135058036,37.3286316986056,61.97282294952119,73.0164637151492,57.931743360342324,85.23980788444707
65.85940585739931,43.61316022163103,37.33828860699303,62.13564965631889,72.86364464256407,57.915261632151335,85.29351307022478
65.83369659393567,43.67407195407351,37.359351566479276,62.30450043071159,72.71748134989289,57.90397116950214,85.3507671050691
65.80462951885538,43.74231394815088,37.39190330134824,62.47890659028969,72.5786707345459,57.89803006644045,85.4115474225552
65.771826704457,43.8175753737711,37.4359887592224,62.65837774754985,72.4478958871254,57.89756911004893,85.47577697895645
65.73491511233865,43.89954745541005,37.49161085427987,62.84242548240707,72.32578193323712,57.90268000114872,85.54333872750263
65.6935668269936,43.9879056473031,37.55871474149248,63.03058037278163,72.21286142351559,57.91343410953083,85.61405113332775
65.64752070961038,44.08230823651377,37.63718296855372,63.2223759557685,72.10957568694074,57.92991553445561,85.68764111046518
65.59657084608988,44.18241774308793,37.726840198777786,63.41732685061946,72.0162873101258,57.952224616386104,85.76375971187231
65.54056026909063,44.28791442055571,37.82744826365519,63.614938687755895,71.93327148957219,57.980446960876314,85.84202683563439
65.4794074729606,44.39848221425683,37.93868820819937,63.814737344651135,71.86070161135785,58.014625745550056,85.9220506699104
65.41313463445915,44.51378779806363,38.06015054903449,64.01627442677966,71.79866864325167,58.05476201411402,86.0034065789708
65.3418566777938,44.633480627379654,38.191349573459846,64.21910378186695,71.74722784532862,58.100824175655696,86.08562000609818
65.2657415948587,44.75720922374137,38.33174626880952,64.42277298296821,71.70642080608448,58.152739569234846,86.16818876798358
65.18498612962311,44.88462552109827,38.48075454212427,64.62685630262935,71.67625272537268,58.21037700468971,86.25061792382378
65.0998245671432,45.01536830310024,38.637734711235254,64.83099319078444,71.65666664363404,58.27354952499091,86.33241962789168
65.01054118544037,45.14904925948817,38.80200103360698,65.03488637074541,71.64755536168191,58.34203679783779,86.41308131364426
64.91745536167592,45.28526096513338,38.972848478383646,65.23827250947242,71.64879258353189,58.415593523789575,86.4920533244698
64.82089365149696,45.42359167845307,39.14957162091496,65.44091215493776,71.66023548656955,58.49392940006485,86.56878207113154
64.72118501664634,45.56362218043659,39.33145838850689,65.64260584676845,71.68169420264375,58.57668984453882,86.64275026591291
64.61867974957691,45.704909936648,39.51777710158654,65.84319701750803,71.71291415091511,58.66346700521487,86.71347833925098
64.51375473945612,45.846986388479756,39.707780388473296,66.04254182793987,71.75359753747023,58.753826289949934,86.78050401717867
64.40678796539069,45.9893714166593,39.90072000329552,66.24047800328366,71.80343008860847,58.84731183448552,86.84338802934286
64.2981309260767,46.1315807479145,40.09584946267364,66.4368276868173,71.8620728900449,58.94342823110969,86.90174333329769
64.18810547859707,46.273113691749536,40.29241049892981,66.63141990624418,71.92913527410586,59.04163346071369,86.95524019555081
64.07700930443768,46.413441871622126,40.48962446274589,66.82409088052192,72.00417367207528,59.14136160441503,87.00357600665319
63.965103159583286,46.552021627737865,40.6867036755652,67.01465581981374,72.0867200018211,59.24204878814943,87.04645840098769
63.85258798868234,46.688319192928226,40.882868750195634,67.20289157134503,72.17629619622619,59.34313289748053,87.08363662564685
63.739601985277865,46.821820136479175,41.07734978779812,67.38855663385078,72.27239431487273,59.44403976643901,87.11494556130731
63.626240541902376,46.95202079602294,41.26937591020502,67.57142089998156,72.37446078608512,59.5441864971252,87.14030681186523
63.51256762986473,47.078426698054834,41.45817796617953,67.75126409270476,72.48192226823281,59.64300049311995,87.15969248891676
63.398600660271825,47.20056782164687,41.64301036375672,67.92784895705881,72.59422758801823,59.739924595473596,87.17310449768058
63.28429230244412,47.31801000384505,41.82316836501954,68.10091063990734,72.71085493718127,59.83439820879042,87.18058644162087
63.16954067409089,47.4303451093009,41.997982407811286,68.270177922204,72.83128584000094,59.92584180894299,87.18222778027109
63.05422148141327,47.5371725691915,42.16680149337407,68.43539463777509,72.95499512333863,60.013672283423155,87.17813217310285
62.93820476868318,47.63809696187429,42.32899137848801,68.59631175795617,73.08147580700155,60.097335742312914,87.16838192367605
62.82134203773794,47.7327446985537,42.48395382737648,68.75267044152902,73.21025901594666,60.176319882141875,87.1530429467247
62.703452457951165,47.820776911622424,42.631144692246075,68.90421458564018,73.34089561254962,60.25013670008823,87.13219894228818
62.584334612919676,47.90188004624664,42.770072139940254,69.05072574528147,73.47292465047614,60.318305144963915,87.10596234542705
62.46378916109726,47.975742344830884,42.900287882930755,69.19203504455234,73.60587390269289,60.380355837727464,87.07444809526586
62.34162171491781,48.04204037633185,43.02139503356755,69.32799778433076,73.73929159174862,60.43584235990327,87.03775461822515
62.21762750098261,48.10044852065331,43.1330693477838,69.45846945181547,73.87276186130164,60.48433509609087,86.99598272877914
62.09158838526324,48.15065648006298,43.23506672575732,69.58331688180884,74.00588191276334,60.525406236743784,86.94926238928026
61.96329265411807,48.19237205056214,43.327205758409164,69.7024439577284,74.13824170600628,60.558636418003786,86.89774530544155
61.83255081493124,48.22531181552917,43.409345601828846,69.81579024447066,74.26944796439848,60.58364594974247,86.84157462356741
61.699184706408985,48.24920178624424,43.48138192721272,69.92330454927975,74.39916765594565,60.60011547695661,86.78087912914307
61.563005174740205,48.263793464605556,43.5432565830634,70.02493206260831,74.52713415352495,60.60777662189163,86.71580109070828
61.423812244352945,48.26887486702012,43.594957524970994,70.12062554578533,74.65311058906414,60.60640181039706,86.64651178933333
61.28142462620201,48.264261785812,43.636500342219044,70.21034805821441,74.7768608742433,60.59582485042636,86.57318623234109
61.13570487700431,48.249783624436866,43.66790928941531,70.29404883325103,74.89816012832149,60.57597453839276,86.49597316097436
60.98655101121762,48.225287392247246,43.68921625507918,70.37164206393845,75.01681582481405,60.54687989240083,86.4150073945624
60.833869384588304,48.190658470369755,43.70047113602859,70.44302314104876,75.13265870631568,60.50864283002719,86.33045055512274
60.677565941028114,48.14583192124206,43.70174318265187,70.50810652729048,75.24551269776912,60.46141487673669,86.24250329310178
60.51756763172456,48.09078054045574,43.69311087624193,70.5668384997291,75.35518586828846,60.40540148404751,86.15137260491285
60.353845313147794,48.025498189425115,43.674658866773086,70.61917559333148,75.46148972292492,60.34087371439157,86.05724178978068
60.18640883704511,47.95000257113915,43.64648965714865,70.66506887078548,75.56424757147673,60.26815790386836,85.9602839958467
60.01528802337012,47.864352990065136,43.60873355930998,70.70448058237137,75.6632708241464,60.18761126241476,85.86069485522432
59.84053600025522,47.76865669940667,43.56154309203695,70.73740664861224,75.75833853171098,60.09961644107879,85.75869446557168
59.66225734019968,47.66305535039737,43.505081257448616,70.76386867461987,75.84922045767907,60.0046002965433,85.654501987355
59.48062310984358,47.54771463150238,43.43951977532618,70.78388582472536,75.93572418071889,59.90304303657708,85.54833111433548
59.29585404814065,47.42283670136962,43.36504546539027,70.79746650820186,76.01770976630135,59.795456810148664,85.44041740773389
59.10820369263412,47.288681074799065,43.28185907061591,70.8046281723071,76.09505966161579,59.682358239967456,85.33103090822517
58.91797460883722,47.14556732941795,43.190161691808164,70.80540962282033,76.16765128791675,59.56426720698056,85.22044668403716
58.72554990259371,46.99386163738433,43.09014407840424,70.79985372681992,76.23536712592376,59.44172475496936,85.10891148090762
58.531397009336644,46.83397409974769,42.98199496493738,70.78798859022642,76.29811626940347,59.31529496688915,84.99665274734701
58.33603974700195,46.666375439104094,42.865921550436624,70.76984168561772,76.35582689632916,59.18553987720177,84.8839149134481
58.14003859081552,46.49160839755879,42.742157839119876,70.74547303722913,76.40841932723208,59.05299961269986,84.7709678251886
57.94400176694854,46.31027380312879,42.61095328272093,70.71498529293432,76.45580380624759,58.91820977756612,84.658072777299
57.748598746842724,46.12300668806924,42.47256272033903,70.67850415094524,76.49791096593228,58.78173915338948,84.5454540777213
57.554543012407905,45.93047253921274,42.327255547340826,70.63616767512362,76.53471063662501,58.64420182012414,84.43331816650074
57.36255620198024,45.73338526220275,42.175331589818754,70.58814861945639,76.56619139933802,58.50623416898679,84.32189455645184
57.17334622492323,45.5325149837761,42.01712060356272,70.53468118196402,76.59233539168824,58.36847191568789,84.2114419694111
56.987601753832024,45.328666485515846,41.85296891857443,70.47605332650363,76.61313260965505,58.2315490205089,84.10221739054374
56.80597865081931,45.12264766062811,41.68323908477539,70.41257486825658,76.6286206782776,58.09609931951729,83.99446020943004
56.62907113068043,44.915254452847144,41.5083302531895,70.34456503179204,76.63889740248624,57.96273865625762,83.88841156722364
56.45739336099077,44.707271526711786,41.328695159390215,70.27236963609255,76.64409416632942,57.83203967245109,83.78432620369176
56.29139392850663,44.49946733562943,41.144832432711816,70.19637016333617,76.64436018675603,57.70452747603542,83.68244505585592
56.13148540762166,44.29257562497875,40.95726438960512,70.11696108597569,76.63989635135847,57.58069583401389,83.58296082524484
55.978051358909205,44.0872825826366,40.76652539712107,70.03452508729855,76.63100393835046,57.46101249307227,83.48602354066927
55.83142667451922,43.88423522746888,40.5731670222845,69.94944341520414,76.61808831210851,57.34590078622458,83.39177693561257
55.691888503595486,43.68405548597292,40.37776118045661,69.86212712480071,76.60162067364328,57.235727015640876,83.30037194298798
55.55968214072722,43.487337000553005,40.18088828493302,69.77302306783518,76.58211355170303,57.13081907536368,83.21193825007381
55.43505428730396,43.294630614257294,39.98312538308099,69.68258638784295,76.56012994227287,57.031494282743644,83.12655788996042
55.318254761701496,43.10644417611308,39.78505423382233,69.59125782224027,76.5362847436315,56.93805902656053,83.04428107873066
55.20951633653651,42.9232621771922,39.587281149017194,69.49946793587567,76.51120920974599,56.85078541815017,82.96516002845347
55.10905295798144,42.745560101144164,39.39044165995926,69.4076440291452,76.48551180980553,56.76990494319846,82.88925079543273
55.01708166231917,42.57379375110878,39.19518101651224,69.31619188658252,76.45978125237862,56.695631152426714,82.816588461484
54.93383093170173,42.40837633264893,39.00212881174586,69.22546653509244,76.43461939047762,56.62817586831174,82.74718879639704
54.85951601414684,42.24966939759443,38.81188983107527,69.13577195649297,76.41064915134528,56.567733269033134,82.6810874855838
54.79430911412129,42.09799274176072,38.625051688052075,69.04739557173201,76.3884801025706,56.514457406835255,82.6183627183768
54.73833560820419,41.95363202299058,38.44218841664441,68.96063272058983,76.36867619425203,56.46846985927131,82.55910638388615
54.69168659710142,41.81682775471437,38.2638480996283,68.87577097878405,76.35176486105962,56.4298895537507,82.50337954402454
54.65441697920399,41.6877584026311,38.09053946982194,68.79306417613614,76.33826375435228,56.39884373169205,82.45120463204505
54.626525955894216,41.566542849549734,37.922736609107034,68.71273653481063,76.32867724282706,56.37544611562605,82.40259307700929
54.607948510357254,41.453265035173224,37.76089536566169,68.63500700066237,76.32346762094794,56.35977429129714,82.35755790195614
54.5985731137956,41.347993536761564,37.60545643035259,68.56009306540147,76.32304912431285,56.35187530910631,82.31608730226472
54.5982625620634,41.250775156464265,37.456828802317375,68.48818654153085,76.32781395752575,56.351783544756465,82.27811828572554
54.60684967928088,41.1616166327958,37.31537948745766,68.41943816966439,76.33814418751716,56.35951779589425,82.24354987344098
54.62411722597333,41.08048233778884,37.181451365262696,68.35397559691658,76.35438251067141,56.37506244556674,82.2122737708636
54.64979660247633,41.007311733360645,37.05539221885539,68.29192811274555,76.37679667590737,56.3983696959501,82.18417490120586
54.68359185395707,40.94203195255135,36.93756092323857,68.23342057718936,76.40558329039244,56.42939021851502,82.15910423491324
54.72519469131931,40.884547373956075,36.82830862209383,68.1785461064395,76.44090105099914,56.468092329631446,82.13687177123947
54.77426987081991,40.83472092023938,36.727964858711,68.1273582170544,76.48288153713438,56.51444287556491,82.11727427717473
54.830438343640324,40.792376866863734,36.63684437764209,68.07988972056141,76.53160040587606,56.56837562096044,82.10011409652103
54.89329197186911,40.75732958708683,36.555255507474435,68.0361618605663,76.58705217349925,56.629786044893606,82.08517934109612
54.962428096395996,40.72940710421212,36.483489638026974,67.99616286628324,76.64916906560336,56.698550797711775,82.07221974861481
55.03746300851247,40.708444252908635,36.421803714426844,67.95982579195369,76.71786134233422,56.7745341980673,82.06096361271736
55.1180163152182,40.69425494887955,36.37042402913286,67.92704521248746,76.79302504324149,56.857564292545646,82.05116105300618
55.20370297210764,40.68660526214509,36.32957207593095,67.89772279604442,76.87451300742367,56.94740756149645,82.04259750052702
55.29415460588117,40.68520027836948,36.29947950428499,67.8717906771398,76.96212170254255,57.0437749904951,82.03506216892818
55.38904133713535,40.68968780331389,36.28037208930561,67.84919379261396,77.05562279155271,57.146347740558845,82.0283200224156
55.48806096836989,40.69967027027689,36.27244263564561,67.82987111079184,77.15480048647588,57.254784013590005,82.02212922998807
55.59090983699717,40.714715340014955,36.275841074409854,67.81376959560355,77.25944881986793,57.3687020945192,82.0162794679866
55.69727605730442,40.73436976154938,36.29068083032969,67.80086783806016,77.3693466731649,57.48767828668401,82.0105976592748
55.80686254152323,40.75817865951391,36.31703780549205,67.79117030022235,77.48425911247242,57.61128118777119,82.00491847706488
55.91940290560734,40.785693761174585,36.35493282977094,67.784678463673,77.60396330059167,57.73910876722903,81.9990696658037
56.03464473051014,40.81646230869415,36.40431722925816,67.78137802992461,77.7282510851937,57.87078873998356,81.99289828886229
56.152322181022456,40.85001653853954,36.4650800819068,67.78125218750495,77.85689517458246,58.0059541060723,81.98630024368376
56.27215104634953,40.88588306649722,36.537065524576796,67.78428667772467,77.98962765378432,58.14423460404257,81.9792103114979
56.39384273893335,40.92360160386047,36.620075124978,67.7904454712455,78.12617001876421,58.28527214827711,81.97157232364967
56.517105782328045,40.962729164161004,36.71385577042055,67.79964742281786,78.26628131266963,58.428728084394535,81.96334046140302
56.64162408648219,41.002829917164746,36.81809902777659,67.81178073842543,78.40976436940625,58.574265222815306,81.95451174647677
56.767040399353945,41.043475043196935,36.93246158062639,67.82673981611269,78.5564310856972,58.72153101118202,81.9451371981628
56.892969921231014,41.08426091055497,37.056582375902074,67.84443731223887,78.70608089841787,58.870167820628865,81.9352932589821
57.01902574634791,41.12482224106376,37.190074878622646,67.86478222133515,78.85851345370148,59.019834228481656,81.9250617504358
57.144822658238446,41.164821162240045,37.3325060952388,67.88766378295927,79.01353606691399,59.17020321659875,81.91455652427352
57.26996239686479,41.203921908949496,37.48338919789331,67.91296833800779,79.17093648036376,59.3209360150793,81.90396346806254
57.394034015209364,41.24177309808644,37.642197875732684,67.94060409606627,79.33044893944385,59.47166918983605,81.89353727271582
57.5166402439612,41.278011965892716,37.80838265276661,67.97049670043775,79.49175122918476,59.62204177561257,81.88355530967368
57.63741875569543,41.31228512653882,37.981368529688595,68.00256427466321,79.65448209669914,59.77173606666862,81.87428034326518
57.75603111719406,41.34426945054643,38.160540454769794,68.03671259280283,79.8182389178076,59.92048614921891,81.86596036375515
57.87213598663034,41.37371104984714,38.34523895215632,68.07285732984774,79.98254757552353,60.06805436282246,81.85883625295111
57.985382711320305,41.400527120769766,38.53477244727141,68.11093429907613,80.14684292590528,60.21421285418414,81.853121189001
58.09543078362701,41.42494472982131,38.728429793498904,68.15087518501086,80.310488563592,60.35874207120567,81.84896645199973
58.201962578238714,41.4475734927532,38.92547789966824,68.19257749097058,80.47280973039938,60.501423079981436,81.84645781970477
58.30466817345917,41.469369758488995,39.12515176330717,68.23590404942274,80.63309785709457,60.64201254086708,81.8456459899588
58.40322459352869,41.49157229552007,39.32665831370246,68.28070318896339,80.7905950602001,60.78022405737825,81.84656257079439
58.4973002743164,41.51571850295508,39.52920085684943,68.32681130958736,80.94450149522339,60.915743140072166,81.84919628014583
58.58657816349923,41.543747821174044,39.73200273954318,68.37402835532075,81.09401146278434,61.04826463978826,81.85346990631709
58.67076397188671,41.578078469666444,39.934308441414906,68.42210157337716,81.23833542302775,61.17751103266133,81.85926114771831
58.74957037694886,41.62159122230236,40.13537016353667,68.47074536000272,81.37668333839751,61.30321646360552,81.86644445403671
58.82270652999506,41.67759677934306,40.33444558668264,68.51967319015951,81.50824129884042,61.42510980057435,81.87490012877508
58.88989362065249,41.74983923376181,40.53081523332158,68.56860067891424,81.63218375750576,61.54292657686335,81.88448883658593
58.95088505043561,41.84246153890853,40.723799415268935,68.61722463568417,81.74771289921992,61.65643144033907,81.89504140625645
59.00546088554351,41.959876338216596,40.912755713302865,68.6652188064017,81.8540772235093,61.76541735386158,81.90638353398022
59.05340370855326,42.10658750995427,41.09706805011007,68.71225634261808,81.95055495584866,61.869688798180434,81.91835347891993
59.09449154505863,42.287023932886754,41.27615319213984,68.75802310321923,82.0364449300054,61.96906321620443,81.93077933834692
59.12852070601231,42.50541356699438,41.449486085169916,68.80219955250297,82.1110967697473,62.06339205000189,81.94344569474248
59.15532717907474,42.76570422124074,41.61661583704252,68.84443984822532,82.1739497014699,62.15256636566957,81.95609853670281
59.17477691506342,43.07150920601769,41.77715531577627,68.88438411312546,82.22453446965359,62.236492713267616,81.96848408268667
59.18674157929452,43.42604508638663,41.93076289097925,68.92169136963643,82.26244923391091,62.31506854023909,81.98036815789442
59.19109793858621,43.83205991430551,42.077142965996806,68.95604935326766,82.28736104375582,62.38818666638938,81.99151525159827
59.187755619128794,44.291781608521184,42.21606328935228,68.98715240926843,82.29904434563534,62.45575623360245,82.00167661334486
59.17667703557969,44.80690350349393,42.34736190643191,69.01468812952922,82.29740614547276,62.51770450067806,82.01063279172482
59.157866024923244,45.37858513533279,42.470933151281706,69.03836197287856,82.28246234129885,62.57395308428796,82.01825598563545
59.131349109011495,46.007438069896516,42.58671866101183,69.05793226479025,82.25429888831891,62.62440045417523,82.02452359468198
59.09718299994091,46.69351074420875,42.694726560979475,69.07321211691244,82.21307332248458,62.6689320789235,82.02947994857595
59.055481323168884,47.43641830019308,42.79505860470881,69.08404440468126,82.15905723164877,62.70743646472668,82.03320792996247
59.00642480753557,48.23589183831915,42.88790924136482,69.09029173100676,82.0926618440707,62.739798382076714,82.03584405350882
58.95024730224491,49.092726775124646,42.973536950382325,69.09185110308493,82.01441375570019,62.76588038237227,82.03759902790813
58.88722891872702,50.00954632398957,43.05223991365111,69.08865938229073,81.9249209886773,62.78552449786963,82.03873929161449
58.81771102095667,50.990892185097124,43.124352532320465,69.08067198668648,81.82487510764493,62.79857474643743,82.03954927953626
58.742105281163646,52.04280711477648,43.190245026468126,69.06784625833997,81.71506907129866,62.804887795760976,82.04032706622554
58.66087232979707,53.17229910927554,43.25030601856158,69.05016277514912,81.59638225849595,62.80431685435338,82.04141446641617
58.57448579041655,54.38687312954446,43.304915980770986,69.02766490212237,81.46973425094468,62.796696218950146,82.04320592255559
58.48341613575321,55.6942523944288,43.35443562934007,69.00046710449654,81.33605637428933,62.78185671592419,82.04611034227999
58.38814480054441,57.102443057417986,43.39921783369491,68.9687215703296,81.19630363925181,62.759659052298254,82.05051133358356
58.28918063853286,58.62005251063836,43.43962266094542,68.93258480082591,81.05147000140946,62.73000515714169,82.05677382319813
58.187050471620225,60.2564532858705,43.47601222104498,68.8922215818311,80.902568346871,62.69281806007455,82.0652762261697
58.08227945572574,62.02158966168451,43.50873222098953,68.84783071143154,80.75059458091035,62.648024325816245,82.07641101595581
57.97539784811532,63.925796413094815,43.538103855582314,68.7996511601583,80.59651983745935,62.59556718286639,82.09054579573156
57.866970385689754,65.9801189528664,43.56442794990404,68.74795426571534,80.44130819852269,62.53543308266644,82.10799467142226
57.75760535502355,68.1970092518134,43.58798144318888,68.69307009937575,80.285914139669,62.46765580961396,82.12902877182167
57.647927228698826,70.590703825307,43.60899944916314,68.635448061632,80.13124355385098,62.39229754917499,82.15389162369554
57.53854776560337,73.17689146197434,43.62766228631249,68.57568691283629,79.97812001509972,62.309438806125144,82.18277938685702
57.430068306637786,75.97194132704661,43.64410512418948,68.51449798538219,79.82729441828232,62.219187753814374,82.21580215303408
57.323097859390046,78.99208697934758,43.65843851286954,68.45263211113446,79.67947499844428,62.121683180839455,82.25297104715112
57.21825041015379,82.25273946476233,43.6707537626701,68.39080863763078,79.53532851974151,62.01707412663382,82.29421633263729
57.11611866873473,85.76802404233158,43.681110335464936,68.32966191899786,79.39545197738614,61.90549763391845,82.33939620398385
57.01725598495067,89.55059553840266,43.68952817375885,68.26971866580335,79.2603632941786,61.78708461282943,82.3882748989353
56.9221817881564,93.61164858969043,43.69599804709458,68.21141722242697,79.13053291846238,61.66198746179809,82.44050281100108
56.831386511409804,97.96095500815365,43.700494403337935,68.15515726734829,79.00641469017975,61.53039230107394,82.49563513969788
56.7453127362085,102.60678196250265,43.702971376662724,68.10134937250152,78.88843575671277,61.39250296053935,82.55317162357574
56.66432732019003,107.55573995718078,43.70334853417389,68.05043360879996,78.77697153250608,61.24852898190301,82.61257034508948
56.58871583313495,112.81297560082544,43.7015148064512,68.00285504384934,78.67235455107641,61.09870376379288,82.67323113078712
56.518702002480744,118.38296857479634,43.697365225030225,67.95902302070749,78.57490880970019,60.94331043147907,82.73449513333915
56.45446087911099,124.2703785876725,43.6908438700448,67.91932860190308,78.4849566456395,60.78267950909772,82.79568546292012
56.39610597695144,130.48020374963517,43.681956411439415,67.88428765047898,78.40278329678416,60.617164103334474,82.85614977262178
56.34367265513768,137.01725720847256,43.67075632628508,67.85475145853412,78.32860508499398,60.447130170593205,82.91526036255634
56.29713034891664,143.88542622316749,43.65733446206457,67.83201925542058,78.26257962718385,60.27297466930706,82.97239071661136
56.25641832475164,151.08701577943074,43.64181770025972,67.81778061996516,78.204833832106,60.095141051772515,83.02692279325431
56.22146618160247,158.62225878444164,43.624358514942784,67.81396793168004,78.1554622123705,59.91410516928502,83.07829161403271
56.192181243243354,166.4889848703153,43.60510818998704,67.82262879813723,78.11449751136509,59.73034738560498,83.12601316286391
56.16843124608727,174.6824570453933,43.58418611547711,67.84591402979353,78.08190006752342,59.54434517954401,83.1696645329081
56.150055485734185,183.1954302536706,43.56165919452675,67.88621686627195,78.05758276567214,59.356590568865194,83.20885668308195
56.13689401043477,192.0183857788133,43.53753372012498,67.94635840585646,78.04143160385414,59.167600098554765,83.24324738265926
56.12879623298135,201.13976144375346,43.511751418810285,68.02967507282224,78.03328985856331,58.97789714902274,83.27257680122602
56.12560202825508,210.54611640678038,43.484183900479294,68.139968193524,78.03293169317016,58.78799170663973,83.29667186491916
56.127132403193535,220.2224170517233,43.45463262590238,68.28135898105245,78.04006546897668,58.59839076698407,83.31541142894734
56.13321198999707,230.15251630725666,43.42284280477944,68.45815865750615,78.0543595542368,58.4096281125722,83.3287018769091
56.14369422748247,240.3194952016431,43.3885228018679,68.67491483581523,78.07544872550388,58.22227236014001,83.33649466891129
56.1584559055592,250.7055784019446,43.35135407427895,68.93663597298296,78.102910455127,58.03690366701944,83.33881136751738
56.17737693469226,261.2917934612615,43.310998391967,69.24893893452209,78.13624866613863,57.85409407115539,83.3357301187668
56.200343068714375,272.0577267202965,43.26712386220427,69.61793204010995,78.17491185275203,57.67441752343794,83.32734681836241
56.227269738530254,282.981586138798,43.21944597208832,70.04994711693567,78.21832018536786,57.49846932038234,83.31376218281824
56.25810854325366,294.04049795476135,43.16775181999152,70.55135655709522,78.26586364634939,57.32686072792889,83.29510615647979
56.292818724776225,305.21071615963893,43.1118906349332,71.12860015798158,78.31687959609815,57.16019327490429,83.27155400854393
56.331322079393594,316.4675968496471,43.051749350105716,71.78831753759758,78.37065180429643,56.99905087126001,83.24330377089088
56.373460506271,327.7855810690833,42.987246162570806,72.53734988135784,78.42643914805357,56.844023789910615,83.21054916962893
56.41896063070711,339.1383883778398,42.918352255886376,73.38256472950091,78.48349314130846,56.69572934972604,83.17349321760678
56.46743461813261,350.49925088787523,42.84511358977958,74.33075551970661,78.54103981930011,56.55479712400312,83.13238714482225
56.51850267304899,361.8409616861389,42.767644524189826,75.38882368825624,78.59825931802503,56.42183787277953,83.08754065271405
56.572055515685186,373.1358300219743,42.68610594096569,76.56420293536324,78.65430963786763,56.297433712344734,83.03929402673232
56.62848906318399,384.3558318103136,42.600700423193544,77.86557305480278,78.70838636387869,56.1821482268923,82.98800018416088
56.68874743061246,395.47301495589926,42.511689101718076,79.30386435688666,78.75975948350991,56.07652342567584,82.93404151650752
56.754210653038,406.4598569584393,42.41940171290282,80.89293775484896,78.80775493723516,55.9810535628985,82.87784256162321
56.82654717503273,417.2893254218215,42.32422027516395,82.64933869604822,78.85170734549544,55.896166017801555,82.81984501085614
56.90759696802236,427.93472505807256,42.22654931060297,84.59144843529337,78.89092162815577,55.82223295964335,82.76047716356771
56.99929703726529,438.36964636350325,42.12679696850458,86.7388144004913,78.92465685379481,55.75959225884638,82.70016311358995
57.103622904451704,448.5684835698239,42.02537673401956,89.11200036734033,78.95212833947934,55.70854147426127,82.63935416187475
57.222515218698035,458.5075839551897,41.922715730231666,91.73260451914442,78.97252334087852,55.66930688960046,82.57852848523903
57.35780984810351,468.1662127031003,41.819250217594956,94.62293505442034,78.9850305987174,55.642023396465156,82.51815267751635
57.51123908946951,477.5266278144241,41.71541597725134,97.80534335697192,78.98887501363271,55.62674519676441,82.45865536230684
57.6845227138447,486.5735311194084,41.611658899779385,101.30161819673809,78.98333178961437,55.62346610949392,82.40044336591265
57.87945087669565,495.2935147382336,41.508461973326746,105.13280955351142,78.96771069516159,55.632119796822806,82.34392621192598
58.0978642484656,503.6749502663975,41.40635438030276,109.31949444255994,78.94135019490697,55.65256772095799,82.28950431030488
58.34155629923992,511.7084524956227,41.30589059658504,113.88196848948493,78.90366860252325,55.68460796987724,82.23753530525325
58.61217509001769,519.3874437791427,41.20763118583049,118.83990103975749,78.85425022454045,55.728006841141784,82.18832803582302
58.911171708903424,526.708186317088,41.11215898871491,124.21173432607296,78.79289040013701,55.782515032916756,82.142169326119
59.23979338448293,533.669260582355,41.02011721558966,130.01442580060635,78.71956604348973,55.8478504299614,82.09933554110911
59.599077465625705,540.2708886320268,40.93222226325325,136.2636117029287,78.63436955648368,55.92368037332218,82.06006375591201
59.98986844028439,546.5143529519613,40.84923227994296,142.97376127970085,78.53745696121791,56.00963596598624,82.02451989058993
60.413021949454205,552.4015369509253,40.7718948575013,150.15810310344932,78.42902488203246,56.10534053441943,81.99280845723659
60.86984597998475,557.9345351110269,40.70089810109852,157.82847258293538,78.30929262979161,56.2104124673858,81.96501086854595
61.362486378077314,563.1152984680194,40.63683403387734,165.9950835280813,78.1784756216946,56.32444047874906,81.94119860491489
61.89396723267614,567.9453308887367,40.58018268505982,174.66617962471912,78.03679376400179,56.446969611025374,81.92140370901268
62.468016225984954,572.4255386087788,40.531323186119515,183.84780351572863,77.88456883487287,56.57752040761991,81.90559035615652
63.08908451877353,576.55647361169,40.49056787677181,193.54385279442064,77.72237041035233,56.71561373270401,81.89366781503028
63.762756859703295,580.3390263257497,40.458210427607966,203.75639484533232,77.55109303708306,56.86076525447424,81.88552320594539
64.49624523517596,583.7750847006686,40.434569642226414,214.48617923862543,77.37191907387454,57.01245894940616,81.88102640528135
65.29851540337967,586.8676539043969,40.420001553140715,225.73306444760786,77.1862342864071,57.1701355532106,81.88000944838018
66.17996704086767,589.620598274276,40.414872775325094,237.49601277598353,76.99556013070749,57.33320241738159,81.88226654938246
67.15189457811978,592.038597189222,40.41951595561462,249.772634043716,76.80149755245247,57.50103648854841,81.88758425501966
68.2259469660808,594.1275371949733,40.43418713338021,262.5585990915278,76.60566602185344,57.67296530488177,81.89575573338885
69.41371877449178,595.8948919537261,40.45903131894076,275.8475125810051,76.40969369155644,57.84824753294951,81.90655397930159
70.72653745634004,597.3496775421299,40.494065525664105,289.6314725177293,76.21536345027528,58.02607659619345,81.91970286801508
72.17537687202308,598.5021852344895,40.53920544696934,303.9015923680486,76.02488585324943,58.20559723248873,81.93489021401804
73.77085584601606,599.3637848062424,40.594347807368216,318.6478143790237,75.84108004656359,58.38591236390288,81.95180531259203
75.52363194734336,599.9467168376176,40.65946269907233,333.858335752132,75.66732462592041,58.5660894664221,81.97014842320615
77.44531608194356,600.2637394060439,40.734635599363564,349.5192054595532,75.50738230746903,58.745188691984396,81.98960392345138
79.54918191063935,600.3276881113476,40.820060116360764,365.6141595706729,75.3652635872944,58.92229772534976,82.00982439433777
81.85001882492101,600.1510765866631,40.91602449001674,382.1244851241408,75.24518944146595,59.096540525102824,82.03045576711116
84.36349570051253,599.7458195874324,41.02290989416664,399.02873868016303,75.15159704450804,59.26705823613521,82.05117118290299
87.1056691260222,599.1230606583853,41.14118838802411,416.3023548096963,75.0890923276008,59.43299117475533,82.07166937937045
90.09269705974275,598.2930097935184,41.27142075574487,433.9174064897993,75.0623237340148,59.593491966687004,82.09164996527383
93.34048796468454,597.2647487246082,41.414290562173655,451.84275321724033,75.0758242601371,59.747766602092426,82.11081536216871
96.86419432856219,596.0460564594483,41.57072759115076,470.044458416582,75.13385919999804,59.8951028619832,82.12890720249248
100.6776677607625,594.6433425476538,41.742103815121055,488.4861353199266,75.24029193248512,60.03486269862301,82.1457271165776
104.79300391083918,593.0617587148682,41.930369122076975,507.12922615538014,75.3984830720252,60.16646247951297,82.16111295008062
109.22033466836588,591.3054565877923,42.138048466492826,525.9334392567059,75.61123406547932,60.289368423501365,82.1749097322851
113.96793444398297,589.3778208537007,42.36821020627527,544.8572786394795,75.88075974088531,60.40309988978833,82.18698181733639
119.04237398125879,587.2815754902645,42.6245145310845,563.8587465935484,76.20866086170079,60.50721936150923,82.19724837284092
124.44843462228499,585.0189187102386,42.91130196438558,582.8964661466184,76.59589207001967,60.60131213907645,82.20568755310616
130.18890461047562,582.5918359781912,43.233669073340664,601.9307223885879,77.04275137213143,60.684979659314386,82.21230198833712
136.26451946045907,580.0024107231712,43.59751867161372,620.9236570962722,77.54892338977618,60.75785137051574,82.21709823762902
142.6740079314866,577.2528819916665,44.00952321411325,639.8387182171654,78.11358489390057,60.819591092876934,82.22011224402378
149.41404929964497,574.3454865827556,44.47695402049051,658.6399596042182,78.73553449862942,60.86988386339795,82.22144138225327
156.47916620285164,571.282267755869,45.007463963805314,677.2915773503015,79.4132827686342,60.90842374076614,82.22123332587259
163.86170349555425,568.0649344210806,45.60899512558889,695.7577877207809,80.14506786396412,60.934929694507126,82.21964766894924
171.55187017195973,564.6947639707116,46.28993077334748,714.002879901661,80.92882861392046,60.94918141067695,82.21684457603033
179.53776189319234,561.1725361463757,47.05949524331961,731.9912491940521,81.76226822979136,60.951036819466324,82.21300948931764
187.8054273124011,557.4985054587358,47.92821642460202,749.6874233208582,82.64318047417855,60.940416861900175,82.20836495686359
196.3390143813912,553.6724089883157,48.90818275048615,767.0561123303999,83.5699725287428,60.917287426726325,82.20313907167291
205.12087307672317,549.693480369048,50.01315198374602,784.0623078643334,84.5420189799895,60.88166552157765,82.19752518123092
214.13154872917372,545.5604546857442,51.25873288735495,800.671517192201,85.55962404409475,60.83363450366729,82.19168043554753
223.34977321768997,541.2716014045975,52.66243530710737,816.8500498655496,86.6237449029914,60.773337939717024,82.1857540570049
232.75257309500816,536.8248539420243,54.24328100381463,832.5652253436615,87.73569834040956,60.700952421655096,82.17989415212594
242.31549316490683,532.2180381396504,56.0211387684601,847.7855503048747,88.89692121820143,60.61666911110187,82.17421793892716
252.01280943629428,527.4490832030183,58.01615937496045,862.4808223534206,90.10878128299659,60.52070343201471,82.16878828331085
261.8176142658677,522.5161167831645,60.24853455000684,876.621997149178,91.37246140292072,60.4133158908804,82.16362794048563
271.70180879159244,517.4174927634782,62.73856644986471,890.180863884169,92.68894111578749,60.294817864196645,82.15874256053387
281.63612671475846,512.1518561626276,65.5067571178322,903.1297119582422,94.05901339584555,60.16557550914407,82.15411241928152
291.59027552583274,506.71827749034327,68.57358563787054,915.4410755314608,95.48323768666066,60.02604299417177,82.14966747007568
301.5332220698328,501.1164043751732,71.95895309667677,927.0876437052958,96.96181747585351,59.87680865622919,82.14529233291009
311.4335586972002,495.34654366441805,75.68155793119455,938.0425677216705,98.4944609489903,59.7186056352245,82.14086433876503
321.2598865404409,489.40966926614885,79.75843334977175,948.2802453579243,100.08028840164339,59.55228109747191,82.13627497065866
330.98140390212143,483.3074950068072,84.20466300653489,957.777261884874,101.71785754800615,59.37876792996651,82.13140744910521
340.56880708364093,477.04268899092125,89.03314062651667,966.5131041097408,103.40530904355523,59.19908819873822,82.12610832015949
349.99501734152045,470.61906126132493,94.2542948160205,974.4704487608376,105.1405399004796,59.01436432372451,82.12020316163489
359.23526091382547,464.04154740051973,99.87585792656645,981.6349999526561,106.92142486017546,58.825798702367095,82.11354722408501
368.26673773687793,457.316051769715,105.90281936454899,987.9950893543421,108.74616038889889,58.63462308054758,82.10605220790234
377.0683885101026,450.4493120795697,112.33764631141686,993.5413360270404,110.61354992802735,58.44205546685529,82.09766460422158
385.6209348647281,443.4488353501947,119.18066120740806,998.266555489985,112.52299502239353,58.24929060576735,82.0883389727458
393.9069752039527,436.3228433460235,126.43027534948173,1002.165943141688,114.47425580549263,58.057507830464765,82.07804640614626
401.91087492284566,429.0801766805345,134.08294059148727,1005.2372836343066,116.46718147112803,57.86786301089583,82.06679448426836
409.61846082167636,421.7301995089991,142.13296742475848,1007.480909071455,118.50151370947253,57.68146412464798,82.05461560218522
417.0166829968618,414.2827513941477,150.5723364052268,1008.8995113431426,120.57676578882129,57.49935975744148,82.04153400549133
424.09335104184294,406.74810530546654,159.3905116993162,1009.498063465929,122.69212330295201,57.322547175624734,82.02755990469201
430.8369985813499,399.13691495406323,168.5742748907486,1009.2838277349397,124.84632836226494,57.151971466240745,82.0127188001179
437.23687228476336,391.46022432386206,178.10765091261166,1008.2662920388283,127.03757617311902,56.98850036388215,81.9970679835178
443.28296646361645,383.72953854733026,187.97200833113763,1006.4569872137841,129.26346296923685,56.83289854833415,81.98067138391545
448.96604340070354,375.9568421543926,198.14630469460337,1003.8692446541376,131.52096833859622,56.68582668193664,81.96356834167244
454.2776354414945,368.15453471462916,208.6073444410211,1000.5180655623889,133.80643534205257,56.54785423622281,81.94578119116656
459.2100303764238,360.33536664352283,219.3300191961667,996.4202531183377,136.11558049603568,56.41945810070461,81.92734803126832
463.75623908270387,352.51238753944443,230.28760966330876,991.5946635931084,138.44362585155923,56.301007660445876,81.9083291525529
467.90993395448066,344.69889082991995,241.4521283285121,986.0622535207508,140.78556208187035,56.19277127258777,81.88877815691262
471.66535217824656,336.90850128821177,252.79459864176857,979.8458063049831,143.13641051030015,56.0949612913849,81.86872877852652
475.0172156221471,329.1554831854924,264.28524043738213,972.9694757957085,145.49135574016157,56.007780409864985,81.84823023368045
477.960749276476,321.4549818343037,275.8935802900195,965.4583544294674,147.84573093953392,55.93142614069115,81.82739146570631
480.4918199737161,313.82292022576144,287.5884898223922,957.3382587170249,150.1949082381142,55.86606564715922,81.80637994264967
482.60711331870147,306.2756516758905,299.33819539634635,948.6358366438791,152.53416906435632,55.811823799156755,81.78538846200969
484.30424629186916,298.82960149248095,311.11037557759045,939.3789746584766,154.8586400880514,55.76879377233786,81.76463041138466
485.58182258147013,291.5010312706647,322.872418857125,929.5973280866992,157.16335909794398,55.73704015883726,81.74437670644365
486.4394963392635,284.3059377377681,334.5917974756689,919.3226242095852,159.44342831891566,55.716579555599765,81.72497848870042
486.87802840456084,277.2599629537227,346.2364920261634,908.588510391348,161.69411047252268,55.7073690184032,81.70683789808875
486.8992788303056,270.37820752749536,357.77540063369895,897.4300884004255,163.91079009019984,55.70933476459277,81.69036345372716
486.5061391709336,263.67499088501944,369.17863086232563,885.8834087275342,166.08885950647996,55.722419828161854,81.67596210554352
485.70245448739263,257.1636576189697,380.41760207643847,873.9850590041203,168.22360739908024,55.74659960047681,81.66406025175728
484.4929763312017,250.85645668619546,391.46497118321685,861.7718005081049,170.31013344395356,55.78185649445965,81.65510290270487
482.8833447729689,244.76444445177165,402.2945047695866,849.2801946813292,172.343296855098,55.828154311350076,81.64951630872645
480.8800737988691,238.89736779779963,412.8810503901418,836.5463398481271,174.3177259907235,55.88544180293038,81.64767785612551
478.4905336503903,233.2635416457454,423.2006119886568,823.6058416973876,176.22791375685748,55.95366795709666,81.64992766041244
475.72295575129414,227.86981355348246,433.2304214927467,810.4938621536369,178.0684005557711,56.0327748972852,81.65659342659845
472.58648853556036,222.72178830909178,442.9489667558796,797.2450214710883,179.83401531862356,56.12266804341524,81.66798250963537
469.0912987733834,217.8243155412743,452.33601891070344,783.8932299834527,181.520077660101,56.22319346710322,81.68435263790455
465.2486871453284,213.18188891034924,461.3727120774203,770.4716360881773,183.12246341300036,56.334132959804485,81.70591329814812
461.07116992221523,208.79869022558714,470.0417045539061,757.0126108739298,184.63757079342216,56.45519612368427,81.73286352274664
456.5724749328292,204.67843797101423,478.3274120114683,743.5475787600951,186.06228585862232,56.58600281865907,81.7654107868079
451.7674330880643,200.82426626628157,486.2162751829041,730.1067153583043,187.39395349974825,56.72608536946552,81.80374029245674
446.6718161417478,197.23864724504355,493.6969769720385,716.71868096146,188.63032541539698,56.87492929744611,81.84797505877661
441.3022536802939,193.92331561719433,500.7604923790687,703.4104679034285,189.7695202833886,57.03201978120308,81.89817625196498
435.6762945124799,190.8792181437132,507.3999382486597,690.2073061904272,190.81003387920163,57.196848795302955,81.95437166987558
429.812456786374,188.1065007967242,513.6102972010832,677.1325804663876,191.75076391688677,57.36888219260331,82.01656016103973
423.7300936130242,185.60448181830924,519.3881189941324,664.2078017015531,192.59098253068538,57.54751829235538,82.0846775431505
417.4491391549513,183.37157402265424,524.7312847848468,651.4527116898065,193.33024065210063,57.732057436400325,82.15856751973742
410.98991821022884,181.40519000346603,529.6388558707354,638.8855855315658,193.96827003878224,57.921679694521536,82.23799465945504
404.37306157077126,179.70166237271238,534.1109665393197,626.5236629899522,194.50499657261824,58.11543385090857,82.32267640014447
397.6194061996876,178.25617885940224,538.1487260049015,614.3834542517214,194.94070474728738,58.312277258031706,82.41228742859322
390.7497954244766,177.0627411901677,541.7541059006805,602.4808311912981,195.27622125723323,58.511208724122596,82.50643906252417
383.78483146454636,176.1141676967311,544.9298203218722,590.831084944368,195.5129729250109,58.71144973005778,82.60468023997106
376.74466120010095,175.40214233202713,547.6792897571428,579.4489848811426,195.652961094031,58.912555886511214,82.70653285437955
369.64881713073646,174.9172786944525,550.006753803979,568.3486985016829,195.69875035832652,59.11440751503925,82.81151595394199
362.51612913395707,174.6491617817911,551.9174131882438,557.543546998693,195.65344268059954,59.31714389953537,82.91912768755873
355.3647798973081,174.58637089437377,553.4174174627868,547.0456936501758,195.52058810228584,59.52111498881157,83.02881966855024
348.212508731479,174.7165122903448,554.5137120872203,536.8658716467314,195.30406626392588,59.72685107209282,83.14001278615473
341.0767737384628,175.02629600525725,555.2139130261457,527.0132113270447,195.00796364796145,59.93501387862602,83.25214363268906
333.97471947043925,175.50172400262235,555.5262731311188,517.4951851191815,194.6364567899166,60.14634445841585,83.36468446371042
326.9230655992838,176.128407766292,555.4596936463491,508.3176595666868,194.19378534919392,60.36169952136526,83.47711749984646
319.9380845507257,176.89187113122622,555.0237753241516,499.4849922786474,193.68437282119115,60.58221637076697,83.58891007192602
313.0356235781413,177.7776821941006,554.2288877315169,491.00011626678014,193.1129773597129,60.809478584667595,83.69953140953642
306.23103018503105,178.7714378930196,553.0861467944819,482.86470349342125,192.4847071886223,61.0455301316476,83.80848580547092
299.53899035855926,179.85874364775583,551.6072690745152,475.0796214643889,191.80488894352445,61.29275072868829,83.9153127835312
292.97343973750947,181.02533292830827,549.8044032580376,467.6456140534445,191.07889644844812,61.55371568943854,84.01955896796727
286.5476177609297,182.25734133998773,547.6899908378914,460.5637184764061,190.31205101751115,61.83113449249897,84.12077204540834
280.2741207901674,183.54154061121,545.2766431956452,453.83512892301104,189.50964160197984,62.12786117696805,84.21853034237628
274.1648110960591,184.86536682158012,542.577038274212,447.46075364699357,188.67699780857293,62.446884224884926,84.31246126348573
268.23063399661436,186.21683277328472,539.6038366195914,441.4408057242805,187.8195077195363,62.7912680526876,84.40221697915571
262.48147784105146,187.58452725907765,536.369651124734,435.7745454102808,186.94256827837947,63.16416802233595,84.48744069781985
256.92612865304227,188.95775261962552,532.887097813129,430.4601679025083,186.0515167746905,63.56899692805834,84.56777014962769
251.57227022851902,190.32664618355471,529.1688523468424,425.49482940134584,185.1515555697876,64.0095972419801,84.64286923200468
246.42646209625156,191.6821540406887,525.2276946046165,420.8748458119998,184.2476789615006,64.49023223032555,84.7124376626123
241.49407895654122,193.01590446139662,521.0766061076232,416.5960410266618,183.34463696971116,65.01540775726386,84.77618476132541
236.77923274009834,194.32006765478417,516.7288558124769,412.6540194888395,182.446936059311,65.58965662931067,84.83381220192358
232.28472314263442,195.58722386873893,512.1980004994344,409.0441542961076,181.558836498864,66.21735798833303,84.88503987938736
228.012096412327,196.81024775754375,507.49785245922385,405.76145089383795,180.6843273445442,66.90258566636545,84.92964442834726
223.96182733480205,197.98222275658375,502.64240936964734,402.8006192719009,179.8270948349171,67.6489681475251,84.96746035843655
220.1334945576525,199.09639500717432,497.64568325602755,400.1563753565221,178.99049575382273,68.45956245074454,84.99834980131675
216.52586355574644,200.1461950641967,492.52146918174026,397.8236711073304,178.17753282838274,69.33675564320868,85.02219237533122
213.13698431502874,201.12535715317026,487.2831585581114,395.79770645572586,177.39086347023374,70.28225176942414,85.03891018149194
209.96437411838178,202.02807986344447,481.9436445826017,394.0739392821146,176.63287709069883,71.29724844113522,85.04848294665456
207.00516020463937,202.8491420259245,476.51527852757266,392.648233863,175.9057907372023,72.38276842096863,85.05092299198635
204.25608760453926,203.5840420937179,471.0098293472296,391.5169183805264,175.21170889043867,73.53990389035161,85.04624450254042
201.7134551046145,204.22925202340264,465.438477649049,390.67657304147866,174.55266308854584,74.76983382404215,85.03447350162915
199.3730391405035,204.78243150464786,459.81189880649555,390.12374487298763,173.9306148463062,76.07371740626982,85.01568543714653
197.23000670537516,205.24240586007687,454.1404473579319,389.85484218499437,173.3473992990082,77.45256568117685,84.99001476277387
195.27884704291128,205.60895979702985,448.4343979193346,389.866155012906,172.80468797478034,78.90711988377441,84.95762126322339
193.51337596051079,205.8826063897533,442.7041059842335,390.15376353679693,172.30403464294974,80.43780394377032,84.91866199271081
191.9268083107264,206.06439678874295,436.9600015256238,390.71327301222135,171.84694023950163,82.04480482242748,84.87330863274525
190.51182957686336,206.15575791774089,431.21256714214763,391.53953463575186,171.4348602764158,83.72820433316845,84.8217820903751
189.26062952568932,206.15833984301548,425.47246803042793,392.62650469189384,171.06915065148092,85.48801435228427,84.76435135225513
188.1649357789154,206.07388343337075,419.7507090193827,393.967259109609,170.75097000689684,87.32406571747755,84.70129785415882
187.2161021344459,205.90413150262506,414.0585930181321,395.55407122445746,170.48117640956724,89.23584499091793,84.63289875450398
186.40525484662058,205.65077798639712,408.40748848586804,397.3784502004234,170.26028689372595,91.2224629064056,84.55945394700171
185.72343156840176,205.3154511591576,402.80858757719733,399.4311212940297,170.08851343878928,93.2829372107935,84.48131345938309
185.16165614390854,204.89980444541803,397.2727807571223,401.70206756756664,169.96582807092005,95.41670264217157,84.39886170279422
184.71095134667672,204.40575316551366,391.8106308277242,404.18072601036346,169.89212020279638,97.62395573110757,84.31248515071105
184.36230619523354,203.83569475913973,386.4323263406353,406.8561716693693,169.86755351716604,99.90564449282887,84.22257889818246
184.1066176996853,203.19253461690795,381.14754720479516,409.7171156125451,169.8929588074766,102.26328600320147,84.12958940480173
183.9346411030989,202.47955990065228,375.96533368322287,412.7518336431057,169.96996604054343,104.69874985898281,84.03403421675043
183.83697267574487,201.70029597899753,370.894074167609,415.9481651612631,170.10085647588778,107.21400120515203,83.93647104919964
183.80406072571216,200.85839827815036,365.9416028113736,419.29351035742224,170.28831928866114,109.81085372998164,83.83745960195633
183.82621885509465,199.9575704064616,361.11532065654035,422.77475867477796,170.5352103764024,112.4907953747533,83.73756331230959
183.8936482425752,199.00149326133464,356.4222791121265,426.37821589592477,170.84432141667145,115.25486187716645,83.63737280906896
183.9965472537179,197.9937701128849,351.86921086455635,430.08956858351064,171.21818247929446,118.10351860102651,83.53749976814949
184.12533484622662,196.93789949697444,347.462488581398,433.89390646066516,171.65893171923835,121.03656981640275,83.438539910151
184.2708522325743,195.8372562755201,343.20798578724657,437.77597588306327,172.1682435383245,124.05311570955932,83.34105600373294
184.4244238342196,194.69506159985627,339.1108929482717,441.7207211295279,172.74726568289566,127.15156963782562,83.24559970650382
184.5778464010042,193.51436838489127,335.17561577425215,445.7137312028437,173.39653805363596,130.32982826137123,83.15272679430807
184.72342645351523,192.29807914419516,331.4058228442212,449.74124118446844,174.11592721945325,133.58560264693216,83.06297069004962
184.8540865633576,191.04895695981145,327.80457616798265,453.78983070389955,174.90460933396076,136.91665721605398,82.97680545070126
184.96349573567386,189.7696066267015,324.3744208150207,457.84610217708166,175.7610676283892,140.3207743975997,82.89464579588741
185.0461892151342,188.4624673489892,321.1173644595662,461.89647424452306,176.68308531148347,143.79560789834932,82.81687645880653
185.09765661365043,187.12984365303458,318.03477812039523,465.92722872093924,177.66780970717403,147.33866554618592,82.74386015004971
185.11434882737956,185.77394967468464,315.1273006707238,469.9248374118974,178.71193842974412,150.94744670025153,82.67590938999605
185.09357814778485,184.396963311048,312.3947772178443,473.87626900357895,179.81192563419918,154.6195685666916,82.61327014219957
185.03338647841653,183.0010947112855,309.8362122337098,477.769003932597,180.96407002177546,158.3527377735467,82.55615467824131
184.93245525359652,181.58862951700024,307.4497545451698,481.5908870599626,182.16449003730813,162.144572053343,82.50478846500351
184.7900237290272,180.1619398524105,305.2327435924022,485.33006914489494,183.40908101403508,165.99236430709368,82.45941266994836
184.60576535814508,178.7235036605176,303.1818207463146,488.97508041790536,184.6934800061344,169.8928959844171,82.42024550068773
184.37964936156322,177.275944895898,301.29310209412125,492.51493106347704,186.01300942641544,173.84238055946875,82.38746060272564
184.1118392516627,175.8221119289142,299.5623486645042,495.9391433708606,187.3626245652783,177.83651211025182,82.36121309612011
183.80262735596006,174.36519927382756,297.9850327302963,499.2377746282574,188.73693309864964,181.87048868140056,82.3416737067316
183.45236581123842,172.90881816281828,296.55631403628036,502.4015320058202,190.13028306655568,185.9389366226305,82.32902148702887
183.06139926479253,171.45693049710954,295.27102824701456,505.4218476192591,191.53683081667927,190.03580222711935,82.32341070459694
182.63008412256568,170.0137061769589,294.123700117404,508.2907333491378,192.950562059515,194.15430654457955,82.32496233221697
182.1589305838453,168.58341277018536,293.10851617035604,511.000484799229,194.36534700165956,198.287011584199,82.33378174692676
181.64874103996453,167.1703513909702,292.21926805734864,513.5434151926705,195.7750517842287,202.4260189527752,82.34995690151044
181.10060950160857,165.77878992745195,291.4493453581208,515.9117378074718,197.17360589063097,206.56324851495154,82.3735239586415
180.51581555000314,164.41289974664326,290.79182470829005,518.0976042975584,198.55497604376603,210.69067501345367,82.40444656502117
179.8957324307995,163.07673715517296,290.2396624574042,520.0931650804519,199.91313502156552,214.80052815948406,82.44264392401759
179.2417974785382,161.7742485125554,289.78593605413664,521.8905346942162,201.24209835584622,218.88553988354118,82.48803413648791
178.5555017578257,160.50926375117027,289.42403320585527,523.4817269525249,202.5359754007074,222.93914903771778,82.54053751680911
177.83835690521974,159.28549753417383,289.1477520921115,524.8587066717668,203.7889669692315,226.9555727289718,82.60004353031526
177.09184701801192,158.10657265835692,288.9513350392897,526.0135934269341,204.99533652011493,230.92982094076893,82.66639469181852
176.31737813665708,156.97604390085533,288.82946199516954,526.938921756125,206.14941085149417,234.85767372093906,82.73940738529055
175.5162248351072,155.89739636555274,288.77726052574394,527.6278546756495,207.2456299863291,238.73556020108208,82.81888754945382
174.68948189531918,154.87400263052942,288.7903651651079,528.0742950794219,208.27864309384105,242.56036431676637,82.90460698912496
173.83805190341585,153.9090341269695,288.86495516604464,528.2729045429361,209.24340794980654,246.3292402211222,82.9962692774332
172.96271833720772,153.0053364068458,288.99770306933294,528.2191189085049,210.13527626033454,250.03951406712793,83.09351360910111
172.0642912692666,152.16534911809129,289.185669649417,527.9092128858794,210.95018170857574,253.68871012293133,83.19595152947821
171.14371260466365,151.39124947221893,289.4261880475131,527.3403471656361,211.6849751285068,257.27465764246534,83.3031838551944
170.20204421142768,150.68534490800522,289.71674689988777,526.5105808176971,212.33767186546513,260.7955828743456,83.4147762496859
169.24038504031523,150.05039872040263,290.05492581029995,525.4189985684058,212.90742318018124,264.2501295841057,83.53023566312507
168.2597996666154,149.48961547283994,290.4384174301439,524.06599087565,213.39432488902204,267.6373465038908,83.64902804729851
167.2612962953462,149.00638625157873,290.86505938508935,522.4534371716862,213.79921258835225,270.95667608695913,83.7706140681672
166.24583297509812,148.60400440504657,291.3328209077398,520.5846711243765,214.1234641347932,274.2078909856554,83.89445327784512
165.21430939478984,148.28543180349942,291.8398086855341,518.4644801075149,214.36882983408822,277.39097180503154,84.01998060316645
164.16756821699997,148.05312791357528,292.3843109112945,516.0993063520433,214.53733944929363,280.505989052667,84.14660849444579
163.10649068582651,147.90894145691803,292.964769100041,513.4974234374653,214.63126877336964,283.55299899773337,84.27377032350304
162.03217412476067,147.85404263732002,293.57964695085934,510.66883335698856,214.65308459057215,286.5319859966714,84.40095253684021
160.94605339572612,147.88887436538954,294.2273688886869,507.6249516229651,214.6053463502726,289.4429044147527,84.5276789854323
159.8499148568452,148.01314143201503,294.9064369711942,504.37828290302474,214.49065195971434,292.2857233368426,84.65348559109313
158.74588278037433,148.2258551585828,295.61554555380366,500.94213123049957,214.31168826067014,295.06034151796547,84.7779332010296
157.6364003984357,148.52539808310456,296.35348940650863,497.33033775211226,214.0713179413932,297.76641356578386,84.90063958884309
156.52415948507175,148.9096019567771,297.11892693046536,493.55720675983997,213.77260758588005,300.4032173512388,85.0212781397314
155.4119820570397,149.37588617456288,297.9101990534233,489.63769191961427,213.41877073646742,302.9696076483646,85.13954188487297
154.30269586684204,149.9214516373744,298.7253083553909,485.58757743362725,213.01305347865323,305.4640031322293,85.25512483664254
153.1990356423433,150.54346006453184,299.5619944448676,481.42349882893996,212.55861539268574,307.88437425687664,85.36774215350398
152.10358429057473,151.2391204717352,300.4178194907026,477.1629433707074,212.05843608420437,310.2282487018485,85.47714548161098
151.0187506685714,152.0056437978076,301.29032966576796,472.8241899676156,211.5152339718651,312.4927376875923,85.58309751599
149.9467767280561,152.840116266874,302.1773172660736,468.4260191685531,210.93139635474725,314.6746259298073,85.68533743081598
148.88975910372233,153.7393996167319,303.0769816697456,463.987273571597,210.30896193725306,316.7705637665507,85.78358987002015
147.84965143389078,154.70011994532362,303.9878872471201,459.5264533517805,209.64968754706504,318.7772381879681,85.87761151663976
146.82822851226945,155.7187133264208,304.9089006604653,455.06141340261865,208.9551550094698,320.6913881347555,85.96721549294017
145.82703737359734,156.79146960582852,305.83920799633626,450.60913028150674,208.2268414804765,322.50973010072863,86.05224767511335
144.84736827697645,157.91454781132117,306.7782873192758,446.18549104884266,207.4661848903338,324.2289316466455,86.13256003715581
143.89024631883183,159.08394471120548,307.72580240396377,441.8051564023607,206.67474260628254,325.84565171000554,86.20802671670754
142.95642740886439,160.29541249944754,308.6815222451627,437.48160399696474,205.85439333559057,327.3565729553246,86.27858123696366
