HandOpen,HandClose,Wrist Flexion,Wrist Extension,Supination,Pronation,Rest
50.078657375124216,46.07343261719513,77.3749044965466,95.02697745158125,26.08492344362596,113.02586654754104,10.033777828119007
49.82266440378836,45.98809255330996,77.1758303620896,94.78860513268911,26.239328385727756,113.28866191674435,10.164343657026615
49.557705282017984,45.919254932260934,76.95950191373275,94.54922785586803,26.415471907548383,113.57096762707039,10.291630315703745
49.285150160550245,45.867125650550996,76.72485362210729,94.30630846571569,26.614669291661226,113.872005288665,10.414983472093407
49.00626940270046,45.83188084281586,76.4708531681437,94.05732592961787,26.838238523714992,114.19073998079621,10.533776376078924
48.72222909319782,45.813682365016064,76.19656018493893,93.7997887241808,27.087464636435175,114.52591134229469,10.647411569377915
48.43410047042102,45.81268489347765,75.90115077405966,93.53125351709075,27.36354093127399,114.87607952886734,10.755322688005192
48.14287993555535,45.82901574040001,75.5839130326499,93.24934992488413,27.667514754430115,115.23965132513004,10.856976708631727
47.84950884699886,45.862736706902595,75.24425384682229,92.95180588972637,28.000263913666995,115.61487236444843,10.951877455252772
47.554887660673074,45.913816250455824,74.88173956781709,92.63646512034109,28.362504877011464,115.99980169244186,11.039570733686494
47.259885478591585,45.9821250094863,74.49616115733726,92.30128703078567,28.75480725756931,116.3923021745361,11.119648921080849
46.96534608090879,46.06744123111662,74.08759827168323,91.94433183491057,29.177595550873598,116.79006461491392,11.191752157798073
46.67209489468988,46.16945169462342,73.65644771804797,91.56374569875838,29.63115111305101,117.19064651701107,11.255568203010096
46.38095524496197,46.28775364643423,73.20340586347359,91.15776137229822,30.115637969208183,117.59150366941442,11.310837936456885
46.092770496146166,46.42186020128631,72.72943779873486,90.7247225405933,30.63114471965923,117.99001336715841,11.35736803330879
45.80841118375912,46.57119720862281,72.23575771382569,90.26312245898241,31.177707073285006,118.38348802254859,11.395041355227033
45.528753998265685,46.735092916124756,71.72381507647175,89.77163086641153,31.755298497033657,118.7691747943287,11.42381736738182
45.25465004093722,46.91277533271596,71.19530740604206,89.24909489864766,32.36380900145223,119.14424970130037,11.443726362435383
44.98691872015941,47.103379169764935,70.65227277480514,88.69452757946765,33.00302769343286,119.50582257862445,11.45486407555803
44.72638256786415,47.30595762708387,70.09724292596404,88.10710629798658,33.67263070981849,119.85095601366804,11.457387593015975
44.47391785224254,47.5195019666057,69.53334105696305,87.48618732642788,34.37217265737168,120.17668173999262,11.451510021164077
44.230487147932955,47.742970303486544,68.96425636580726,86.83132219309184,35.10107267360008,120.4799996866295,11.437493092631097
43.997136822626906,47.975324418823924,68.39413894887254,86.14226102738897,35.8585860831719,120.75786280969552,11.415639246616143
43.774959431345565,48.21557695066078,67.82747353756828,85.41894205350297,36.64377190882184,121.00715987533037,11.386284589122006
43.565039685616306,48.46284130568287,67.26894796136217,84.66147452922633,37.45548029217853,121.22470780970339,11.349793870465282
43.36841054943026,48.71635682220259,66.7233162695728,83.87012026683772,38.292381417518165,121.40726158224632,11.306557563648676
43.18603639391763,48.97547165107937,66.1952640089112,83.04527404256896,39.153045068399415,121.55153859655269,11.256988639589018
43.01881707005032,49.23960203779838,65.68928608140267,82.18744304549692,40.0360423499846,121.65424671443714,11.201517220692336
42.86758815480433,49.508197931646855,65.20958370879195,81.29722768942754,40.94000726380527,121.71211533617833,11.140583702223458
42.73311755060204,49.78072343033047,64.75998520205154,80.37530486408035,41.863626756173005,121.72193344352294,11.074631398458598
42.61614060959805,50.05664156872423,64.34389025196455,79.42241433921724,42.805591375012234,121.68058206113061,11.004099727826148
42.51745067581449,50.33539442409394,63.96422971851418,78.43935251275488,43.76455423250719,121.58505001642575,10.929419168311382
42.43798870089767,50.616382241996035,63.623435509155875,77.4269770640865,44.73911300331799,121.43244640117288,10.851009908769669
42.37886908506079,50.89895466360442,63.32342101000407,76.38621736295917,45.727814539670625,121.22002342111082,10.769285296072585
42.34134449251456,51.18241856693453,63.06557446602253,75.31808198126897,46.72920354445427,120.945200148452,10.684656554149917
42.32674617914676,51.466048303612844,62.85077707472968,74.22366440688972,47.74191611212741,120.60557519399339,10.597533570202545
42.33641919107737,51.74909208969848,62.67944993916188,73.10415207304297,48.76477037552105,120.19893534713246,10.5083213604905
42.37166392869697,52.03078454367378,62.551600227521504,71.96083508635594,49.79684757305897,119.72327275850749,10.417415229506679
42.433700444224144,52.310360680372796,62.46683799366782,70.79511155691841,50.83758427124124,119.17681330121592,10.32519656963592
42.52365736245058,52.58706018351066,62.424373240373946,69.60849246627976,51.88682426851584,118.55805869476579,10.232029800857221
42.64256637167371,52.860130601186775,62.423014415489284,68.40260318767422,52.944799930246646,117.86584148589166,10.138260300020747
42.79134285741552,53.12884817265529,62.46117479976556,67.17917895024634,54.01210427082086,117.09937113273375,10.04421331719725
42.97074806574205,53.39256823097369,62.536884211370435,65.94006161904959,55.089684645733264,116.25825407651122,9.950194266992256
43.1813415953012,53.65078699540786,62.6478046471219,64.68720053151092,56.178823155064286,115.34249659559319,9.856490145376396
43.423437860526725,53.9031668820676,62.79126273820096,63.4226487192894,57.28107228094774,114.35249452617808,9.763372523708805
43.69707859304791,54.14950638378627,62.96432381991191,62.14855049889157,58.39815180018657,113.28900515900179,9.67110299831635
44.002030844885134,54.38968583177371,63.163900096942406,60.86712827984497,59.5318703616736,112.15311325044237,9.579938243305946
44.33780775352984,54.623619685368936,63.386836913535284,59.58067352988001,60.68414663680524,110.94620602627604,9.490130987343658
44.70368870334564,54.85121782581102,63.62994135510101,58.29153354227071,61.85711056885221,109.66995374132684,9.4019281801709
45.098721440662125,55.0723501766384,63.88997819320151,57.00208659777913,63.053179288770316,108.32628626675029,9.315569329361253
45.521721070994516,55.286817172212366,64.16366920586138,55.71471121481412,64.27503691181205,106.91736451121974,9.231285543617334
45.97128468451175,55.49433374639205,64.44770627252319,54.431757656673575,65.5255283826702,105.4455514996062,9.149298490682165
46.44581131045191,55.69453342001865,64.7387722593585,53.15552253270308,66.80752984193366,103.91338829090041,9.06981808529464
46.943509079084784,55.88698828785235,65.03355666595031,51.88822457788945,68.12388021422274,102.32357496834501,8.99303823722739
47.46239087205793,56.07123129164447,65.32875818850815,50.631982762010914,69.47740488257833,100.67895112810162,8.919132589183327
48.00027190996056,56.246785711141044,65.62108265085132,49.38880022397826,70.87097116674079,98.98247242354532,8.84825331358609
48.554781853324435,56.413212365210015,65.90725573849777,48.16055476970946,72.30750655595557,97.23719208452667,8.780533253977614
49.12339545806277,56.57014576361867,66.18406516672356,46.94899169511228,73.78996365464789,95.44627017633786,8.716088875253213
49.703470646547174,56.71728683166486,66.44841928057869,45.75571517535559,75.32125561549911,93.61302432264507,8.655021394914602
50.292277021592085,56.854370157156865,66.69738566874523,44.58217911845338,76.90418030696642,91.74100304102289,8.597415607340965
50.887009376479554,56.981141879814736,66.92819324542667,43.429680000636914,78.54131388743814,89.83404239060121,8.543338211960368
51.484792168742366,57.09735533380067,67.13821432101706,42.299352768406436,80.234867493618,87.89627435646558,8.49283713457967
52.08268472815577,57.20276759907279,67.32494837013022,41.19216983573184,81.98655241962273,85.93208600793665,8.445942499308325
52.67769799965052,57.29713024168884,67.48602749547422,40.10894328634841,83.7974978692253,83.94605636351743,8.402669757282794
53.26682274995728,57.380191476291934,67.6192603147722,39.05032991068481,85.66821635857079,81.9428917777874,8.363023313299973
53.84705392212747,57.451718596404525,67.72269793655963,38.0168372357356,87.59858123495461,79.92736244457633,8.326998336792428
54.41540355723112,57.511518942287644,67.79467546266525,37.00882902646114,89.58779973646311,77.9042412304655,8.294580795229608
54.96892024559638,57.55943937557826,67.83380697224896,36.026530650651694,91.6343882379205,75.87824923504769,8.26574861556332
55.50474410557986,57.59535158141529,67.83895310524748,35.07003517073451,93.73614660007924,73.85401052040147,8.240483360467296
56.02019601991468,57.619139864494535,67.80918616467568,34.13931098815677,95.89013446316339,71.83601694064282,8.21880082219098
56.51285227101586,57.63069566878233,67.74377747789089,33.23421344212435,98.09268430941248,69.82860504301546,8.200788471309071
56.98056514950825,57.629911465239296,67.64224182867778,32.35450237820358,100.33946688537536,67.83594388828968,8.186624725964656
57.4214458120397,57.61667032454947,67.50443379170456,31.499862200567147,102.62556184714319,65.8620245500413,8.176571691374303
57.83384217389575,57.59083719193969,67.330618962379,30.669917439247065,104.94549204479509,63.910643061969004,8.170954122654509
58.216324755465976,57.55226040776301,67.1214603088276,29.864241596091002,107.29324148475415,61.985379036849345,8.170138264788749
58.567681684970644,57.500784033556535,66.87794562168457,29.08236297232557,109.66228445230503,60.08957661711612,8.174513615043447
58.88691825651435,57.43625756246364,66.60130789341257,28.32377082040197,112.04562094619189,58.22634779393699,8.18447586374547
59.17325557445915,57.35853182836443,66.29295906779431,27.587921695075664,114.43581028224997,56.398643680340854,8.200411346883003
59.4261255900567,57.267451458253475,65.95443647504212,26.8742453515046,116.82500977595798,54.60939538906427,8.222683678860289
59.645156740257875,57.16286686075581,65.58735783439919,26.182151556044417,119.2050297151423,52.861627407616844,8.251622275042342
59.830146183593065,57.04467697223695,65.19338189585488,25.51103863061648,121.56740545175457,51.158463513929206,8.287513048428144
59.981028759087756,56.912885867049894,64.77417335312556,24.860301924482155,123.903476090662,49.50305733150165,8.330590808598389
60.09786414627246,56.7676419403882,64.33137195491827,24.22934235601751,126.20446681686109,47.89851088327902,8.381032145726488
60.18084982249855,56.60924495140244,63.86656598405842,23.617578242820596,128.46158001472844,46.3478066280434,8.438949432079541
60.23034035596434,56.43812640547554,63.38126897656212,23.02445850710897,130.6660884399497,44.85375926354466,8.504387934966994
60.246856604379325,56.25481582388647,62.87689954184333,22.449469700142036,132.80941398065823,43.41898874207598,8.577327347311186
60.23108700513501,56.059910060159254,62.354767658945526,21.892135654700247,134.883178611796,42.04590694005048,8.65768682815897
60.18387759650631,55.85405734000174,61.81607078106779,21.352019617709573,136.87923194315465,40.7367031982692,8.745329903995522
60.10620309297709,55.63795217419727,61.261898914760785,20.828736853376885,138.78968140086204,39.493319692039734,8.840066388149392
59.99912787100324,55.412333477889575,60.69324458106308,20.321970633095045,140.60693591876398,38.317421249158905,8.941652030396297
59.86377662886011,55.177981882555905,60.11101232809659,19.83147790059081,142.32374248235632,37.21036799538218,9.04978787527031
59.701326776830335,54.93571149206392,59.51602371671094,19.35708158619576,143.93320456827243,36.17319400297759,9.164120952190435
59.513016308424454,54.686352586507624,58.90901913188671,18.898657227994867,145.42880266171676,35.206592973804256,9.284247464282464
59.30014849771878,54.43072571564596,58.29066218334124,18.456121482435016,146.80443784970447,34.31091156638214,9.40971775780108
59.064084203555964,54.169610840066355,57.6615486424775,18.02942462866947,148.05448753574726,33.48614790640382,9.540040691451665
58.80623235110207,53.903716525351655,57.02221491879255,17.618544117080617,149.17384116785396,32.731951842823605,9.67468641854321
58.52804630912204,53.633659805701114,56.373141322674044,17.223475389085042,150.15790862435452,32.04762724073459,9.813089240305343
58.23101733324485,53.359980369770064,55.71475079495619,16.844220331922415,151.00262536010788,31.432140585026517,9.954652422430744
57.91666740110523,53.08319920797764,55.04740672142781,16.480777645407603,151.70446805887252,30.88414022140599,10.09875444964456
57.586555533421794,52.80388744120066,54.371413347343115,16.133137639624085,152.2604713441937,30.401983882069196,10.244754363643066
57.24228529931755,52.52270897428028,53.687022020895775,15.801278979031652,152.6682352083188,29.983769026108536,10.391994951719166
56.88548773626529,52.24044223903937,52.994446195851,15.485163961305963,152.9259259555677,29.627373503717823,10.539804576183286
56.51778185497781,51.95799000185077,52.29388713946716,15.184732827642195,153.03227695957108,29.330513397334943,10.687499125072156
56.140734437711856,51.676374743576545,51.5855699517405,14.899900376802254,152.98658339126854,29.09079538614325,10.834385018288042
55.75583297813506,51.396742604325965,50.86978244383837,14.630555892320643,152.78868678209767,28.905737346994407,10.979762656610793
55.364471760018134,51.12039245822386,50.14690893688944,14.376562952543635,152.4389596231824,28.772763908164652,11.122929261391354
54.96794435717285,50.84879076579652,49.41746595024297,14.137756869357096,151.9382931744637,28.689197652749897,11.263181743600363
54.56744441188251,50.583532747019675,48.68214200168996,13.913944188757565,151.28807936701438,28.652255918259108,11.399820932224067
54.16408539761185,50.32626794896983,47.9418162745897,13.704908105927807,150.4901833881433,28.659057157975504,11.532157000309228
53.75893203951665,50.07862828165762,47.1975380704454,13.510414435915946,149.5469101629034,28.70663776108745,11.65951457577146
53.353016192697275,49.842175821343524,46.45048319701062,13.330211586049481,148.4609703231331,28.791972418063057,11.78123630238454
52.94732878091442,49.61837337316664,45.70191053907016,13.164027005859898,147.23545783215513,28.91199054885661,11.89668508538376
52.542807641819095,49.408574039069755,44.95312699550103,13.01156991756622,145.87385277765853,29.06359045984774,12.005246316588394
52.14033404343327,49.21402179764181,44.20545895445082,12.87255010498493,144.38005000011623,29.24365667806812,12.106330997730756
51.740737580328215,49.03586422619983,43.460227643960266,12.746708247616358,142.758395985951,29.44908226353685,12.199379814548216
51.34482421284803,48.875178868273316,42.71872925464223,12.633835873576217,141.01370878165994,29.67679285484508,12.28386818187344
50.953432684670766,48.73299146253896,41.98222212594707,12.533771263427738,139.15126898108787,29.92376392373996,12.359312928521817
50.56747713323847,48.61026202571903,41.251920181604234,12.446380484316796,137.17678865027733,30.18702587579492,12.425280317043402
50.187938555989916,48.5078513322838,40.528987920173066,12.371537424236964,135.0963694797248,30.463662444320402,12.481392137187628
49.81582120530877,48.42651144309085,39.814532026443196,12.309107959093422,132.9164628440374,30.750810058442315,12.527327237953997
49.45210340853986,48.3669247900134,39.109588897674165,12.258938865571082,130.64384034561868,31.04566024081116,12.56282075729813
49.0976947231492,48.32975730116143,38.41511301213447,12.220850689537581,128.28556934871625,31.345464489298244,12.587664151150554
48.753406780591064,48.31567124043297,37.73197489787553,12.194631968208133,125.84898920963776,31.64754060537673,12.60170515252829
48.419940901110635,48.32529244615058,37.06097243135174,12.180032531356648,123.34168523618538,31.949279859511638,12.604845461790825
48.09788374706336,48.35916828333691,36.402845671590065,12.176756352275849,120.77144745248185,32.24815541919045,12.597036986456343
47.78770348244733,48.41773790503107,35.75828336980734,12.184455704406291,118.14621705669244,32.54173086447084,12.578280980671371
47.489749088976346,48.50130586940831,35.1279216365512,12.202728447956737,115.47404092589458,32.827666330480476,12.548632903496594
47.20426158106061,48.610010293116815,34.51234139500158,12.231122184861967,112.7630315887926,33.103721250279904,12.508208959591363
46.93142081058982,48.74379418487594,33.91206897339973,12.269146040663143,110.02131182199663,33.36775535246437,12.457188146056641
46.67144352023535,48.90238902608713,33.32758035564389,12.316281475752016,107.25694519399751,33.617732945324235,12.395809172536653
46.424686459540425,49.08530711180506,32.75930457238043,12.3719838996529,104.47787710746245,33.851733308211884,12.32436535027357
46.19168458913987,49.291835877827275,32.207621206409435,12.43567855680709,101.69189839795682,34.067963952666815,12.243199204042384
45.97312023187152,49.5210352985059,31.67285127042327,12.506759578902853,98.90661957826897,34.26477634117019,12.152696758114057
45.76977046640244,49.77174325842584,31.155244773614974,12.584595482907757,96.12945071873618,34.44068541933943,12.053282143132689
45.5824609778116,50.04258761653424,30.65497357957156,12.668537308649114,93.36759308392111,34.59438395629172,11.945415079928516
45.41202347148945,50.33200216876513,30.172139467601,12.757924204572204,90.62803202658966,34.724742115618774,11.829591515346555
45.259249941157265,50.63824902257976,29.70679478350877,12.852084702638265,87.91752174864357,34.830798506920914,11.706342432095697
45.124846546038,50.95944497140733,29.258960305792485,12.950335708041042,85.24257459985768,34.91175555412034,11.576227209092563
45.009395091481856,51.29358128081873,28.828632279979598,13.051982118296639,82.60945639183188,34.96698186120757,11.439824499312556
44.91333341885528,51.63853214037139,28.415783476608283,13.156318222110484,80.02416691073782,34.99601550664607,11.297725130047258
44.83696415679414,51.99205663720185,28.020363154973953,13.262631107334045,77.49239800700386,34.99856585809885,11.150528506476704
44.78048184140242,52.3518015839958,27.64229980196346,13.370206361151746,75.01948556387794,34.974515613699786,10.998842042642494
44.74399243525123,52.71531320293624,27.281510833505425,13.478335434272644,72.61037301834392,34.9239187642234,10.843281281746352
44.727511887524486,53.08006010310957,26.93791306583503,13.5863233064208,70.2695901445997,34.84698791881632,10.684467431117367
44.7309536561311,53.44345781224843,26.611421434510827,13.693494785761725,68.00123865678427,34.744075451993204,10.523022259922838
44.75412717409159,53.80288618802397,26.301936919839754,13.799197828431268,65.80897873207729,34.61566279184885,10.359563347509917
44.7967559382713,54.155704246852004,26.009337256658995,13.902803964424928,63.69602694808344,34.46236384410097,10.194701577753083
44.858494186773356,54.49927128896957,25.73347700302196,14.003707575668786,61.66517888150116,34.284933914571546,10.029040493243487
44.93892325279908,54.830975339119924,25.474190525495313,14.101325607291086,59.718847504094256,34.08428616805684,9.863176078390856
45.03753784594332,55.14825955646457,25.23129015316786,14.195098858831978,57.8590968365747,33.86152835602083,9.697695796112685
45.153736782336374,55.44863845275659,25.004559358931157,14.284496166446768,56.08766255278784,33.61800122928385,9.533175933543026
45.286816414307275,55.72970730417541,24.793746229807173,14.369022894005129,54.4059577181616,33.355279568054286,9.370176654970402
45.435962318546785,55.989150201772965,24.598563689033387,14.448232771247321,52.81506313315392,33.07513127566768,9.209236212943098
45.600247168705,56.22474591926848,24.418699051255548,14.52173721114454,51.31571514523016,32.779463013141466,9.050867012401381
45.7786415619566,56.434370688095356,24.253826042136218,14.589206674719062,49.90830880782702,32.47027455535513,8.895554074367345
45.970027654059066,56.615999758842186,24.1036092897532,14.650365475284607,48.59291703938562,32.149624292446745,8.74375468021523
46.17321051099041,56.76771078870026,23.967699355970623,14.704984663796104,47.36931586816675,31.819598213450465,8.595899941000619
46.38693618241208,56.887699615281015,23.84572245799765,14.752876147104857,46.23701905070658,31.482277982867103,8.452398998778163
46.6099116620796,56.97432355446289,23.737269187834872,14.79388964625545,45.19532793308969,31.139712022643597,8.313642324989496
46.84081407500708,57.02616304459599,23.641887401404922,14.827911862008845,44.24337612075162,30.793893852564175,8.180001109295521
47.07829518800833,57.042064100116605,23.559081943562685,14.85486539600539,43.38014204956146,30.446745233781996,8.051824146841064
47.3209923901737,57.02114246680763,23.488316361446,14.8747065139031,42.60443433191617,30.100099609573434,7.9294335576963695
47.567544284341096,56.96276839807305,23.429012073703813,14.88742441029468,41.91487494345795,29.75568475348691,7.813119641686904
47.81660345346449,56.8665527195398,23.38054824851366,14.893044929895414,41.30989251578936,29.415105667358574,7.70313689795877
48.06683969488796,56.73233424708105,23.342265034404466,14.891635926623739,40.78772096211171,29.079829275289796,7.599703120593086
48.316932885184464,56.56016209522438,23.31346669068016,14.883307863261185,40.34640148614141,28.751172841381848,7.503000505283816
48.56556595079672,56.35027338937284,23.293422341522554,14.868212905732067,39.98379201403447,28.430297094009816,7.413176508490224
48.811427581732666,56.103073261264186,23.281368089655295,14.846558726638994,39.69757936130352,28.118202756986765,7.3303439743403285
49.05321856962576,55.819121902558265,23.27651784366797,14.818640761542959,39.48528660180439,27.81572842820297,7.254581366299002
49.289649126698826,55.499127038879166,23.278083413421083,14.78486785478534,39.34427445207981,27.52355000435632,7.185933650546523
49.51942637388095,55.143944045065204,23.28529087364271,14.74575998197324,39.271736089800775,27.242184635031546,7.124413454013507
49.74124330305502,54.754588886426234,23.297382637300547,14.70192633304236,39.26468723204345,26.972000613113345,7.070001372555257
49.95378072620145,54.33225229858115,23.3136102776404,14.654039552698332,39.319960243306994,26.713229229880866,7.022645881482897
50.155724061895214,53.87829541839516,23.333226987764025,14.602813168817761,39.43421411045721,26.46597504021597,6.982266744829793
50.345787115053156,53.39422959252842,23.35548369859203,14.548988858204682,39.60396491873803,26.230226396798038,6.948764089483978
50.522734671654796,52.881699535597186,23.37963193965581,14.493336373723174,39.82562695127257,26.005867352472162,6.922027897878699
50.6853973652697,52.34247582432059,23.40493326348777,14.436655484760582,40.095549895713575,25.792690305545815,6.90194605657229
50.832674680329845,51.778452783378015,23.43066765012008,14.379770119104695,40.41004373092601,25.5904125082612,6.888425021151046
50.963533483346055,51.191661027849705,23.45613403589451,14.323523897770423,40.76539260205295,25.398696057470147,6.881431205134332
51.077011847675436,50.58430274656125,23.480645634163917,14.268788330305316,41.15787490889743,25.21716501914551,6.881029510843091
51.172223993349576,49.95878717130676,23.50353139137719,14.21647232429505,41.583800689086,25.045424149716606,6.8873919144845415
51.24836736996118,49.3177365403656,23.524156646248887,14.167514375915971,42.03954331703901,24.883088084951915,6.900781190713875
51.30475445990656,48.66396063311262,23.541959208181012,14.122857579556518,42.521540746145796,24.729808794951918,6.921529141811919
51.34087803367563,48.00041310365688,23.556476738912952,14.08341954610659,43.02627856916194,24.585282281048453,6.950015780633456
51.3564828678883,47.330141995318854,23.567354949103407,14.050064920673226,43.550286780177885,24.44923613923863,6.986647425575931
51.35161140922561,46.656246317650975,23.574348820521266,14.023583648113188,44.0901639662624,24.3214115845305,7.031835603087382
51.32660578441394,45.98184412013105,23.57732044196151,14.004678290390673,44.64260807409529,24.201548577909126,7.0859831849321075
51.282068945421884,45.310050772219384,23.57622683739047,13.993962945307207,45.20442467015678,24.089375248991637,7.149479911984307
51.218809921660295,44.643970023136966,23.57110164143513,13.991969686788261,45.77251372083017,23.98459859816441,7.222700099038342
51.137793895571775,43.98670905529271,23.562042828508705,13.999151884745114,46.34386076285952,23.886897253505197,7.305994845227696
51.04009759187682,43.34141621249141,23.549213379573263,14.015879701377694,46.91554633059997,23.7959240601503,7.399679362723131
50.926870870062935,42.71130711855938,23.532847409072463,14.042435579611794,47.4847603874207,23.71131979693979,7.5040195463221355
50.7993142398976,42.09964881489329,23.513246203540653,14.079019087249156,48.04880759013658,23.632724786203024,7.619219690120156
50.658672115447864,41.50971674794061,23.4907599239046,14.12575992460444,48.60510916766306,23.559777893999346,7.745412766977463
50.50622811399855,40.94475686863867,23.465767752247668,14.182729031318189,49.1512159313934,23.49210716664888,7.882654799547398
50.3432945748613,40.407957599866556,23.43867264473982,14.249940145862785,49.684840118665825,23.429320196916088,8.030922069923172
50.171200312345505,39.90241781229366,23.409911303039245,14.327343060020475,50.2038919421197,23.370998269588362,8.190107800173184
49.9912797870374,39.431117066920905,23.379960899212307,14.414816780200054,50.70649226762775,23.316695906639424,8.36001733218898
49.80485842948048,38.99690933050897,23.349329160187065,14.512173639530305,51.190955699984606,23.265944872971424,8.54036443403921
49.61322949893197,38.60255407517151,23.31853627515359,14.619176541152335,51.655762692135816,23.218259085980254,8.730771947275208
49.4176336404468,38.25079350797615,23.28810341331946,14.735554346487287,52.09953284445439,23.17313710001927,8.930777293107399
49.21925983317047,37.94444858008425,23.258550067056255,14.861004280696188,52.52100364140941,23.130062198317138,9.139840328041567
49.019263649011286,37.6864682387674,23.230391044075066,14.995196463103667,52.91902139602585,23.08850246392465,9.357352401137817
48.8187761517288,37.47991752790461,23.204127525075858,15.13779988525505,53.29254903519206,23.04791141297516,9.582647407154512
48.61889360779189,37.327956969360976,23.180235597811805,15.288518390285166,53.640685797560735,23.007728032458427,9.815011784223469
48.42066267855723,37.23383019957536,23.159154568863315,15.447106926202773,53.96268294089014,22.967377184291706,10.053688676162182
48.22506666777001,37.20081957278507,23.141274378107756,15.613359174999614,54.257944290022394,22.926273861141684,10.297876928686792
48.03300478521136,37.23216400720246,23.12692430402612,15.787082022345748,54.526017801595636,22.883832440427803,10.546729622974915
47.845264109507575,37.33098565822436,23.116364872413477,15.968071783599132,54.766584569344694,22.839476628915204,10.79935599730034
47.662491332224086,37.50024630378812,23.10978258837804,16.15609569151447,54.97944041506699,22.792645206042884,11.054827537380248
47.485172945568905,37.74270655775986,23.107289845988266,16.350877508429544,55.16446882528304,22.742793297753707,11.312185679884122
47.31364002051067,38.060859209289994,23.10893171080408,16.552089120619566,55.32161550255394,22.689391612550327,11.570448196095697
47.148106246407224,38.45683872261784,23.11469325077342,16.759349940329926,55.45087290747245,22.631927691538472,11.8286143170416
46.988714405436504,38.93233684845319,23.124501021308227,16.972228971035083,55.55226995719508,22.569915417683823,12.085671104797584
46.83555715306084,39.488555555600556,23.138221849128485,17.190242718905402,55.6258624465418,22.502915959802067,12.340602273430344
46.688672849328924,40.12619981630793,23.155664240488683,17.412849152234873,55.671736674516595,22.4305677732831,12.592397004990728
46.548036724919434,40.8454798172051,23.17658157039478,17.639442285554704,55.69003378119886,22.352618238146867,12.840055395149296
46.413555775263205,41.64609396168343,23.20067335412811,17.869349903123126,55.680975206657415,22.26894214918057,13.082591085644637
46.285075390808686,42.52720392785182,23.227583513634393,18.101836287603486,55.64487337073857,22.179536288209235,13.319036323041834
46.16240282255981,43.4874468973588,23.25689819391467,18.33611720530758,55.582137721124944,22.0844971523316,13.548453534131323
46.04532884901028,44.52500351215813,23.28814766385376,18.571391475472698,55.49328680276538,21.983997003253137,13.769950398692798
45.93363123071718,45.63767460235864,23.320814574903196,18.806874862283248,55.378963680854056,21.878266470820307,13.982691679092369
45.82706921576277,46.82291663948451,23.35434422081258,19.04181618180749,55.23994826094356,21.767582342349247,14.185904650837951
45.72537912472575,48.07784587685906,23.388150220372815,19.27549467667329,55.077161138132425,21.652255684761403,14.378879591303788
45.62826957646091,49.39924465154649,23.421615476662193,19.507211083740327,54.89165744383511,21.532620675785722,14.560967955817354
45.53542656192796,50.783578187228045,23.4540932515765,19.736278868264726,54.6846144936906,21.40902999826444,14.731579345652417
45.44656547286495,52.22701240628154,23.484912031896684,19.96201522980768,54.45731957265924,21.281861594797007,14.890177380488318
45.36154321321265,53.72542620225606,23.513385219489674,20.183736309101935,54.21116343867035,21.151533309676505,15.036275131102562
45.28046342186187,55.27441834518508,23.538822737195638,20.40077150775701,53.94763682444419,21.01851132545825,15.169430929418676
45.20370229085198,56.86931061951693,23.560539017507192,20.61250304215096,53.66831602313684,20.88330180722257,15.289246030929712
45.13187082506217,58.5051450625741,23.577856570191404,20.81840626183688,53.37482993152798,20.746431095764525,15.395366789247536
45.06577218066889,60.17667544991181,23.590110503817634,21.018060958894367,53.068819749036265,20.608425938422137,15.487491667868133
45.00637417898479,61.878366946719176,23.596657417357413,21.21113464787475,52.75190971388124,20.46980085260312,15.565378655553191
44.95477754992409,63.604424626236266,23.596886893833545,21.397357002594354,52.42569815892421,20.33105531924702,15.628848096191945
44.91216982810438,65.34884988569628,23.590232197666094,21.576497096656272,52.091761893405256,20.19267768980162,15.677780187359087
44.87977850378126,67.1054926936786,23.576176321003633,21.748348052734887,51.75165726580429,20.05514745388264,15.71210974852381
44.85883080199226,68.8680770509464,23.554252339352246,21.912723417088884,51.40690979778438,19.91893016165985,15.731820840244833
44.85051939945228,70.6302138855926,23.524043824938232,22.069463159092184,51.059004530771986,19.78446684463587,15.73694307661036
44.85597723667752,72.38542349530303,23.485190816999314,22.21843792667906,50.709395652050176,19.65216279948598,15.727552052919913
44.87625615318882,74.12717605384421,23.437397471411302,22.359545689605884,50.35954044652768,19.522378782533565,15.70377538175231
44.91230324206104,75.84894634597157,23.38043385338499,22.492705460741885,50.01094294148642,19.39542612221334,15.665800708346268
44.964944901557004,77.54426602432112,23.314131238443426,22.617849681045737,49.66517464104713,19.27156515662363,15.613880125020593
45.03488376665447,79.20676502321122,23.23837444868203,22.734912669771184,49.323852224082266,19.151005373269975,15.548332307678326
45.12269330745923,80.83021602494246,23.153092944393823,22.843817975857302,48.98859474793229,19.03391537098486,15.469546196218904
45.22880044125576,82.4085895567872,23.058253187956616,22.944472663221493,48.66099703381385,18.9204605853012,15.377982535239475
45.35346841797139,83.93610832164258,22.95385472366739,23.036773748111273,48.342624943519574,18.8108633835817,15.274168949411852
45.49679122211904,85.407292491747,22.83992757255317,23.12062134630746,48.03500893668729,18.705444790117628,15.158691233115274
45.65869290729271,86.81699297504638,22.716527742782556,23.195926374445847,47.73961871145109,18.60462164610947,15.032183928128608
45.83892519187384,88.16040402381876,22.583731937014576,23.262607983489858,47.45782407978326,18.508875852088817,14.895320417731059
46.03706671087727,89.43305701834188,22.44163411787882,23.320586586901186,47.19085632154305,18.4187228058837,14.74880355316076
46.25252207174167,90.63081566328584,22.29034512510479,23.36978412147366,46.939785604641486,18.334692546896175,14.593358723084487
46.48451420832546,91.74988163587912,22.129994232508963,23.410144559723882,46.70552408890787,18.257322376650006,14.42973088704716
46.732075419201905,92.78679660716736,21.960730211162648,23.441671372794666,46.488842205021136,18.18714851903879,14.258685661324577
46.994052219591445,93.73843122989689,21.782721272978232,23.4644548092799,46.290372087159426,18.124689540668502,14.081011069806289
47.26912947436376,94.60197300670188,21.596154756756736,23.47867173515952,46.11058934080727,18.070427262798066,13.897515285538837
47.55586207137022,95.37492833090093,21.401236722787893,23.484571785561748,45.94978842860658,18.024790992515396,13.709019599626618
47.852700194301875,96.05513412599844,21.198192675280257,23.48246591010255,45.808071603811904,17.988146675366533,13.51634906504978
48.15800313836426,96.64076134813115,20.9872711971955,23.47271605563001,45.685359444318046,17.960796532958685,13.320322323029432
48.470043153330565,97.13030453565926,20.76875000090227,23.455727385789157,45.58141630666217,17.942993808875986,13.121741326671216
48.78700517301313,97.52256536242945,20.542945696604097,23.43195726694905,45.49587670161996,17.93496243853845,12.9213834532233
49.10698959294003,97.81663720773635,20.310229072486223,23.401940405662977,45.42826194060935,17.936903749285396,12.719998951165337
49.42802605243821,98.0118953696923,20.071038163361237,23.366302921473107,45.37798610357043,17.948985697255818,12.51831224365792
49.748105450422784,98.10799564683894,19.82587849719871,23.32574819919204,45.3443550763044,17.971325243547664,12.317021886508481
50.06522355097592,98.10487550005503,19.575311157322997,23.281027705372033,45.32656320092509,18.00397862197811,12.116796855658436
50.377413989348675,98.00274989883182,19.319936584548127,23.232913784565074,45.32370036680165,18.04695235394845,11.91827112773761
50.68276368903389,97.80210700068587,19.060379866498803,23.182176809825425,45.3347794110794,18.10023225757398,11.722039141251134
50.979437902157926,97.50371652153848,18.79727934981309,23.129564105346965,45.35876875144204,18.163805923309344,11.528653157538363
51.26573240732146,97.10864858573152,18.53127907729474,23.075782856943796,45.39460848173204,18.237665772122618,11.338621969723976
51.54012101046151,96.61828627476996,18.263027834059827,23.021490661169537,45.44120909649613,18.321816770137705,11.152410623259604
51.80126223136056,96.03432787537672,17.993186142943195,22.96729264131757,45.49744425626471,18.416306861210224,10.970441263063941
52.047971615937115,95.35878818252547,17.72243375922091,22.91374035255822,45.56214973073957,18.521252725257064,10.793093963281322
52.27918574187204,94.59400080740492,17.451467912763935,22.86132760106954,45.634134932225926,18.63683112020968,10.620706336439985
52.49393680356032,93.74262331508768,17.18099249309199,22.810481427216153,45.71219660495068,18.76324613737362,10.453572317661811
52.69134408870539,92.80764958437636,16.911705414119915,22.761554097795404,45.79512136658887,18.900695616191417,10.291940735423687
52.870612446655684,91.79241684255055,16.644290922540424,22.71482790772117,45.88168106290373,19.04934396608018,10.136013769107242
53.031026565067734,90.70058732795104,16.379423912143114,22.670534877415086,45.97063107127301,19.209299105356337,9.985946598787098
53.171944188792985,89.53610303037225,16.117787724205115,22.628877465710207,46.060717879336536,19.38059173785693,9.84185159383699
53.29279275696973,88.30312954859494,15.860095008449818,22.590044480251134,46.15070539162225,19.563156988400056,9.703807926602273
53.39306371206097,87.00600740705389,15.607100079371428,22.55422968729804,46.23941973017903,19.756819343946695,9.571870730647413
53.47229875560691,85.64922272923909,15.359598340538383,22.521646721540066,46.32579178654705,19.961282176571963,9.446073786178562
53.53007287650678,84.237397039453,15.118413591948075,22.492528762738857,46.40888302447294,20.176122553297436,9.326427162978655
53.56598831596122,82.77528063965451,14.884379936656938,22.467124820017357,46.48789772169941,20.400793583425262,9.21291460165702
53.5796862332114,81.26773152516506,14.658328214665312,22.44570816960005,46.56218082477428,20.634639660521877,9.105493054476463
53.57086244512216,79.71967893197773,14.44108256179786,22.428586529015906,46.63119599306109,20.876922770320387,9.004094564760743
53.53927616191392,78.1360852972525,14.233464037989348,22.4160955438275,46.6944911530393,21.126844477980644,8.908633023566608
53.48476255267085,76.52191618500427,14.036292338341102,22.408576289317615,46.751670790400375,21.383552449778144,8.81902535853138
53.407254916522604,74.8821158418104,13.850378827529491,22.40634904262709,46.80238638093188,21.64613811896407,8.735230470709402
53.30679985747711,73.22158382796347,13.676511772004389,22.409690852098894,46.84633594447405,21.913636198170728,8.657285522016783
53.18355391524842,71.54515280145829,13.5154404611149,22.41881867309621,46.8832589735087,22.185027569167666,8.585316031134855
53.037771916608904,69.85756711485647,13.367864798755008,22.433879028637012,46.91292710904121,22.459242001310823,8.519523221472168
52.86979910009348,68.16346168612554,13.234431184231479,22.454947038563756,46.93513920941814,22.735159024286446,8.460166605116283
52.68006474063865,66.46734397130807,13.11572888232895,22.482033994807853,46.94972576170104,23.01160792518302,8.407549001897731
52.469070117114384,64.7735814476257,13.012281876469624,22.51509385454637,46.9565628449122,23.287371199153714,8.362001312643892
52.23737010248226,63.08639378238452,12.924539115461169,22.554021351039445,46.95559021194507,23.561202501453547,8.323865555825737
51.985551982278956,61.409844610954316,12.852867872405929,22.598646207238808,46.946823816368564,23.831867564257106,8.29347797825799
51.71421573376553,59.74782690638036,12.797550772475088,22.648731387342064,46.930362010883165,24.098193816771207,8.271154546990209
51.423961649907255,58.10404447516443,12.75879026745443,22.703979086564235,46.90639030365241,24.359102917060913,8.257180543487866
51.115389989869904,56.481999863390776,12.736722961801112,22.764043139172713,46.8751787971283,24.613628290867876,8.251806279661743
50.78910989756501,54.88499629150484,12.731431486102947,22.828540685303146,46.8370692706702,24.8609416938366,8.255250072902292
50.44574933922015,53.316152005085776,12.742941475463487,22.897055362168103,46.792461535344536,25.100386000800896,8.26770413176371
50.0859595685441,51.778415069474214,12.771208662264845,22.969132356292018,46.741800176575374,25.331484852642156,8.289335009153277
49.7104120277519,50.27456773679115,12.816109164262468,23.044272648511846,46.68555502204398,25.55391967118636,8.320275568065409
49.3197896353237,48.8072236125077,12.877444681119945,23.121931645814634,46.624198964383325,25.76749181035694,8.360612627215083
48.91477686942634,47.37882431827876,12.954966471225303,23.201520949570515,46.5581887440105,25.9720861376302,8.410374863882344
48.4960526829234,45.99163341988912,13.048402768838223,23.28240988283558,46.487946197097116,26.16764123312394,8.469523096530624
48.06428895820886,44.647726132703134,13.15746728864615,23.363926191272725,46.413839706045835,26.354126155227743,8.5379442440631
47.62015444750622,43.34897963997129,13.281846475316684,23.445358027883167,46.33617201805263,26.53152160705787,8.61544969284172
47.16431904272924,42.097067029152036,13.421181445421105,23.525958378972057,46.255178957739375,26.699805978221455,8.701777510889341
46.69745375037531,40.893453863961476,13.575058971294114,23.60495377607928,46.17103603787487,26.85894928322526,8.796596765142608
46.22022890037775,39.73939533665396,13.743016433639392,23.68156669801233,46.083862661600776,27.00891407808106,8.89951180229397
45.73331579853457,38.63593327152086,13.924554763099353,23.755055545426426,45.993717442138696,27.149659636606806,9.01006542316776
45.23739465522742,37.58389645928674,14.119147161560898,23.824751714501446,45.900590217353106,27.281146694603752,9.127741450394353
44.73316610626273,36.58390859834745,14.326238716312172,23.89007098200829,45.804397412107605,27.403338655134405,9.25196778499554
44.22135634212182,35.63640353970705,14.54524147718213,23.950502303890644,45.704979764403404,27.5161955605544,9.382121919195075
43.70271037867863,34.741643386785064,14.7755305748435,24.005589698872683,45.60210536486608,27.61966336809749,9.517540462785972
43.17798086793821,33.89973372518602,15.016446054983088,24.05491581782087,45.49549317650917,27.713664486137056,9.657529948113234
42.647919525610625,33.11063541260887,15.267300756008558,24.098089466943478,45.3848598128775,27.798093473639835,9.801373806645445
42.113268385826956,32.37417793262996,15.52738666720189,24.134738200514374,45.26996105336675,27.87282248844098,9.948334931674157
41.574747672138855,31.690073621252566,15.795973753248362,24.1645065388398,45.15060365205127,27.93772085639227,10.097659517959903
41.03304613067858,31.057927303939056,16.07230446178718,24.187057322617346,45.026635218942126,27.992681765984027,10.248588013810336
40.48882316392058,30.477241835332098,16.355591632256722,24.202071407348864,44.897927860026954,28.03763912298602,10.400370634346107
39.94272110229559,29.94742055756093,16.64502415207043,24.209245197289864,44.764361063187756,28.07256588645546,10.552277811053123
39.39537387973049,29.467762150836727,16.939776182860268,24.20829309524186,44.625807798793225,28.097460132042798,10.703601051571509
38.84740448032634,29.037447444524854,17.2390122792496,24.198960549900818,44.4821293318893,28.112329318722843,10.853648808919644
38.29941677274763,28.6555262580562,17.541888701161206,24.18104062585688,44.33318037337588,28.117179733161024,11.001742831922321
37.75198913316638,28.32091439566291,17.84755881241414,24.154380930940945,44.178823269378064,28.11201387870755,11.147216750475035
37.20568399094594,28.032406852211302,18.155184460726268,24.118878578146166,44.01894673943349,28.096833595386908,11.289416934424299
36.661100906176216,27.788702532640382,18.463943396819825,24.074471386363008,43.853477681740344,28.071644425977823,11.427705074229767
36.118970902929064,27.588425729671464,18.773024954020382,24.021131414086444,43.682379899897754,28.036458758904253,11.561461457573138
35.580232501362744,27.430133847422518,19.081619768118166,23.95886319103728,43.50564782976092,27.991296428017513,11.69008903558633
35.04604203468386,27.31231305231569,19.38891270450355,23.887708898856204,43.323301548719634,27.936182684619308,11.813020230390611
34.51773594573478,27.233369405983748,19.694079927609483,23.807757738365456,43.135379513682366,27.871145281599816,11.929726259013323
33.996780840271136,27.191623500785848,19.996287286387382,23.71915064476749,42.941926988512975,27.796211567310923,12.039723996178385
33.484723439027185,27.18531400778142,20.294691478082754,23.622075651175074,42.74298548965564,27.711407136697616,12.142576891016782
32.98314105185376,27.21260816593333,20.588446350958986,23.51675795200866,42.53858962163848,27.61675835843875,12.237893288982173
32.49359529154464,27.27161435861339,20.876710894932806,23.40345416753203,42.32877068765039,27.51229653706869,12.325329136074226
32.01759272639846,27.360401430153406,21.158653764435265,23.28246255100486,42.11356035690473,27.398059410921135,12.404597967636954
31.556552838384277,27.477030022453164,21.43345559785312,23.154148808203914,41.89299039024929,27.274089772089997,12.475481607822996
31.111781056726077,27.61958185453869,21.700316157298456,23.018965697498857,41.66709105224122,27.140433252689533,12.537832533836175
30.684447154812286,27.78616896755854,21.95846867642897,22.87744854720025,41.43589308650611,26.997136286287116,12.591567435633829
30.275572019496195,27.97492797123183,22.20719347319289,22.730193933766976,41.19943892620684,26.844245066777706,12.63665757141274
29.88602362840041,28.184017618946292,22.445823259939534,22.577835877303098,40.95781124107374,26.681808188688798,12.673120149184292
29.51651897149557,28.411625000648765,22.673741561864478,22.421026060607055,40.71117804613543,26.509889555069233,12.701012280728657
29.167626984700135,28.655968537490708,22.890378497349193,22.260424817450833,40.45983457389023,26.328600650339975,12.720426562768965
28.839769131953616,28.915288868033564,23.095206630026187,22.09670780248258,40.20422156519029,26.138147708662498,12.731485864018687
28.533217510585988,29.187833036228934,23.287740459011772,21.93057771310282,39.94491771690456,25.93886612037078,12.734336308485412
28.248091378551266,29.47184046088571,23.4675421200023,21.762764027974363,39.68261479002968,25.7312210483036,12.729140106615807
27.984352740587713,29.765532990085266,23.63423040387457,21.594009121785543,39.4180857663522,25.515783819850018,12.71607080991437
27.741805737429615,30.067109100381522,23.787488088115197,21.42505023489175,39.15215617640466,25.293202645751975,12.695311698173187
27.520107708037703,30.374744930309983,23.927065547082005,21.256604856563097,38.88568155259609,25.06417535624818,12.667055386459737
27.318790686146144,30.686604355724413,24.05277958330469,21.0893686217607,38.61952602233654,24.82942676738902,12.631502933445999
27.137279662534198,31.000854186623492,24.164506701826852,20.924029268809324,38.35454190034165,24.58969369667822,12.588863088346168
26.974898126967936,31.315676712166457,24.26217259914398,20.761282464442655,38.09155504184719,24.345717262118033,12.53935219427177
26.830866235183787,31.629274639159583,24.345741149940533,20.60183637331441,37.83135312357392,24.09823947066,12.48319353423929
26.704301110832358,31.939869791928224,24.41520518453267,20.44640758870262,37.57467274252835,23.848006721037308,12.42061595174505
26.594222271989196,32.24570343622048,24.47057873937393,20.295710584390484,37.32218918919021,23.595781691470865,12.351852840986592
26.499561144611047,32.54504867371066,24.51188901390447,20.150439060389434,37.074513766454125,23.342351518271684,12.277141447007233
26.419173059652856,32.83623670276878,24.53916822991371,20.01124465411848,36.832198708570864,23.0885210998166,12.196722557155907
26.351848206134623,33.11768270096835,24.55244759416232,19.8787282459682,36.59574418996924,22.835097306430686,12.110841319818656
26.29631867213048,33.38789575683268,24.55175512874685,19.753466489507705,36.36560139526512,22.58287454334856,12.019748280542844
26.25126444264346,33.64547368143104,24.53711914745978,19.636072418076143,36.14217505604719,22.332623010501585,11.923699481550464
26.215326394876705,33.88909407522278,24.50858034685741,19.527242625520163,35.9258360910119,22.085077472439114,11.822956052699004
26.18713135992229,34.117509113160395,24.46621327545123,19.427752716683823,35.71694782521182,21.840929359707538,11.717783652396047
26.165321232827647,34.329543848788816,24.41015070632114,19.338418076312358,35.515892785838666,21.600825265669915,11.608452189245739
26.148571227611562,34.52409605140817,24.34059999853582,19.26005673222929,35.32308076165215,21.36536827156647,11.495237388710795
26.13559368267185,34.700140391907716,24.257846453770977,19.193476204334445,35.138936770439756,21.135120220359386,11.378424362857494
26.125135296352425,34.856743113313655,24.162249430108172,19.13948310671984,34.96388674531184,20.910611913187374,11.258310293884657
26.115975426782743,34.99308711121753,24.054239294634236,19.09888957832938,34.79835160552203,20.692361892820742,11.135203750734066
26.10693126152569,35.108497533120406,23.934314486099872,19.072495572884083,34.64274500695078,20.480888751781215,11.009421246878855
26.096870673999167,35.20245707525335,23.803032542299473,19.061054579145786,34.497467079747416,20.27670680754506,10.881282942038728
26.08472326375352,35.274605557659285,23.66099479535756,19.065241875478442,34.36289039221589,20.080312590221013,10.751109060343405
26.069481574435535,35.32472531820584,23.508829764860117,19.08564076456608,34.2393425376064,19.892171242011283,10.619217622207744
26.050197363772675,35.3527245058389,23.347178987744744,19.122751506516657,34.12709266788889,19.712703910664555,10.485922467204285
26.025980919607914,35.358637654943635,23.176687359207175,19.177006353177873,34.02633991229894,19.542276205797393,10.35153059495889
25.99600366347684,35.342651458015645,22.99799987628253,19.248768084004837,33.937202791782354,19.381188988181158,10.216339128185204
25.95949916704744,35.305136938710895,22.811766891389706,19.33831271705264,33.85972554712349,19.22967060446275,10.080632562453992
25.91575984731387,35.24666399993697,22.618657404422024,19.445817960229803,33.79390932233693,19.08787009936579,9.944681249203398
25.86413165555295,35.167996088192055,22.419372132759698,19.57136936411922,33.73974456228417,18.95585480613595,9.808741593409058
25.80401112555542,35.07007214928757,22.214646493348987,19.71497060654947,33.697226087847206,18.83361420513507,9.67305683919724
25.73484830216615,34.953977506338745,22.00524320231267,19.876540798836444,33.66636362735345,18.72106809494628,9.537857242190722
25.656156552169115,34.820906976273584,21.791939994935078,20.055903769971987,33.64719640650344,18.618082809256656,9.403359742364524
25.5675241177576,34.67212919713372,21.57551583917273,20.25278639124978,33.639801943635064,18.524501882756145,9.269767510730968
25.46861897582708,34.50896356122659,21.35673816656813,20.466828474066872,33.64429529893065,18.440182021213307,9.137269136378272
25.359184968046396,34.33277830512719,21.13635479978358,20.697589039140748,33.66082170780865,18.36501405543872,9.006037812589733
25.239035008444368,34.14500268093265,20.91509377379308,20.944540134102827,33.689541191647905,18.298921071114645,8.876234064163919
25.10804927702197,33.94712956934883,20.693671622205812,21.20705937135298,33.73060551315638,18.241842508733125,8.748017410682216
24.96618300206673,33.74069536605911,20.472805289577224,21.484434804446867,33.78413457229988,18.193715605652958,8.621564831962004
24.813479281163662,33.5272488863382,20.253218769350696,21.775878550307247,33.8502026722517,18.154460686899387,8.497083729064798
24.65007675793324,33.30832600560289,20.035641622657078,22.08053522941235,33.92883907958357,18.12397190771992,8.374811993793223
24.476208256210434,33.08543412790236,19.820805459793622,22.397482202463795,34.02003486327859,18.10211087957428,8.255010758761275
24.292193576997107,32.86004018754551,19.609441221863925,22.72573255267543,34.12374529244261,18.08870090505269,8.13795749156899
24.098429048106667,32.63355794479575,19.402272663972557,23.06424617992325,34.23988359065856,18.08352266972976,8.023943792307373
23.895376412713972,32.40733818210628,19.20000412278878,23.41194321474771,34.36830900904329,18.08631138680195,7.913280014488946
23.683558195570544,32.18266199718382,19.003306399631157,23.767722956119798,34.508816084503714,18.09675401696044,7.806305196772422
23.463562279368276,31.960729457263884,18.81280353019601,24.130495428953086,34.66112621387882,18.11448815026308,7.703403804136371
23.236044076992002,31.74264173250361,18.62906229650655,24.49921038204969,34.8248798663332,18.139106525041925,7.605030086054159
23.001716995564333,31.52938587030981,18.45259015464139,24.872866481394514,34.999636998069775,18.170170457812244,7.511724572529266
22.761341277777934,31.321830877935678,18.28384538310225,25.25050971001158,35.1848923729788,18.207233462824025,7.424106948958716
22.51572327857236,31.120733193150627,18.123254340838006,25.63123258338848,35.380095141424555,18.24987183408866,7.3428526411573145
22.26571980348178,30.92674100765742,17.97122556263162,26.014168480931087,35.584654960204006,18.29771195204237,7.268668749134946
22.012236257700106,30.740390355441424,17.828152081048447,26.398474912647085,35.79793018011137,18.350441657034313,7.202274548777787
21.756216438514222,30.562096813859984,17.694401655671612,26.783309963919937,36.01920873099619,18.40780267178901,7.144384532993036
21.498627234932012,30.392151464271837,17.57030286458474,27.167814192575094,36.24769730226949,18.469573057286045,7.09569163322307
21.240443035363683,30.2307264764574,17.456133099973353,27.551121043994996,36.482529247337915,18.53554939745111,7.056850877685166
20.98263513576314,30.07788856379141,17.352111619647722,27.93241069469155,36.72278828002781,18.60553340033014,7.028465872458154
20.726165786089283,29.933611146987637,17.258404340159686,28.31097723050607,36.96753308090701,18.67932369855308,7.011079612306244
20.471982712548538,29.797777628774725,17.17514073899223,28.6862569447848,37.21580927441288,18.75671042592316,7.005168348998136
20.221013829066337,29.670179214635706,17.102430342882798,29.05780667279991,37.466649178411075,18.837471631918714,7.011135403095546
19.974163666070783,29.550517902020637,17.04037385142139,29.425263289212513,37.719070027019704,18.921374799955302,7.029303065781119
19.732310029999933,29.438419829581132,16.989075361567732,29.788314346438906,37.97207915887942,19.008183198790977,7.059903696718628
19.496297921207248,29.33345206168678,16.94865051441766,30.1466870927796,38.22468999225104,19.097659308698567,7.103073520099733
19.266929560149126,29.235133560983115,16.91921977140077,30.50014237323031,38.47594492564958,19.189561071096207,7.158853156785846
19.044951831651783,29.14294061279899,16.900892770368067,30.84845893353592,38.724931170348,19.28363642387248,7.227194550316829
18.831043361426822,29.056311208684427,16.89375989383276,31.191409224743126,38.970780235224346,19.37962061736689,7.307968203923625
18.625804273209546,28.974647887758337,16.89789664932374,31.528734822622525,39.212656779460445,19.477233030352277,7.400966296305316
18.429754869131457,28.89731824764213,16.913369902374857,31.86012541282103,39.44975036251635,19.57617082269105,7.5059032769541325
18.243348846680913,28.82366091608449,16.940233325248652,32.18520303861538,39.68127675692027,19.676103542418673,7.6224177318820745
18.06699398902813,28.753004725452318,16.978512642215183,32.5035142749489,39.90647947182571,19.776673390868154,7.750077102909337
17.901062905037143,28.684693343892985,17.028189603282247,32.814531694558134,40.12462209088151,19.87750055198769,7.888383250889212
17.74588680825748,28.61810066048855,17.08919012307147,33.11766164977147,40.33498166034879,19.978190433524098,8.036777069500166
17.60174100464712,28.55263265526839,17.161376495598667,33.41225433287823,40.53686297136243,20.078339935365097,8.19464570869061
17.468831632833904,28.487721038307427,17.2445436853483,33.69761656056464,40.72963356408772,20.177542297101308,8.361336477361569
17.34728656768865,28.42281759133362,17.33842260573142,33.97302799065644,40.91275210044339,20.275398029286926,8.536172762386407
17.237151176549972,28.35739662990005,17.4426910090951,34.237755857164615,41.08577111821166,20.371538876640923,8.71846350503615
17.138393200330004,28.290963098102264,17.556984636140264,34.49106801459155,41.24832592631217,20.465654249469672,8.907505665032073
17.050920619471718,28.223057387001674,17.680900039170123,34.73225320461987,41.400128835107125,20.557502359526275,9.102584475312115
16.97460376319882,28.15325317871651,17.81399034317169,34.96064605552548,41.540972381051546,20.64690278902693,9.302973417651103
16.90928549722366,28.081150568958734,17.955762013081756,35.175639510302155,41.67073123450857,20.733720751587377,9.50793360570045
16.854775978820435,28.006368428705315,18.105678386761703,35.3766791660571,41.78935493655062,20.81785550701146,9.71671260299132
16.810841851927183,27.92854088272682,18.263168865216613,35.56325105329146,41.89685754215138,20.899237757069994,9.928543117210037
16.777201301170532,27.847319107490236,18.427635572152937,35.734872393486896,41.99331338893573,20.977830462139103,10.142643559869708
16.753544334004427,27.76237256424853,18.59845287176989,35.891091043682394,42.07885639066954,21.05362847745553,10.358223143996595
16.739603225740318,27.673384738950773,18.77496734643938,36.03149880510992,42.15367268292763,21.126658823443385,10.574490636463949
16.735258380086687,27.580046508760233,18.956506866505936,36.155750778624046,42.21798331857133,21.19698075679518,10.790662179509972
16.74061524280428,27.48205433255343,19.1423957431735,36.26357410446531,42.27202426031492,21.264679957143947,11.005965124862414
16.756012628290883,27.37911715830936,19.331965939386997,36.354764172846444,42.31603330863686,21.329855008933112,11.21963856709531
16.781983574150583,27.270967479327837,19.524558653443446,36.42917806959097,42.35024738784223,21.39260107253432,11.4309326844911
16.819201058241703,27.157368122119824,19.719518711001747,36.48672637722858,42.37490373123481,21.452995754805848,11.63910876556734
16.86842175812312,27.03811554484125,19.9161875439449,36.527359410628144,42.390237592791316,21.511088943481216,11.84344103551718
16.93043640140726,26.913049542511068,20.113898828795254,36.55105062170156,42.39648230866061,21.56689812126142,12.043220074509422
17.006039571414693,26.78207094472655,20.311977494292393,36.55778326280379,42.39388223664377,21.620411657257257,12.237756948623652
17.096021161349785,26.64515462858927,20.509739099610414,36.54754266213114,42.38271473592462,21.67160210216401,12.42638758877921
17.20115963653788,26.502347840065486,20.706486590173327,36.52031282570193,42.36330893336027,21.720446614494318,12.6084766225754
17.32219872474169,26.35375850912792,20.90150786040764,36.47607840785787,42.33605686061984,21.766943495508745,12.783418932503094
17.45981343472443,26.19954623472605,21.094083407007766,36.41483347761854,42.301417947502614,21.811115213097636,12.95063865299382
17.61458154880506,26.039922047059946,21.28350617946508,36.3365906688988,42.25991508074343,21.85299937261728,13.109587854399145
17.78696639289337,25.875148642368792,21.469100217147957,36.24138492310515,42.21212173314185,21.892641638056066,13.259746213375589
17.977305695458604,25.705532272407172,21.65022672426758,36.12927964158401,42.15864466915565,21.930116211968237,13.40062108778186
18.185802209214774,25.531411702097106,21.826284375891337,36.000382657511196,42.100106136875816,21.965578818497075,13.53174967836842
18.41251701580421,25.353151964437934,21.996712884401955,35.854861094199045,42.037126329013255,21.999309558847756,13.652705691441552
18.65736379361767,25.171140206222123,22.16099562661896,35.69294145276478,41.97030690131659,22.031708817651417,13.763107374848294
18.920099934392912,24.985778945682526,22.318656022600916,35.51489798912737,41.9002161914983,22.063261818906483,13.862621497642445
19.200315962228068,24.797478796925482,22.46925278792006,35.32103913737697,41.82737421430399,22.094502079960623,13.950963105383929
19.49742895753179,24.60665533230253,22.61237961658535,35.111698907339694,41.752236426497596,22.125984023802204,14.027894778152666
19.810683905436814,24.413729762319868,22.747665222174138,34.887243293356654,41.675183197654746,22.158262429557208,14.09322844044244
20.139161564172376,24.219127552511004,22.874768241101968,34.648094866679564,41.596526783006645,22.191874020218354,14.146829860052312
20.481786851825124,24.02327116455719,22.993370054401815,34.39475734496181,41.51653657566474,22.227320311399463,14.188621967189183
20.837334196644026,23.82656906757425,23.103171585646503,34.127821326769926,41.43546843400322,22.26505465772633,14.218583040121482
21.20443336750245,23.62940474547542,23.203894618279413,33.847954305694664,41.35358868791125,22.305472991422768,14.236740683855157
21.581582164930865,23.432127671273758,23.295285420298708,33.55588551149152,41.2711937512145,22.34890562111911,14.24316514525439
21.96716739357692,23.235046478944554,23.377120313186346,33.25239090891256,41.18861938624025,22.395613619822054,14.237963655603002
22.35948766486837,23.038424490456865,23.449212575477755,32.93828542187623,41.10623168923635,22.445795176624642,14.221276489805497
22.7567710883493,22.842480126687253,23.511418255461813,32.614425454132984,41.024406791737704,22.49959691007091,14.193276494334624
23.15718835478226,22.64739431375124,23.563639060616033,32.28171089329875,40.943511572891325,22.557118517855034,14.154171961046266
23.5588661603368,22.453321466845836,23.605821823672983,31.941075614074794,40.86388878751967,22.618407213580472,14.10420916236135
23.95990255670017,22.260399156510637,23.637953927266803,31.59347032039027,40.78584499510299,22.683447503270582,14.043672490037036
24.35838195240965,22.068756265872512,23.66005507144565,31.23985103070907,40.709639259585394,22.752151472606258,13.972883943028997
24.752390472267273,21.87851963639774,23.672168478356653,30.881182889473784,40.635470287511204,22.824352320648547,13.892202722500986
25.140034530025456,21.689815701385516,23.67435516068737,30.51845271273785,40.56346380049186,22.89980291848726,13.802023789785439
25.51945945244565,21.5027659635149,23.666693892526364,30.152673211705658,40.493665951228046,22.978177510391028,13.702775690123085
25.888862575364023,21.31747942458718,23.64928852558444,29.784880007042204,40.42604783068197,23.059077266976974,13.59491790317769
26.24650135104554,21.134044838532798,23.622278841565805,29.41614169109105,40.3605290423325,23.142052917977498,13.47893604845003
26.59069942294412,20.95252446652555,23.585847153158834,29.047584060080734,40.29702391062053,23.226648971015052,13.35533470672494
26.91985040189525,20.77295041439292,23.54022032129942,28.68040194271941,40.23548881865433,23.31244270962166,13.224630283951019
27.232418621098304,20.595324798377096,23.485673086018135,28.315842426925062,40.1759395187953,23.399052898336272,13.087346039080535
27.526938768306575,20.419628206371474,23.422533162419672,27.955170484014097,40.11843882203476,23.486127234983737,12.94400961931519
27.802017181211696,20.245838993481986,23.35118423460991,27.59963660657429,40.063084912703694,23.57332836941613,12.79515198637943
28.056335963135503,20.07395389775459,23.272065212567465,27.250463413324873,40.01001942063475,23.660324281710306,12.641305715624881
28.28865863996934,19.904002300046585,23.185665836865837,26.908855658885816,39.95944572739567,23.746779964837938,12.483001304569175
28.497834789208273,19.736073675057813,23.09251890431629,26.57601639903589,39.91163937687682,23.832348175862066,12.320762177533265
28.682803179287887,19.57038000054587,22.993189540314383,26.25314982763648,39.866941202584094,23.916660030644543,12.155100058446385
28.84259631079234,19.407325246665888,22.88826274100526,25.94144784517657,39.825732189837424,23.99932055510106,11.986511262822964
28.976347737842964,19.247528803130525,22.77833279861539,25.64206598324407,39.78840478606585,24.07991883040888,11.815473534308316
29.083298766058014,19.091794788807256,22.66399739991113,25.356094848192356,39.75536454901966,24.158053148687895,11.642443655554581
29.162801478785802,18.941064441730354,22.545852776404235,25.084532769770703,39.72707164064573,24.233352678222143,11.467856822084192
29.21432175294627,18.79638743824904,22.424484501342302,24.82826281779869,39.7040779979096,24.30547990297184,11.292130585158548
29.237451063490877,18.65892443099079,22.300454619637435,24.588036313026933,39.687025119029165,24.374120016893546,11.115677596427167
29.231928394579842,18.52996305770536,22.17429184204236,24.364467991791887,39.67661827924875,24.438971360375078,10.938924479604959
29.197658638411852,18.410914129802357,22.04649525997093,24.158047646367518,39.67359567547042,24.499741348094023,10.762324634143406
29.13471478049186,18.303276214235353,21.917554992900328,23.969162666475214,39.67869310364465,24.556143439257287,10.586357685222778
29.04332813633946,18.20858449976095,21.787974087883946,23.798118865259397,39.692608300599225,24.6078913690961,10.4115211086025
28.923880354593912,18.128360501776665,21.658273549922928,23.645152147653555,39.71596891041371,24.654693296591194,10.238321668791333
28.776902799060565,18.06406789927211,21.528982796449785,23.51042781084035,39.749302813830184,24.696251156072087,10.067268584947444
28.603077193477787,18.017074838734608,21.400627695716338,23.39402914508796,39.79301533455762,24.732265239001705,9.898867797180449
28.403234402071433,17.988622906651717,21.2737200782839,23.29594705637925,39.84738191912403,24.762439191222406,9.733617078266837
28.178353288130083,17.97980298919624,21.14874741451249,23.21607891923423,39.91255464781982,24.786485002506407,9.572001637506828
27.92955432599255,17.991537158318422,21.02616254809996,23.154229798100236,39.988570834055054,24.804130479463097,9.414490059966807
27.65808331071951,18.024565258471437,20.90637313700771,23.110108774374314,40.07535598250649,24.81512454932682,9.26153085802224
27.365290354176455,18.07943491422962,20.789730536142013,23.083324564507937,40.172721804636545,24.819234736279963,9.113549448456428
27.052608775392507,18.156493736558875,20.676519553870698,23.073385220320905,40.28036361255719,24.816240186498042,8.970945399085485
26.721537530581298,18.255884331905676,20.566951602660733,23.07970060965818,40.39786198999519,24.805926468298928,8.834090087272237
26.373636063409506,18.377542976886875,20.461164738270167,23.101590491383558,40.524688197771546,24.78808422431191,8.703327183221015
26.01053196734558,18.52119962957975,20.359232911137735,23.138303758238408,40.660205494718454,24.76251059544615,8.578986266627332
25.633924618170692,18.686377768139863,20.261182632799564,23.189043160645582,40.803663319661325,24.729010859309845,8.461417599877741
25.245571368934723,18.872398927987227,20.167011244512043,23.252985062668685,40.954192539621744,24.687398731742512,8.351031851061876
24.84726166346871,19.078399485595774,20.076698883967147,23.329295246924573,41.11081251145525,24.63749950251889,8.248316653797447
24.440791397935154,19.303358172798568,19.99021077926228,23.41714598367067,41.27245431490834,24.579165443347986,8.153824648523072
24.02794409497176,19.54612041643398,19.9074946008435,23.515728157339197,41.437992572212885,24.512303640737407,8.068149191307295
23.610478189179293,19.80540968263239,19.828477636930256,23.624248589812503,41.60626973326477,24.436898661594263,7.991900238874426
23.190115694998788,20.079831168580498,19.75306362839299,23.741914935414865,41.77610627949265,24.35301630272952,7.925682925563459
22.768529198086593,20.367877484939264,19.68112859879061,23.867922643594618,41.946306636357775,24.26079635141452,7.870078694790128
22.347328103258096,20.667941048742037,19.612516650416957,24.001466352002126,42.11567129165724,24.16044806646763,7.825629119095254
21.928047637362038,20.97833366036479,19.547036796125116,24.14178781870404,42.2830173349518,24.052251940497555,7.792822218372155
21.512146132714292,21.29730836120611,19.484461821700958,24.288235182259836,42.447202689730695,23.936563086278383,7.772080551708988
21.101012519054677,21.623075313919365,19.424529415468943,24.44029510848314,42.607141829787366,23.813807403112495,7.763751558104906
20.69597552643915,21.953809932506143,19.366944093714796,24.597590994998622,42.76180369426839,23.68446628016301,7.768103890314938
20.298304242050172,22.287661423369588,19.311378706419763,24.759860542406738,42.910197945799226,23.549056069827426,7.785331477865575
19.909200523910446,22.622769194284903,19.257476704374152,24.926922322154223,43.051363607713284,23.40810915711539,7.815558609777684
19.529790741840486,22.957284531117367,19.204859093935543,25.09864295137877,43.18436839011919,23.262157449556877,7.858838511021882
19.16112052919224,23.289389888543486,19.15313919170469,25.274913695854295,43.30831839011027,23.11172069407745,7.915146837492683
18.804150497811765,23.61731146580468,19.101939982806734,25.455631103017847,43.42237107826612,22.95730868278781,7.984376497553485
18.459750153133815,23.939324484209365,19.050904227257657,25.64067504383494,43.52574287022842,22.79944056325427,8.066337931897694
18.128691857466848,24.25375419935249,18.999697376498396,25.829890201126464,43.617711984874994,22.638665680765264,8.160764203134237
17.8116527195606,24.558979664218583,18.948011055566408,26.023078597693235,43.697624414141345,22.47556723811831,8.26731621669371
17.509228396027314,24.85344415384956,18.895567740217718,26.21999847953927,43.76490255744984,22.310748423295287,8.385584250805698
17.221948024635292,25.13566800077962,18.84212170120913,26.420366431833173,43.819053659105336,22.14481241947268,8.515086805252908
16.95027685710654,25.404259094421707,18.78745523744242,26.623879743951125,43.8596843655242,21.97834371422571,8.65527062357009
16.694607491713047,25.657921123537086,18.731372871549667,26.83026548027072,43.886521012082525,21.811893509849963,8.805514475063225
16.45524891482804,25.89545857220033,18.673696544150918,27.03931970883999,43.899419761651004,21.645973088230313,8.965135896280701
16.232418891435643,26.115775952255436,18.61426332368002,27.250903272260782,43.89835691821993,21.48105624460452,9.133397609641507
16.026240116943203,26.317872838894953,18.552924254721013,27.46490765398366,43.88341123693889,21.317583955130097,9.309511483948302
15.836739324405253,26.500838501986934,18.489542930730003,27.68122030663955,43.85475683341161,21.15596430298246,9.492641179421458
15.663852836512806,26.663849373398467,18.423997109342693,27.899701138965796,43.81266652623389,20.99656760698986,9.681905921984056
15.507444809192238,26.806173160603112,18.35618845632269,28.120170057986954,43.75750714552215,20.839719372181698,9.876386838339073
15.367333678989388,26.927179339261862,18.28605764243287,28.34240583913185,43.68971716288132,20.685693519389762,10.07513575090737
15.243309578168663,27.026347690741776,18.213594698718747,28.56615431485338,43.60977549017869,20.534708038835443,10.277185891905342
15.135143820465885,27.10326756422676,18.138839171980884,28.791134998506287,43.518174543322765,20.386923292548715,10.481564185478888
15.04263249674976,27.157630986449835,18.061872440289964,29.017037420624924,43.4154091566687,20.242442970087115,10.687302740306762
14.965703349477174,27.189227966257814,17.982805886919635,29.243513379210945,43.301988767104845,20.101318060453778,10.893446412910615
14.904534021919455,27.197946435926873,17.901768714117924,29.47017457976402,43.17846305735211,19.9635515081912,11.099057055248021
14.859601221429674,27.183772102370146,17.818900125628787,29.696593560326054,43.04543951580722,19.829100687925337,11.303217167909656
14.83164991638027,27.146785025368505,17.73434736512091,29.92230125375744,42.903590073896794,19.697878645729077,11.505033832687754
14.821625638354911,27.087156203831825,17.648266659699505,30.146780836002353,42.75366526163408,19.56975842274034,11.70364268037046
14.830600221729883,27.00514914747398,17.56082487711615,30.36946130449429,42.59651832173576,19.44458487079515,11.898212230249857
14.859701040815771,26.901125932965574,17.472202935084304,30.589712394119722,42.43311818964419,19.3221918620491,12.08794886355224
14.910053590498157,26.775551288462378,17.382601908965253,30.8068399617497,42.264541075995886,19.20241494424102,12.272101138027347
14.982745672589205,26.628990276620705,17.292249305145855,31.020081401093034,42.09194728406912,19.08509315158434,12.449961582708234
15.078806858214254,26.46210216497662,17.201403828032856,31.228603039236816,41.91655072248722,18.970063829738503,12.620866526594932
15.199186441626633,26.275634426708635,17.110363927806358,31.431501890047386,41.73959331850556,18.85715659786922,12.784197695522009
15.34472192845806,26.070416164443532,17.01948287428781,31.627812001488067,41.562332604936636,18.74618808370609,12.939389536289235
15.516105310104813,25.847347957508454,16.929181091243954,31.81651415020797,41.38602992317547,18.636956593844033,13.085940512770083
15.713859215407009,25.60738859929168,16.83994754625544,31.99654969245891,41.211925883931386,18.52923726186408,13.22341995272238
15.938326706160678,25.351543774656815,16.75233316761045,32.16684076720712,41.04120922500048,18.422780009684224,13.351465267838956
16.189666058686715,25.080859690068234,16.66694224481603,32.32631309385768,40.87498950961149,18.317312992431617,13.469773211099971
16.467841901863334,24.79641766886115,16.584424821887687,32.47391200129278,40.71427484292527,18.212551844379547,13.578090442073396
16.772614145235266,24.499325902674403,16.505468331563172,32.60860794186617,40.55995740004199,18.108209863056956,13.676205015481292
17.10352890610738,24.1907100462663,16.430783001980096,32.72939890267174,40.41281934445797,18.004002970081473,13.763939290347267
17.45991268859601,23.8717033856032,16.36108157328652,32.835323258734334,40.27355955594188,17.89964951754122,13.841145729077526
17.840873230965244,23.54343529765736,16.297061601887414,32.92548931432034,40.14281539262159,17.794869826429327,13.907706601278619
18.24531429883556,23.207020247294665,16.239393696621633,32.999109645340276,40.02116312412337,17.689387961301122,13.963536589429012
18.67196387797381,22.86355091510349,16.188710337609546,33.055522023073834,39.90911573944302,17.582935576755997,14.008586067880042
19.119400304089666,22.514095208957748,16.14559213407971,33.09419187536332,39.80713831562532,17.47525874226112,14.042842948658546
19.58606345762816,22.159694184132302,16.110556462911553,33.114706841274874,39.71566880059138,17.36612869358432,14.066331938750407
20.070258514147707,21.80135937776198,16.084056281540477,33.11677934958988,39.635119968201586,17.255353681786737,14.079113560185315
20.57017149232769,21.440070653065263,16.06649069283743,33.10026126983982,39.56586272741311,17.14278565199626,14.081288238584458
21.083902061718803,21.076775711565602,16.05821736459817,33.06515502251494,39.508210779830925,17.028318481239634,14.073004954567
21.609494716625946,20.712389753355357,16.0595539449223,33.01160574662228,39.462418063774145,16.911880672918,14.054465560199011
22.144950732649868,20.347792690174813,16.070767112199107,32.93987800109814,39.42868347596916,16.79342809212902,14.025919601192419
22.68822665490395,19.98382536054112,16.092058672532822,32.850330152359525,39.40715133892134,16.67294238735651,13.987655083712639
23.23723237837606,19.62128947141822,16.123556321828858,32.7433953517072,39.397902207612965,16.55043608415488,13.939992818345143
23.789832318410394,19.260951942453055,16.165308585879337,32.61957139427112,39.400936829471725,16.425957313181808,13.883285366460818
24.343851254187335,18.90354897800067,16.217280632866245,32.479415492780035,39.41615881205297,16.299587482371823,13.81791619905051
24.897092545084572,18.54978659479335,16.279354208211558,32.3235371245217,39.44335976612998,16.171433194352375,13.74429615799478
25.447371242356922,18.20033905952849,16.351337791421187,32.15258652163207,39.482207268996916,16.041618184221186,13.662859227141595
25.992548150100095,17.8558475461239,16.43298363895054,31.967242730799164,39.53223779225283,15.910279862586464,13.574061973654544
26.53054852813543,17.5169183244872,16.524004113113282,31.76821096127482,39.59286235788185,15.777570064843204,13.478387308437433
27.05936470165267,17.184118712847535,16.62408461074594,31.55624429236215,39.66338859081304,15.643654866667587,13.37634665038527
27.57705200903814,16.85797196865028,16.732890000845003,31.332187900964243,39.743050747146455,15.508710505924256,13.268475827848956
28.081724960619844,16.538954403906892,16.85006216072232,31.097010554000082,39.83103349980235,15.372918483646128,13.155328604557598
28.57155502062572,16.22749669416482,16.97521195179673,30.85179600510596,39.92647932231457,15.236464536616404,13.03747335159899
29.04476870098886,15.923988611435215,17.10790942015119,30.597708021616086,40.02848040436956,15.09954294057533,12.915491632656856
29.499645569246255,15.628783645178734,17.247674273211363,30.335954423098258,40.13606725047966,14.962362495992819,12.78997482044752
29.934519908883626,15.3421996769229,17.393971021433174,30.067763454284925,40.248206389570576,14.825148068985254,12.661518051183952
30.34779293812664,15.06451549370117,17.546215538048514,29.79437504486438,40.363811493606,14.688136148707528,12.530712223804565
30.7379553317405,14.795966293801444,17.703793057655734,29.51703646227031,40.481769942207016,14.551569909636704,12.398134664779608
31.103606901536796,14.536742948350613,17.866074819131967,29.236989658672893,40.60098361634445,14.415701519147792,12.26434048851968
31.443462465142144,14.287005471450337,18.032422784445355,28.955452699960386,40.720409632765374,14.280803947255281,12.12985671347918
31.756347235543668,14.04692179853175,18.202188772569098,28.673608856415857,40.83909026105521,14.147183783568932,11.995178877799217
32.041190055150174,13.816720939444108,18.374718832909103,28.392609979205666,40.95617612538234,14.01518362936957,11.860768957642597
32.29701887344889,13.596729608428701,18.54936117118234,28.11358387776914,41.070939092316536,13.885173040640652,11.727054268099572
32.52296066542085,13.387376574966131,18.725468599765374,27.83763032321777,41.18276666270979,13.757536063712365,11.594427070046665
32.71824722889893,13.189173701009908,18.902393791280083,27.565806334844538,41.29114546730495,13.632661052847032,11.463243969447177
32.88222832334732,13.00268696856134,19.079484593129745,27.299118684724792,41.39564366264782,13.51093210383645,11.33382504604698
33.014392649567846,12.828505857891532,19.256084788766348,27.038532991365713,41.495890378505294,13.392719781168662,11.20645523853129
33.114388515918726,12.66721633716924,19.431537970349112,26.784983191396922,41.59155078248666,13.278374545159497,11.081390413013517
33.18203034026982,12.519379961557906,19.605190662413957,26.539367061876156,41.682302870337686,13.168234549512169,10.958865403216256
33.21728885975026,12.385518191682587,19.776394534347013,26.302543021193983,41.76782069028086,13.062650431955078,10.839098382348839
33.220276061764615,12.266098558330565,19.94450988428979,26.075342916311463,41.847764092216494,12.96200616559084,10.722290003934017
33.19123582397023,12.161521529105881,20.10891120134285,25.858583262330047,41.92177388751806,12.866717177340107,10.608619922041864
33.13054588204218,12.072112155309688,20.268991495837813,25.653056311770175,41.98946884750545,12.777212328240061,10.49824260252952
33.03872764711278,11.998121782655037,20.424162713755713,25.459511305442156,42.050442680031274,12.693915192405136,10.391283191678653
32.91645086018217,11.939740437262643,20.573853769380314,25.278641048024326,42.10426623783217,12.617233881166614,10.287835019719891
32.764523493888234,11.897112467115896,20.71750762843296,25.111073228901645,42.150499149599895,12.547560453755727,10.187960406953612
32.58386990444224,11.870343219916544,20.854578089416695,24.95736296431565,42.18870842659928,12.48527368969939,10.091694855864134
32.37550573479823,11.859494115927845,20.984527342132882,24.81798665166328,42.21848878802402,12.43074603437955,9.999052196385701
32.140514828703274,11.864580823924408,21.106825578552375,24.69333421901523,42.23947941336723,12.384361115598104,9.910027053070658
31.880030132412383,11.885586218913017,21.220956231213773,24.58369702503336,42.25138083258006,12.346532223721608,9.824594153698197
31.59521973722305,11.922476123162129,21.32642964838753,24.48925684470349,42.2539782058375,12.317704402786804,9.742709153442135
31.287278111813954,11.975199311462644,21.42280259261306,24.410087952049885,42.24715646095407,12.298338195169343,9.664314896391137
30.957424372628722,12.04367157115865,21.50969805298749,24.346177129101527,42.23089230889323,12.28888475414306,9.589352014272043
30.606914656577533,12.127755186975993,21.58681976217048,24.297447469781797,42.205242329140944,12.28976070620256,9.517777069526346
30.237067456854305,12.227242154249177,21.653957594156587,24.263767723903864,42.17035206857305,12.301326659372135,9.449596385731613
29.84928191385816,12.341845550165898,21.710983855359476,24.244946072846663,42.12647458000527,12.323870331806399,9.384907269430876
29.44503297266069,12.471199159892992,21.757843757523418,24.24071800960092,42.073972113780925,12.357595169335555,9.323921670444856
29.025849916116655,12.614859742731406,21.794545846103638,24.25073525720202,42.01330525352996,12.402616972338597,9.266960596407028
28.593291891142552,12.772307716110582,21.821157916065125,24.274558268654975,41.94503407355636,12.458968691674738,9.214429766231694
28.148926882589226,12.942949475169092,21.837807418299462,24.311651218860845,41.86983084879675,12.526606472327433,9.166792458350885
27.69431530094135,13.126124892391404,21.844678827491627,24.361377617469596,41.78848042842736,12.60540991779934,9.124551027882422
27.23099649806379,13.321116159483877,21.84200458977392,24.422998668568795,41.70186632011237,12.695178392543458,9.088238738464646
26.760475985196354,13.527152372844347,21.830054728904962,24.495680399756598,41.610965385021444,12.795628578929122,9.058411839651464
26.284213568840975,13.743409564502532,21.80912901858922,24.578510794250807,41.51685289351114,12.906394145950426,9.035633812032074
25.803615825945435,13.969008727463653,21.779549050989402,24.67051799248978,41.420692781046434,13.027026435946228,9.020455497472577
25.320038618433472,14.203013415790057,21.741647220420234,24.770683590541566,41.32370367474418,13.156995803018143,9.013397357481256
24.83480018987995,14.444427816734851,21.69575418195521,24.877958824318032,41.22711661170293,13.295693836302373,9.014935552931723
24.349194119386766,14.692196565574562,21.642187993870646,24.991292227559875,41.13213817841169,13.442440162432286,9.025492227488169
23.864492421938746,14.945208259479545,21.581246055723902,25.1096621353071,41.03992169159253,13.596498784778499,9.045429431553645
23.38194146687553,15.202304063887684,21.513198949064634,25.23209862023498,40.951544522208046,13.757100373388079,9.075043463818636
22.902756141863904,15.46229014891838,21.43828556087171,25.357690299978884,40.867986411794824,13.923460546737457,9.11455767870963
22.42811266976351,15.723951220872436,21.35671086197692,25.485582301558313,40.79010526478366,14.09479297429864,9.16411572475689
21.95914017334196,15.986063290050073,21.268649175232085,25.614967695727966,40.71861385049743,14.270324544096848,9.223776955855094
21.49691245193454,16.24740415906032,21.174254467895622,25.7450723850995,40.65406415686812,14.449314256627646,9.293513511684479
21.04244035967834,16.50676096652699,21.0736741809404,25.87514046965193,40.59684248225117,14.631069397274588,9.373208633198603
20.596664696858227,16.76293604828812,20.96705879826039,26.004431377053706,40.54717164715113,14.81495050750192,9.462656519186995
20.160453738442737,17.014751899522963,20.854563024999102,26.132230450236506,40.50511643704764,15.000362220392146,9.56156408530268
19.73461477606227,17.261054534597307,20.736342256650612,26.257858418497552,40.47059391730222,15.186737033675922,9.669554482112764
19.31992002204317,17.500715237367565,20.612549462191485,26.380670169504683,40.44338770053277,15.373521591287522,9.786171276005922
18.917128601641654,17.73263167040587,20.483333274419618,26.500056985605504,40.4231591092142,15.5601686518391,9.910882115043943
18.526988415073678,17.955729143560387,20.348835885091408,26.6154654943755,40.409454396240946,15.746132777825308,10.04308214561244
18.15022191436657,18.16896241971599,20.20919109523933,26.72642000055949,40.40171742352657,15.930868755701798,10.182098619183906
17.787508335544,18.371318489262723,20.06452361820283,26.832528434085077,40.399311165427115,16.113834192537873,10.327197299149244
17.439471080551858,18.561821726802695,19.914948885342227,26.9334698766698,40.40153612374249,16.29449509001646,10.477590181629665
17.106679972838077,18.739543075043738,19.76057219252405,27.028973581980882,40.407635024595606,16.47232916183501,10.63244437484239
16.789680652131036,18.90361194224367,19.601489906486172,27.118799244220053,40.41678985051392,16.64682333747043,10.79089198189785
16.489047329993657,19.05322615827532,19.437800865995605,27.202723496133544,40.4281279312036,16.817467259312483,10.952039750777296
16.205431249464684,19.187657295257495,19.26962954597518,27.280532678050957,40.44074664656396,16.98374865850883,11.114976665985001
15.939581082707097,19.30625274843511,19.097145919248973,27.35201815226001,40.453745228042195,17.145156060199024,11.278779105267946
15.692333406266705,19.40843604038954,18.920568675521782,27.41696972846251,40.46624313761441,17.301187446414275,11.44251627105438
15.464582163386632,19.493706977401484,18.74015622946948,27.475167819232535,40.47738095275624,17.45135714374847,11.605259450962087
15.257238719799401,19.561645422571377,18.556194912251406,27.526378652253722,40.48631915587505,17.595196544665505,11.766094409924477
15.071192603551628,19.611920060583547,18.368988014941294,27.570353043458137,40.49225501073294,17.732261565005757,11.924131537670753
14.90727727005576,19.64429748809748,18.178846778571355,27.606825967571552,40.49446268480297,17.86217834633297,12.078510340879003
14.76624370738795,19.65864536614909,17.986085686952375,27.635517094047298,40.492333697627025,17.984730242409746,12.22840060108555
14.648744746213596,19.654928277210047,17.79102702438381,27.65613890417189,40.485390816929616,18.099927629729795,12.373003910106906
14.555326825893664,19.633200319195453,17.594014378301566,27.668422648943583,40.473278966738526,18.20801170904844,12.511556572440004
14.486420895967099,19.593598737472316,17.395423008741716,27.67215812166799,40.45575258196509,18.30941223094736,12.643332758478707
14.442328806717473,19.53633965305063,17.19565700181729,27.667221332832753,40.43266424440921,18.404699290520956,12.767647259305502
14.423208947314906,19.461715360256623,16.995137265389314,27.65357264616294,40.40395162893012,18.49454356350158,12.88385988749657
14.429067482389074,19.370092735093515,16.79428913460521,27.631239285498598,40.36962673751326,18.57968252378929,12.991383291260792
14.459760825698625,19.261911139989106,16.593532566759347,27.600310102133008,40.329774829629756,18.66088880191908,13.08969040893112
14.515008880348226,19.137677974267525,16.393273802059984,27.560954314369887,40.284562690932624,18.738940522723336,13.178316451071648
14.594408984674239,18.997962028442586,16.193900398677094,27.51344570904442,40.23424304478315,18.814596058211738,13.256856340147568
14.697441113621904,18.8433861687258,15.995787504765032,27.45816678473329,40.17914331761379,18.8885759441103,13.32496169743283
14.823465849899817,18.67462142668979,15.799317242159718,27.3955919893209,40.11964120498171,18.961551793755934,13.38233855834495
14.971721506938806,18.492384571670204,15.604896772939084,27.326264369519894,40.05613755429311,19.034137359695283,13.42874460196663
15.141324688633611,18.29743903883662,15.412961382627888,27.250771502845673,39.989036440846746,19.106877488322944,13.463985590477412
15.331280026201656,18.090597420677867,15.223967934833945,27.169722156659574,39.918734568741826,19.18023560900573,13.487912410565414
15.540501439392784,17.872725784725066,15.038391367060115,27.083733255286766,39.845614135718,19.254582490277613,13.500420384607395
15.767833753035031,17.64474877288648,14.856725852357066,26.993435476771108,39.77003676109767,19.330188215686206,13.501451087619857
16.012061468557498,17.407648516773367,14.679482798183061,26.89948619604813,39.69234246055825,19.407218250840263,13.490994918465988
16.271905649031822,17.162454095723742,14.507181247476352,26.802568373732292,39.612852362805505,19.485732894308786,13.46909216541134
16.54601790725381,16.910228249384783,14.34033357136246,26.703372256567135,39.53186537185405,19.56568799045914,13.435831693147188
16.832977136358597,16.65205661323956,14.17943040115866,26.602579045793515,39.44964644413392,19.646935559789327,13.391347934693222
17.13129056586108,16.38903765053271,14.024926834231335,26.500862959066108,39.36641976674965,19.729225691188542,13.335817183797175
17.43940049498119,16.12227192272069,13.877231838188862,26.398903776637876,39.28237989935402,19.812211855532468,13.269453609092539
17.755698512101574,15.852852320110596,13.736702244107686,26.297388326619707,39.19772321682228,19.895459173931496,13.192506018085613
18.07854500968747,15.581856298274463,13.603640359228287,26.196994488576006,39.11269127702709,19.9784530359543,13.105257686808514
18.406286949390832,15.310340945567262,13.478292993928537,26.09836945662909,39.02760737358389,20.06060728368993,13.008029328368517
18.737268954239997,15.039342050758405,13.360850622624048,26.002113054603075,38.94289579693283,20.141274707395358,12.901181408707917
19.069838692650517,14.769874940645181,13.251445770037837,25.908770778602577,38.85908839823072,20.219761230742538,12.785112993441802
19.402351500068306,14.502932122288625,13.150149764455165,25.818840756882274,38.77681660323128,20.295339146001908,12.660257867253435
19.733182749544405,14.239477392885979,13.056968952750083,25.732791156224927,38.696784519384195,20.367254941049115,12.527079394746854
20.060753138456537,13.980442573940898,12.971843994024065,25.65107119094803,38.61973280670375,20.434734531999815,12.386064671579584
20.383557176060574,13.726730090847786,12.89465661972939,25.5741041242174,38.54640573984318,20.49699257075887,12.23771856701798
20.70017913841899,13.479215121401825,12.825244729174292,25.502268956622327,38.4775264378596,20.55325132163905,12.08255896788209
21.00929644470404,13.238741250265205,12.76341946152376,25.43588217613933,38.41378339065719,20.602767982547185,11.921114004688262
21.309684442256916,13.006113195901728,12.70897643055746,25.375185083232118,38.35582685746824,20.64485906324728,11.753921186750055
21.600227213047184,12.782093101047566,12.661699982882327,25.320339076624727,38.304263922040704,20.67891295853275,11.581529434618027
21.8799227478005,12.567402240832797,12.621364002842778,25.27143044010032,38.259643896369994,20.70439559117581,11.404504219241781
22.1478741533256,12.362726179266309,12.587733419320418,25.22848232962539,38.22244129091393,20.720855248639303,11.22343158478152
22.40327266657924,12.168720211214882,12.560569249823391,25.191464769703256,38.19305299833266,20.72792390261307,11.038916676077184
22.645381816929103,11.986013175142906,12.539635772140251,25.160297757685566,38.17181585052531,20.725311910857332,10.851578575385481
22.87352737628339,11.815208235395525,12.524705649385373,25.134858216127473,38.15902767093045,20.71279816000889,10.662045699067873
23.08709259200485,11.656878733310489,12.515559904195573,25.114998398633897,38.15495390442686,20.690219179374658,10.470951833497221
23.285518062803686,11.511564552952386,12.511982602904085,25.100561698973795,38.15982427048942,20.6574593226799,10.278930972326215
23.468312416054623,11.37978710932065,12.51375483929997,25.09138456386474,38.17382920765322,20.61444317724788,10.086611512414358
23.6350746767243,11.262091561365164,12.520655301404618,25.0872985455793,38.1971129920202,20.561133684503204,9.894610687016579
23.785510679159174,11.159090111811135,12.532468237506755,25.088144755044976,38.229759026185285,20.497540200181213,9.703528466449429
23.919428664376948,11.071471460581282,12.54898960053053,25.093789096258703,38.27177298735048,20.4237319040298,9.51394112686734
24.036720857717768,10.999975436617499,12.570024007737908,25.104128092035705,38.323075169012625,20.339844172852768,9.326396423980674
24.137345097713922,10.945357028649182,12.59537520323277,25.11909000538912,38.383506103487406,20.246072799253646,9.141410711294387
24.221315578669763,10.908355749767367,12.624835728168899,25.138632065160085,38.452834211969616,20.142663742587175,8.959466083613902
24.288704937294693,10.88967069048679,12.658180074441846,25.16272992694131,38.53075287444245,20.02991072878675,8.781007336920911
24.33964954890101,10.889938498702776,12.695166245053581,25.19136475464447,38.61687117555944,19.90816532938657,8.606441424133516
24.374347403931235,10.909714578476068,12.735546066603396,25.224523471650905,38.71071316099248,19.777849253827405,8.43614046722858
24.393048010074004,10.949456629227766,12.779075163535056,25.26222124668025,38.81173309374173,19.639455413585047,8.270445605814714
24.3960402459397,11.009508029381452,12.825515036189149,25.30452828085495,38.9193441275583,19.493536326703857,8.109669038344272
24.383640749963437,11.090081219448843,12.874630824731518,25.351573024823185,39.0329597760658,19.340688136601642,7.954094430751181
24.35618373667739,11.191243400720229,12.92619114586392,25.40352102212973,39.15204549768467,19.181539392117333,7.8039773539105175
24.31401917810895,11.31290709671741,12.979972469940341,25.46054853903976,39.27615901989107,19.016748999643553,7.659546699588724
24.257527838101474,11.45482812663036,13.035769558651632,25.522819701515235,39.40495440104516,18.847012856075025,7.521006478131322
24.18714595758023,11.616610510024552,13.093408750866736,25.590464609402478,39.53815348972256,18.673074399402743,7.388537232262884
24.103378622105463,11.79771332058384,13.152753964312353,25.66355989047056,39.675513018455035,18.49572806743668,7.262296989829162
24.00679368477125,11.997455252009779,13.213700787627758,25.74211706309712,39.816805615571184,18.315807885432037,7.142422647964489
23.89800742667299,12.21501713593824,13.276164853522726,25.82607998565827,39.96180749933562,18.134166211959165,7.0290345383276485
23.77767178392565,12.449444678655881,13.340070743125056,25.915331600106732,40.11028075310383,17.951651142878795,6.922244595576646
23.64646329614321,12.699653266032184,13.405342599424198,26.00970996581121,40.26195625990356,17.76908631044709,6.822162174093093
23.505073070399078,12.964436038913622,13.471896714021419,26.10902487027904,40.41653403902693,17.587255429994027,6.728892554553642
23.354200153563912,13.242475481429928,13.539637493794178,26.21306652574228,40.57370188166722,17.406893310886467,6.642530859860535
23.194549939662103,13.532357025397197,13.608458169818231,26.321611737554246,40.73315290742237,17.228681243833467,6.563160862452603
23.026834653945667,13.832582185124142,13.67824429676473,26.43443211416929,40.89458744725957,17.0532422818794,6.4908743177743276
22.851770077395724,14.141581087702734,13.748874065496635,26.55129582191176,41.05770237714821,16.881134796592296,6.425814526121427
22.67006666235813,14.457727402656385,13.820212233344963,26.671958096658287,41.22218002934581,16.71284654830341,6.368216474339164
22.482419054848194,14.779357118318645,13.892101142378362,26.796149812645897,41.38768795108783,16.548791638655064,6.318414242633272
22.289498152885294,15.104788739588747,13.964354022032229,26.9235801371182,41.55388890270192,16.389310608037835,6.276819537984119
22.0919463271758,15.432341393083403,14.036754648507536,27.053970288105972,41.720449440917285,16.23467275538937,6.243891423736429
21.89037382803879,15.760347585293443,14.109065081985145,27.18711300336905,41.887041789117085,16.08508042894404,6.2201093469644535
21.685354208240707,16.087159259577795,14.181036642155897,27.322914350726812,42.053341828062905,15.940675045012775,6.2059530823974836
21.477419586205123,16.411151304785903,14.252417125484852,27.461385736146173,42.219021261286855,15.801544871699345,6.20188838270814
21.26706211584994,16.730729871324353,14.322954299389707,27.602603417166986,42.38373302362699,15.667738629098217,6.208356042709739
21.05475039890941,17.04434734043427,14.39239901372321,27.746666515569093,42.547101763310295,15.539285792262776,6.225762999405475
20.840957800162986,17.35051733011115,14.460507681462579,27.893669690603648,42.70872964797527,15.41621213211463,6.254472964419993
20.626183426668817,17.64782404902902,14.527042852114128,28.04369652350299,42.868209606777725,15.298541208135621,6.2947955140050835
20.41095342809765,17.93492956650724,14.591772764730308,28.19682465001112,43.02513509274942,15.186288427590632,6.3469776739125905
20.195810087130646,18.210584914523295,14.654473329793726,28.35312279352775,43.179107660531116,15.079458217761585,6.411201395652573
19.981298410071165,18.47364232107703,14.71493530808771,28.51263231547417,43.32974520659149,14.978045556271155,6.487583233879761
19.767952110874656,18.723060784848386,14.772972617297667,28.675342447179627,43.47668748950996,14.882036028627953,6.576171011721915
19.55628177823761,18.957903075787094,14.828425302634253,28.841168449903947,43.61959228814892,14.791402253479635,6.676938018143203
19.34677126567577,19.17732965560976,14.881157673460862,29.009935486400224,43.75812290590687,14.70610459241424,6.789778077859876
19.139881946288117,19.380596631545348,14.931056028872895,29.181370529411332,43.89194671623522,14.62610360905349,6.914502453662026
18.93605532593554,19.567059548702584,14.978028778409568,29.355108403258466,44.02075913327495,14.55137660845048,7.050837714507788
18.735707503199894,19.73617666642302,15.022009308607943,29.530713426386193,44.144313670947824,14.481923244554025,7.198424663124546
18.53921884338553,19.887505452316923,15.062958173593492,29.707703203892645,44.26243242176942,14.417756798050386,7.356819739041729
18.346924555753816,20.020693664236056,15.10086087888252,29.88556353102653,44.374998950649115,14.358888906194087,7.525499739443817
18.15910905291575,20.135469896669914,15.13572167866787,30.063769229087296,44.481951930865606,14.305314365536544,7.703868453786928
17.9760066520163,20.23163812903298,15.167556243886295,30.241824772225602,44.583284994963876,14.256998449375844,7.891262404119078
17.797820742438063,20.309080856105503,15.19638569611204,30.419300827913652,44.67903969363682,14.213868025841665,8.086954901720715
17.624791528743547,20.367769774342307,15.222233077588541,30.595836566892157,44.76928627622423,14.175807468822043,8.290160241273869
17.457318906603167,20.40777396653849,15.24512187250791,30.771113939380886,44.85410405405226,14.142660903091546,8.500038973379642
17.296075117306913,20.4292587631773,15.265075417951838,30.944826831773323,44.93356745416232,14.114243008609218,8.715703376767511
17.142034140167457,20.43248057109606,15.282116917851743,31.116655402786684,45.00773386332821,14.090356650403525,8.93622240635755
16.99642410214905,20.41778368513127,15.296271168427126,31.286246766276413,45.076631821267895,14.070811175329503,9.16062702183228
16.860655818725604,20.38559624098949,15.307567648546103,31.453203558380412,45.140251508025635,14.055436858783194,9.387918925150286
16.736261701149115,20.336421382608403,15.31604263380483,31.61708232804881,45.19853813614541,14.044092274336299,9.617084161353905
16.62484942741067,20.270827570017698,15.321739521575259,31.777398964174132,45.251386266799756,14.036662207220349,9.84710711892286
16.528059129286465,20.189446667597156,15.324709171489658,31.933633070063895,45.29863315491191,14.033049620947498,10.076979099981838
16.447516794077735,20.09298090126429,15.32501254471187,32.0852261894512,45.34005163478535,14.033167633959923,10.305701529354572
16.384790223482593,19.982207220717264,15.32272570071567,32.231576066806085,45.37534663697771,14.036932315573202,10.53228814797721
16.341354759449015,19.857971103884065,15.317944173104323,32.372032322452796,45.404159969079274,14.0442538421792,10.755768534783666
16.318564916105576,19.72117811634653,15.310783893481204,32.505898320809344,45.426082251923475,14.055025941870733,10.975191864630762
16.31762490727391,19.572793303459463,15.301378308483486,32.632443966395286,45.440669206927204,14.069116860573843,11.189630272978182
16.339558768612598,19.413843637175262,15.289872554389673,32.75093659923324,45.4474624823004,14.086365419007537,11.398183482266655
16.385186918194755,19.245411301888772,15.276415589223,32.86068681823799,45.44601263061639,14.106582144655892,11.59998506456027
16.455115875984895,19.06861587096334,15.261151197594335,32.9610833149681,45.435899247374294,14.129551449431752,11.794208308007958
16.549743295453226,18.884595100067518,15.244209322446382,33.05159599709207,45.41674571494987,14.155031545139687,11.980071381531332
16.66927573014558,18.694490965254904,15.22569932062063,33.13175745148255,45.38822789942158,14.182752417318113,12.15684331327171
16.813751782493267,18.499438018374487,15.2057064188714,33.20114435027559,45.350075147571566,14.212413375985797,12.323849966367295
16.98305775239712,18.300550288288633,15.184293982997948,33.25937387688667,45.3020633190808,14.243681028439505,12.48047771327994
17.176928376149768,18.098908157415202,15.16151403097967,33.30611922034763,45.2440077725609,14.276191202059152,12.626174592307459
17.394938253849613,17.89554923780099,15.137421452301856,33.341129889086474,45.17576493931961,14.309562901696665,12.760450165117886
17.63649291440911,17.691465927871302,15.112081651440764,33.36423942006236,45.09723705571993,14.343424575826996,12.882874549932353
17.900826845091725,17.48760738984438,15.085567801529706,33.375362856768966,45.00837014631991,14.377436422670911,12.993077302031267
18.187012183170467,17.284879827170993,15.057953718891637,33.37449356074532,44.909147445755636,14.41129618344406,13.090748721345951
18.493971554015225,17.0841414525999,15.029308432971497,33.36169878281315,44.799583516416035,14.444735387550926,13.175644967634234
18.82048546163535,16.886193500199838,14.999693053319007,33.337115985951094,44.67971522431825,14.477517322087746,13.247593160306396
19.165195432799255,16.691771040563943,14.969160386767674,33.30095532172744,44.54958637257129,14.509440750916227,13.306491575701838
19.526613719400817,16.501537224182368,14.937761956076118,33.25349982931647,44.40923136193746,14.54034944543791,13.352305640779202
19.903146628706104,16.316082504558743,14.905562148724876,33.19509286124694,44.258662296359354,14.57014245258929,13.38506443123833
20.293123991173086,16.135926907848173,14.872648437532652,33.12611889460917,44.09785889618932,14.59877660149311,13.404859477713627
20.694819041125275,15.96152168647874,14.839130196921973,33.046987899715255,43.92676350305003,14.62625823868709,13.411842707192548
21.106453071784806,15.793249004123044,14.805130506526746,32.958122856844945,43.745287285637524,14.652628433980379,13.406221351869398
21.52619285341247,15.631421158340185,14.770776826569772,32.8599472011998,43.55332809241635,14.677947823092028,13.388253392544874
21.95214950124077,15.476280717414822,14.736192399955717,32.75288081627845,43.35078979940718,14.702285329307685,13.358249146854458
22.38238166522032,15.328001733443605,14.701489349970018,32.63736174413047,43.13759103103861,14.72571213777974,13.316578998531359
22.814904495223786,15.186694175870745,14.666765053626996,32.513889401480746,42.91366288273688,14.748299383493398,13.263679427746222
23.24770626873759,15.052416657742345,14.632102077937203,32.38305470383999,42.678948129411786,14.77011552576819,13.20005028930471
23.678769870897423,14.925197235853833,14.597568601650302,32.245535290383685,42.43341248611636,14.79122040261607,13.126244914397464
24.106091581114384,14.805052329266264,14.56321653199285,32.102070491528885,42.17706507815227,14.811657503381264,13.042858655254106
24.527693203193508,14.69199483395517,14.529078467277184,31.9534355511806,41.90997627125244,14.831447921976267,12.950518466763652
24.941629419931235,14.586032324528391,14.495165281625882,31.80041861486175,41.63228267662832,14.850586627937597,12.849873467484436
25.34599320350459,14.487160853133949,14.4614641496225,31.643798992811828,41.34417733356436,14.869041673966358,12.741587236407062
25.738921079724864,14.395357981670509,14.427936722216309,31.484327106627507,41.04589129533542,14.886761936252118,12.626333656645418
26.118598627116974,14.310576412914767,14.394518030801162,31.32270576893835,40.737675662489266,14.903694678951707,12.504795693338421
26.483265157338217,14.232738791036358,14.361116308839867,31.159575891864684,40.41979605555329,14.919801077702127,12.377663305061043
26.83121767336017,14.161735205722618,14.327613329076373,30.9955222154857,40.092557347554866,14.935059362715693,12.245628487247846
27.16081581563431,14.097425283826224,14.29386573188663,30.831113847084534,39.75635705605394,14.94945967987258,12.109378983930931
27.4704895729234,14.039643073805507,14.259708932565005,30.666960554238248,39.41172707079967,14.963000529935139,11.969591546198929
27.75875317696269,13.988200091043446,14.22496458243065,30.503741167497438,39.059332324768654,14.975691964623188,11.826924387205073
28.02422635210488,13.942885076188045,14.189449735891582,30.342188437254507,38.699941626427325,14.987562466173001,11.682010330614524
28.265654512349958,13.903462188076137,14.152983468132463,30.18305234155916,38.334399301127256,14.998661378647705,11.535453087635432
28.4819186012005,13.869668120383183,14.115388592610865,30.02706401348622,37.96361264042052,15.009053445196418,11.387827379945705
28.67203635609218,13.841213843244704,14.076490165600463,29.874907715684884,37.58855399499466,15.0188098252511,11.239682477455847
28.83516133662122,13.817810829953432,14.0361142444573,29.727204644898116,37.21026573391699,15.028003429578513,11.091547651292085
28.970581812966703,13.799230328503791,13.99409094322961,29.58450997065516,36.829873149687174,15.036717196258406,10.943936383267356
29.077722576882298,13.785362342404753,13.950264462437534,29.447315223392952,36.44861510985379,15.045065062243633,10.797347449064816
29.156156985457823,13.776234873397579,13.90450686115347,29.31604462907688,36.06786598665565,15.053208529387454,10.65226342443231
29.205627418842454,13.771996980857656,13.856727842518007,29.19104256278789,35.68912089714312,15.061353441052228,10.509147246606597
29.226057598587943,13.772893452032895,13.80687647100912,29.072560818882856,35.31396135371749,15.069731692861552,10.368437657088766
29.217545956367328,13.779244330171874,13.754937723360689,28.960762695513978,34.94402730524469,15.078581362046704,10.230545714608393
29.180347138259815,13.791425154906104,13.700928366908808,28.855754751165115,34.58099232011663,15.088132790397669,10.095854691049635
29.11485266193348,13.809842779466658,13.644893005654598,28.7576343936089,34.22653205604562,15.098600993290425,9.96472274125948
29.021573928171804,13.834908769965292,13.58689949121398,28.666530037688503,33.88229545301636,15.110180533223318,9.837484413985083
28.901125703894788,13.867015614855871,13.527036307110077,28.582619267766102,33.54988971549203,15.123039127457064,9.714448491601399
28.754209492622454,13.906519987047865,13.465416186347667,28.5061209397358,33.23086879941053,15.137309412991675,9.595893426393486
28.581599038788916,13.953733706193296,13.402184583488298,28.437268669847075,32.92671100800584,15.153080878337807,9.482062404979393
28.38412950208604,14.008917659323833,13.337527446468487,28.376284062605503,32.638792714724424,15.170394827655386,9.373159035605724
28.162690008949756,14.072274089252193,13.271675652192947,28.32336360543185,32.36837649358676,15.189243585691507,9.269344194489964
27.91821955690358,14.14393841754749,13.204904278924259,28.278679130370623,32.11661466116998,15.209572419842592,9.170734453025492
27.6517063281053,14.22397360464885,13.137524098897584,28.24238786213213,31.88454941786773,15.231282616122064,9.07740213436941
27.364189717364905,14.312367566057306,13.06986885339406,28.214647672429884,31.673101881942664,15.254234952458868,8.989376740649512
27.056762964441145,14.409033883594494,13.002287125688357,28.195625329014,31.48306708785387,15.278252266118907,8.90664792106033
26.730571674190976,14.513816761580728,12.93514092269833,28.185490057393032,31.31512404466262,15.30312128519246,8.829169819622672
26.38680499025276,14.626497811071092,12.868803229010682,28.184398599843504,31.1698421485494,15.328596582490974,8.756865018780697
26.02668341912888,14.746798727626214,12.80364864718098,28.192476177573617,31.047669831627456,15.35441002555891,8.689626221618305
25.651450697925352,14.87437766575877,12.74004057669203,28.20981504717012,30.94891537854084,15.38028620134746,8.627316904362157
25.262372424314908,15.008823458131802,12.678320938625372,28.23655891942036,30.87373034953106,15.405958532343394,8.569776294110802
24.860738672020908,15.149653007894162,12.618803930515567,28.273091564689622,30.822097068788796,15.431180118317869,8.51683228185997
24.447865677408846,15.296315745059937,12.561772792360982,28.3202061667642,30.793823752389216,15.455729796293095,8.468317615632083
24.025092870402325,15.448206432958429,12.507478837830929,28.379135082932827,30.788549525985143,15.479415388173214,8.424086986026525
23.5937778428267,15.604681121414501,12.456141020575217,28.451465004381966,30.80575287142589,15.502072135303855,8.384045605361017
23.15529614772673,15.765067326846461,12.407944074628926,28.53901798845305,30.844756271682265,15.523555857968537,8.348190109473245
22.711044698757345,15.928665857144109,12.363035146707224,28.6437370235859,30.904728397751533,15.54373489596717,8.316635660275063
22.262439709476457,16.09474949804337,12.321520239288278,28.767588767006607,30.984689990812857,15.56248755402425,8.289609501579017
21.810908374693977,16.262563419280283,12.283462632497065,28.91249694833447,31.08352649974069,15.579712335884775,8.267423072218536
21.357880936436246,16.431327716435025,12.248885698255226,29.080316292322834,31.200004157347173,15.595348005274968,8.250443389589563
20.904782736059076,16.600240087444057,12.217781589014207,29.27283007314034,31.33278319635872,15.60938637408073,8.239071174635919
20.45302201095561,16.76847727789426,12.190124189114316,29.491735172832833,31.480426356017823,15.621866957107713,8.233723053983868
20.003974666506945,16.935196097535798,12.165880456490266,29.738601514895812,31.641407206359663,15.63286458685881,8.234813715743176
19.55896926497549,17.099537106992198,12.145015244440247,30.014821387212088,31.814125366606103,15.64249054804115,8.24273792296779
19.119273401798218,17.260636023581693,12.127490310855045,30.321563861339676,31.996930600532142,15.650910497638845,8.257854901155532
18.686083498820324,17.417643566326436,12.113261717346056,30.65973964747917,32.18814856118467,15.658357960853772,8.280475640327463
18.260525441464903,17.56974440863619,12.102279079769014,31.02997505456009,32.386100471663646,15.66512656399636,8.310852162838064
17.843674090300976,17.71616612970618,12.094486214330166,31.432597229484287,32.58911500335393,15.671547684287635,8.349168908887039
17.436583647186712,17.85617969834024,12.089820751665973,31.86765298038097,32.79553363334588,15.677966697999471,8.395537555903854
17.04030559061215,17.989098982176948,12.088212922785184,32.334984450575135,33.00371172256995,15.684724438714218,8.449996157192464
16.655882962628972,18.11428690197674,12.08958559464228,32.83435056110026,33.212017356174705,15.692146480580154,8.512511082930478
16.284331234809656,18.231169041555432,12.093855604492564,33.365547812309615,33.418829113405636,15.700539950317433,8.582978310700321
15.926618288315856,18.339244260235997,12.100933972476236,33.928470931603236,33.622535366300305,15.710195734666199,8.661222614978062
15.583647415772184,18.438085035813973,12.110723173070955,34.52309952070773,33.82154599877651,15.72139329543147,8.746997709500645
15.256242710774021,18.52733356086001,12.12311274431765,35.14948060155166,34.014333315400826,15.734404140905205,8.839991444349417
14.945136438909111,18.60669912675666,12.13797675008408,35.807760533797136,34.19949833026703,15.74948993811367,8.939835250555307
14.650969543818961,18.675953845112627,12.155174445185702,36.49821142796546,34.37582901541407,15.766894524696873,9.046112758173084
14.374338784446529,18.734924602174043,12.174552344827658,37.221192454256744,34.54232669433956,15.786834343006634,9.158364808553166
14.115905841616696,18.78348407010421,12.195948504346445,37.977090253234074,34.69820929493202,15.809492651137617,9.27609203824205
13.876512265087642,18.821543240005017,12.219200705190964,38.76630500748448,34.842910076382694,15.835017489030585,9.398756715229323
13.657225932666854,18.849045166575188,12.244153490561684,39.589264082255205,34.9760898001596,15.863519663557542,9.525785347948073
13.459313816425096,18.865959519777736,12.27065817808788,40.446401537346404,35.09767633508516,15.895068790156948,9.656574240103977
13.28418309491303,18.87228003968679,12.298567545252244,41.33809237656856,35.20792307078744,15.929688131796814,9.790497812097005
13.133317968257469,18.86802777212662,12.327730057096582,42.26458328378075,35.30746338729093,15.967350493349784,9.92691569550816
13.008220433475955,18.853258263606662,12.357987354112652,43.22595487109253,35.39734382597376,16.00797713702773,10.06517630478304
12.91036405145628,18.828066005228987,12.389177030929421,44.22211873264506,35.47902321268723,16.05144032431707,10.20461845688469
12.841167891819792,18.79258245242398,12.421138610105924,45.25283093655361,35.554337807537614,16.09757099478727,10.344572490512942
12.801981027349392,18.74696974745046,12.453717823795222,46.317708150267244,35.625448606480106,16.146170549129963,10.484362619456027
12.794059399936565,18.691412775632053,12.48676713573007,47.416270396955646,35.69479433360941,16.19701904107232,10.623312723274207
12.818531625031127,18.626111063482355,12.520143861108616,48.54803166355347,35.7650687255285,16.24987545052509,10.760753515595313
12.876363492155285,18.551272437183137,12.55370676703245,49.712584470492416,35.839205596438646,16.30447707152451,10.896026399287457
12.968326622222257,18.4671095755587,12.587311634492776,50.90960331480543,35.9203326314985,16.36054688472523,11.028483484711455
13.094970968912847,18.373838845381893,12.620809311088578,52.13876537140364,36.01168687429501,16.417807067984896,11.157487743842267
13.25660236829569,18.271680067118226,12.654052068907319,53.39965747173774,36.11652078332795,16.47598780966309,11.282417757388805
13.453269852972301,18.160856767706385,12.686907711825464,54.69177475516324,36.2380335186829,16.534825770875816,11.402677625815025
13.68476913446703,18.04159871439217,12.719270536674301,56.014670031142984,36.37934399377324,16.59406062905837,11.51770658550505
13.95066056242535,17.914148013485217,12.751060436630262,57.36817610838185,36.54348733254786,16.65344541872106,11.62698305728851
14.250286646216377,17.77876528347664,12.782213944295737,58.75261265583685,36.73339957374713,16.71277308130835,11.730024197805127
14.582777508824272,17.63573101496429,12.812676829161438,60.168992071229724,36.9518805708013,16.771899755305338,11.826384614522235
14.947048132914746,17.485342003074326,12.842403638692225,61.61917285845517,37.20156548955066,16.830750574516756,11.915655487583734
15.341796259551977,17.32790623471032,12.871362094326882,63.10582436398703,37.48493987777168,16.88931602122108,11.997463616617207
15.765505599541932,17.16373848221538,12.89953594330778,64.632203867681,37.8043955928684,16.947647196474698,12.07147040648425
16.21645617612955,16.99315667298404,12.92692215154864,66.20190717651542,38.16228776193151,17.005848868695306,12.1373716163908
16.692740175447643,16.81647908138347,12.95352446300363,67.81877719616978,38.560941518059074,17.06407239415473,12.194898394930464
17.192277812269506,16.63402331610335,12.979349246340462,69.4870032026784,39.00259222111094,17.122514015122228,12.24381878368978
17.712830479917592,16.446106918018863,13.004406257982374,71.21119953479419,39.489303306297096,17.181416569975966,12.283938198856433
18.25201427705728,16.253048440226703,13.028710286775139,72.99627627672044,40.02291425361663,17.24106401345197,12.315098638377634
18.80731588008424,16.055169973903936,13.052279963960052,74.847200951891,40.605024222472515,17.3017760643057,12.337177919822405
19.376108661115612,15.852801741480638,13.075135089136957,76.76885890334306,41.23698534881307,17.363947251643772,12.350090012749167
19.95566827004644,15.646285161017799,13.09729428084085,78.76603727839945,41.91988920138626,17.428144790985222,12.353785687911122
20.543189883755073,15.435971741553923,13.118773071024883,80.84338034671839,42.65454390701472,17.495193193517856,12.348252840680042
21.135808335153172,15.222220332334768,13.139583617669423,83.0052456593742,43.44144309707306,17.566182581560586,12.333519622166275
21.730619741274257,15.005394816858006,13.159738588767038,85.25557033008799,44.28074283383076,17.642424938713305,12.309662607996705
22.324703862380563,14.785861380595543,13.17925892044165,87.59783686288785,45.17226636458172,17.72539894009136,12.276814278420662
22.915148966166292,14.563986140591588,13.198180255396055,90.03511447317688,46.115526285406524,17.816697301244112,12.235163514656067
23.499079084745325,14.340137565153647,13.216553974950866,92.57013606544832,47.10973376966036,17.91799668788768,12.184951000031294
24.073678898342045,14.1146981543134,13.23444364597869,95.20537669387149,48.15378008229388,18.0310714382504,12.126463597911203
24.63621210071533,13.88808262183877,13.251918857377836,97.94310294317943,49.246206060518595,18.157848136049946,12.060028345028158
25.1840333436816,13.660751661345362,13.269047705292856,100.785415594399,50.385194278044935,18.30046816939252,11.986006187010306
25.714597459960782,13.4332138034523,13.285891017510046,103.73429713678377,51.56859573225467,18.461311473649396,11.90478624614792
26.225472944140087,13.206017986800749,13.302503655973542,106.79157490080867,52.793961912499086,18.64298006624197,11.816780990629221
26.71436272055071,12.979743352736607,13.318943064435256,109.95873399569706,54.0585561868922,18.848291315595148,11.722423270907502
27.179123818917933,12.754990958834393,13.335276259900533,113.2366627297894,55.359350007713765,19.080289983049163,11.62216543806199
27.617776406621175,12.532378238223936,13.351580000633774,116.62544566184286,56.693023604782276,19.34223164358357,11.51647743353741
28.028503899059732,12.312533045466532,13.36793983489561,120.12422673421545,58.05599202218513,19.637513006392286,11.405842008329088
28.40965125731549,12.096084453641643,13.384452164449726,123.73112441313913,59.444457749758286,19.96956767936515,11.290751038298088
28.75972419051605,11.883651035008498,13.401224383403958,127.4432363377728,60.85445687976441,20.34175596934163,11.171706155798915
29.077388075674293,11.67582917622225,13.418369366720121,131.2567583038917,62.281875128795825,20.757279589134466,11.049219884855672
29.361467386010098,11.473183522672539,13.435999090469714,135.16712578792573,63.72245163186122,21.21915504240295,10.923812262783452
29.6109505892144,11.27624001620419,13.454222932750913,139.1690958122095,65.17179495636746,21.730262335968675,10.7960035404779
29.825001475793034,11.085480919848973,13.473148874951177,143.256787007306,66.62541197324965,22.29348727865976,10.666306500725366
30.00296795610618,10.90134265921575,13.492882713439577,147.42367884199723,68.07873496172391,22.912001126425785,10.535219944728793
30.144380771514328,10.724218057872024,13.513524305857702,151.66254343893203,69.52713813655785,23.58963535186678,10.40322324482974
30.248946010955173,10.554461195940382,13.535163226514427,155.96534077705502,70.96594957964166,24.331181605456877,10.270772544105315
30.31653905196712,10.392394748687522,13.557875378423866,160.32314654464264,72.39046678077695,25.142521671166875,10.138299051736396
30.347202056815785,10.238332357226676,13.581721135118539,164.7261642316275,73.79597902199701,26.030634009826798,10.006208141136618
30.341141821359592,10.092625164051,13.606749379511443,169.16382051698096,75.1777988291248,27.003503009002195,9.874877777040492
30.29872345753039,9.955711594891032,13.633012516419159,173.6248811144373,76.53129761246905,28.069904669766014,9.744656572418792
30.220459680500287,9.828139530140723,13.66058704730003,178.0975196425247,77.85193314637802,29.23908803188937,9.61586227194012
30.107002906360385,9.710554833059948,13.689586369915308,182.56933199359793,79.13526867097734,30.520474917855083,9.488780765828569
29.959147750633747,9.603670740809818,13.720158833953215,187.0273410064413,80.37700143246816,31.923571252719494,9.363667335488739
29.777839367043747,9.508234663247034,13.75247537761868,191.45805243346794,81.57300497984933,33.458138484455965,9.240752696438136
29.564173361976273,9.425001100139088,13.786719001750454,195.84759030629755,82.7193598853049,35.13442267321254,9.12025191449881
29.319381744761273,9.354709042060211,13.823091744332265,200.18186689247162,83.81235644661113,36.96325998466169,9.002371045030994
29.04481297025532,9.298059352762259,13.861841054104685,204.44673296834014,84.84848487370333,38.95602860755488,8.887309627353405
28.741913853515847,9.255694034848375,13.903281422148707,208.6281026218547,85.82443057750217,41.124449118570936,8.775261236558705
28.412213595670767,9.228186500465155,13.947789195127951,212.7120408861544,86.73707436370502,43.48030041429715,8.66641554831609
28.05730765491552,9.216047397608401,13.99577821673237,216.6848049672602,87.58349145633463,46.03514489707303,8.560963082628456
27.67884220154527,9.219734668021589,14.047678202009445,220.53289498517123,88.36095049999957,48.80004571863716,8.459098787254494
27.278503146501016,9.2396528265389,14.103928414213854,224.24315678674904,89.0669211876171,51.78526699155651,8.361020397316816
26.858011030384464,9.276141050536495,14.164981878672313,227.80288103992277,89.6990938789658,55.00010355475121,8.266922817525012
26.419117035688963,9.329459029837096,14.23130549260479,231.19984031138617,90.25540328847994,58.45291867292863,8.176991923066844
25.963597049987673,9.399776316225587,14.303369299930148,234.42229923404506,90.73404980429723,62.151196509921,8.091399350061119
