HandOpen,HandClose,Wrist Flexion,Wrist Extension,Supination,Pronation,Rest
41.874178708657254,41.189363705180774,73.39831754398048,56.903022716800976,169.06597544124978,125.43213680720987,12.815493461319582
41.450556647016306,41.62680506536985,72.07976308561089,56.43554581461689,170.28805693104127,125.41074830720122,12.77584125803702
41.05231744761707,42.066229271294795,70.73013487479307,55.96418358580026,171.392616534148,125.38804622915548,12.727699027573909
40.6805342989047,42.50626119671124,69.35193299128993,55.48795433407269,172.37478427453271,125.35761520897789,12.671229779242527
40.33635113266101,42.94557344778561,67.94779245320929,55.00590371999062,173.23009392639855,125.3131925802113,12.60662590116612
40.020944974908836,43.38287308510044,66.52044679691944,54.51710392224476,173.95449923061213,125.24870163663202,12.534106697039126
39.73551625432036,43.81688807910771,65.07269848503604,54.02065303494416,174.5443836952635,125.15826386234487,12.453915378897099
39.48128250508734,44.24635788906885,63.60739456160872,53.51567685112417,174.99658534762528,125.03621264870203,12.366314421533994
39.259443320697265,44.6700319548447,62.12740348585781,53.00133474131719,175.30842202437057,124.87711505269449,12.271580720068576
39.07111985131096,45.08666863207062,60.635590773178556,52.47682796269152,175.47769888618114,124.67579675493718,12.170003765009364
38.917292633914556,45.495029958321936,59.134795209159016,51.94140776801421,175.5027029946849,124.42736292540357,12.061888050912088
38.798755513153836,45.893886432739684,57.62781209982023,51.394386438635436,175.38219223271355,124.12721125476993,11.947557247291027
38.716095986343554,46.282042518895224,56.11740117322662,50.83515805381647,175.1153800030121,123.77103976480198,11.827356859470603
38.66969845341905,46.6583668454862,54.60633710946086,50.26322582627348,174.7019184393768,123.35485214789969,11.701654356300814
38.65974868514769,47.02180456958719,53.097481890407245,49.678220406491214,174.14188198188785,122.87496060794788,11.57083786902171
38.686224366571366,47.37136911339086,51.593824290520196,49.07990089689874,173.435751196368,122.32798797071894,11.43531452378089
38.74888561510467,47.70612761928613,50.09846273411563,48.46814811256408,172.58439727702148,121.71087267205773,11.295507928792787
38.84728806838366,48.02519994156341,48.614556057668466,47.84296261417329,171.58907272006033,121.02087733373806,11.151854442329224
38.980812746383116,48.32777911578039,47.14527041019648,47.20447060725942,170.45141577490133,120.25559708902325,11.0047997011792
39.14868313451483,48.613156093731114,45.69373273498943,46.55293304019636,169.17346391536543,119.41296410277997,10.854796479993105
39.34995953192874,48.88072985385351,44.26299211385842,45.888750364023416,167.7576622361734,118.49124963123951,10.702302296572912
39.58353111657787,49.13000477416936,42.85598816195554,45.21246093076542,166.20686399721845,117.48906758969075,10.547774799873983
39.848122338612995,49.36058096172401,41.47552978074935,44.524739880270175,164.52432888415163,116.40538214417481,10.39166581969878
40.14231164592966,49.57213853007227,40.124292220916786,43.82640030150322,162.71371448435963,115.23951898352267,10.234417126765885
40.46455512757532,49.76442095331301,38.80483104015609,43.11838630243613,160.7790517334916,113.99117610721493,10.076459688005404
40.81320796877549,49.93721954907379,37.519594295414905,42.401751978659185,158.72470656021392,112.6604286813117,9.918215104462009
41.18653726374067,50.09035954231685,36.270915463181645,41.677635860027394,156.5553430840743,111.24772928634634,9.760096766297265
41.58272512756373,50.22370146219867,35.06098940299713,40.947245930430725,154.27590616970036,109.75390971079571,9.60250993489141
41.99987292411408,50.33716610600848,33.89184739566737,40.21185815661398,151.8916222241008,108.18018249721992,9.445851074089303
42.43601934113069,50.43076091161566,32.7653464178663,39.47281416404905,149.40799329721008,106.5281358909836,9.290506301778093
42.889164299709606,50.50458269651263,31.683175176438557,38.73150540747252,146.8307757493926,104.7997328156319,9.136849280486723
43.357280933545,50.5587989452175,30.646862417099534,37.989347980948274,144.16597304871448,102.99734018213258,8.985239631805188
43.83831501644668,50.59362228232315,29.657771989058737,37.24776165977917,141.41985681255557,101.12378476506447,8.836022617065058
44.33018171196386,50.60928833037055,28.71708538161312,36.50816745880247,138.5989784739105,99.18238585678405,8.689530532511174
44.830763562069585,50.60604388397987,27.825782043923017,35.77200420236242,135.710143720747,97.17693255193664,8.546086558339182
45.33790883426115,50.58414573926382,26.984623942197334,35.040741273897574,132.7603799060342,95.11162590660284,8.406011074892312
45.849433296555226,50.543869180086695,26.194145510477018,34.31586896688048,129.75692960765292,92.99101386194722,8.269627292251851
46.36313368348707,50.48554379650723,25.45464796702934,33.59887361581893,126.70725078127718,90.81992780066096,8.137261460197125
46.87681639407678,50.4096223997854,24.766196012268498,32.891211110921645,123.61898778946895,88.6034239378363,8.009237412646723
47.388330471099536,50.316733869059334,24.128620132144672,32.194283866023966,120.49992057107708,86.34673104025734,7.8858696851760826
47.89558566153588,50.20767624612703,23.54154138909398,31.50942276972767,117.35792592641032,84.05520589593661,7.76745775065374
48.396551778905156,50.08337276087772,23.00443245606151,30.837874217594457,114.20095260608741,81.73430625470957,7.654281000387072
48.88925353870685,49.94482800983771,22.51669494966756,30.180790200480764,111.036979410533,79.38958413994088,7.546594159539787
49.371768592942594,49.79308858385355,22.07771705738091,29.539219349718998,107.87394532426546,77.02667730280778,7.444623287027977
49.842229056980564,49.629203356249334,21.68689928883311,28.91409830524338,104.71967186415837,74.65128409898712,7.3485619361333
50.29882819093394,49.454190941803446,21.34365304386009,28.306244115419403,101.58179907107777,72.26914433619847,7.258567132747028
50.739825369932944,49.26902198604399,21.047379839141524,27.71634878269521,98.46774812655137,69.88604169151587,7.174756389261548
51.16354200580682,49.074611190239445,20.797447846287096,27.14497615971852,95.38471073560362,67.50780010351652,7.097208628868887
51.568358839984825,48.87181095998691,20.593176700344873,26.59256051700931,92.3396458400289,65.14024753349561,7.025975355669324
51.95272498158899,48.66141005236512,20.43382491063907,26.059406340228016,89.3392652420721,62.78915781571043,6.961111508946607
52.31516893193157,48.44414313656305,20.318573730695956,25.545689385829892,86.39000699881278,60.460192795667844,6.9027220788815296
52.654303040489886,48.22070519645696,20.246508380278385,25.05145954147259,83.49800403521195,58.15885548721888,6.850997936015401
52.968828868324856,47.99175949282204,20.21659850511743,24.576645906596525,80.66905607799171,55.89045893532698,6.806219904494278
53.257545609256276,47.75793864877862,20.227680537503666,24.12106385027007,77.90860839006689,53.66011355118781,6.768738623595076
53.519355270693715,47.519858926203554,20.278445205877773,23.684424892139123,75.22173288402708,51.47272592943217,6.738948044209186
53.753275493354444,47.27816638422269,20.367432772248716,23.266349768542295,72.61310610246191,49.33299106168735,6.717260634546437
53.95847942106221,47.03359313552474,20.49304014030607,22.866380986508005,70.08699468404902,47.245368735873164,6.704085060090327
54.13434828088024,46.78698212647644,20.653539480744232,22.483991577042442,67.64727446836848,45.21405262365453,6.699806130252476
54.28049584880593,46.53927236120515,20.847096359554104,22.118592298734875,65.29748082080918,43.24294349990271,6.7047676366503
54.39675185446081,46.29146536526201,21.07177607217302,21.769541316983943,63.04084347550663,41.335635626315856,6.7192603207357635
54.48312591083102,46.04458833713926,21.32554027516634,21.436157289877517,60.88027751353815,39.49541777255771,6.743516584117377
54.539770103769,45.79965776082508,21.60624189810304,21.117733298325483,58.818353604280816,37.72528116018693,6.77770921960142
54.56694454304443,45.55764550790339,21.911623268949093,20.81354801167064,56.85727505930169,36.02794225553235,6.821949572322823
54.56498882401589,45.31945232665269,22.239319399278376,20.52287213017615,54.99886528421506,34.40589065394831,6.876284106765276
54.53430511088609,45.08589125948872,22.586866032443048,20.244971021479174,53.24456636514504,32.8614309368087,6.940690880169389
54.47536001356882,44.85767586721192,22.951710147425405,19.97910720815963,51.595458273493726,31.396681674106457,7.015076478775447
54.38870846381653,44.635407793000425,23.331220850185385,19.724545420577584,50.052295897448445,30.013541417243804,7.099274816587449
54.275026483937324,44.41957006206876,23.722700575338923,19.480558453429882,48.615533663731135,28.71364889993147,7.193051616362745
54.13512706284251,44.21054234151533,24.12339963488017,19.246431014440777,47.2853146405813,27.498347771893247,7.296115013531179
53.96995367303146,44.00863894381499,24.530539361445264,19.021461874428443,46.06144071519901,26.36865749312163,7.408125620650314
53.7805733574685,43.81414269461165,24.941343077905245,18.804967576711526,44.94335198699561,25.325251516259996,7.528700210857556
53.56817754522328,43.627313040378986,25.353063536201926,18.59629222628454,43.9301237317286,24.368442366519677,7.657410592729028
53.33407342287248,43.44837421560665,25.762998269076576,18.394822324209013,43.02047459964538,23.498172396010858,7.793782433643735
53.079657842718966,43.27749630813565,26.168497307469,18.199996626362488,42.212776079746895,22.714009544510493,7.93729697074395
52.80638624093236,43.11477552039411,26.566970680526456,18.011304550936398,41.505060763691574,22.015148710629038,8.087396196589737
52.51574848899368,42.96021867007613,26.95589795610927,17.828278208065655,40.89503798173288,21.40042062885993,8.243490172675578
52.20924966798484,42.813734501678724,27.332842021570602,17.650484615074582,40.380118528087664,20.868307911008394,8.404963838302844
51.88838796585026,42.67512784337409,27.695470565146778,17.477519126667065,39.95743603154702,20.416962834916642,8.57118116985458
51.554633288355,42.54409292726844,28.04158141924718,17.308999415837974,39.623858251899186,20.044222154121133,8.74148620302397
51.20942468193446,42.420209798416465,28.369120546397845,17.144560542333682,39.3759984313314,19.747620538220204,8.915202472036913
50.85419883297214,42.30295035239222,28.67618781671373,16.983851802780183,39.21023794370991,19.52440695996728,9.091634871373873
50.49043970227892,42.19169347780662,28.96103711320851,16.82653522316264,39.12275593641723,19.37156532874595,9.270076757839067
50.11972747807708,42.0857401732477,29.222079443748505,16.672284469008872,39.109555266645245,19.28583750312381,9.449820971828155
49.74376534302433,41.98432144646664,29.457890258575425,16.520783438090792,39.166484713120376,19.2637475093037,9.630174022943034
49.36436822626635,41.88660137266381,29.66721522998246,16.37172759685439,39.28926101924314,19.301626783687457,9.810472209334192
48.9834216190474,41.791681399229695,29.848974423812486,16.224830642316583,39.47348864979211,19.39563863195603,9.990092387409383
48.602843748829486,41.69860853957504,30.00227050695124,16.07983104828618,39.71468002697772,19.54180029179138,10.168452479698926
48.2245687853802,41.60638506998455,30.12639684545021,15.936491749272497,40.008283351083556,19.73600334163392,10.345006151887773
47.85053306197028,41.51397517590779,30.220836276540435,15.794595700671698,40.34971579222324,19.97403794928711,10.519236873826161
47.482649704794376,41.42030718306752,30.285252534174568,15.653948696074666,40.73439240382,20.251633744960717,10.690652524080758
47.122782725376005,41.3242737231826,30.3194840630537,15.514399945986211,41.15774550443529,20.564519695870153,10.858781209140728
46.77273058322197,41.22473233280959,30.32354500813768,15.375874161921208,41.61523946259358,20.908480425016617,11.023169368451521
46.43421451158604,41.120510412699076,30.297628620934237,15.238392064742397,42.10238728098294,21.279391923246838,11.18338232298441
46.1088613336449,41.01042118869335,30.24210413658491,15.10206702644429,42.61476481197394,21.673244456409957,11.339005997370021
45.798177651368526,40.89329032881687,30.157503995680937,14.967087871427161,43.14801638946787,22.086158832362067,11.4896474022625
45.503537547479546,40.767980396974785,30.044506214243004,14.833700209590017,43.69785900024575,22.514394391163666,11.634932470368842
45.22621963924895,40.63340215240375,29.903916734124632,14.702189404522882,44.260100167325824,22.9543536110214,11.774502584266084
44.96748606730661,40.48851464216313,29.736652327489335,14.57286471931987,44.83067083030288,23.402587375150226,11.908011862461027
44.72864793420749,40.332321425929656,29.543724256335924,14.446044667952636,45.40565542008322,23.8558020135875,12.035125931623211
44.51109631059813,40.163868318367825,29.326224204068403,14.322043995005966,45.98130637435774,24.310876022108687,12.155522482547468
44.3163214644013,39.98224985930839,29.085312198496975,14.201162613862213,46.55404797028207,24.764887970533405,12.268893278122807
44.14591313706413,39.78663537087785,28.822205188151315,14.083676479415198,47.12048013413734,25.21513832418064,12.374945689728513
44.00152254500562,39.57631319629429,28.53816815478075,13.96983075786208,47.67739024079005,25.65915088900983,12.473402604832064
43.88480111583439,39.35072844798409,28.234509935913284,13.859837180614326,48.22177088714247,26.09465854952572,12.564001549999253
43.79733695129101,39.109492577508455,27.912579763671488,13.753877185905463,48.750831710146315,26.519583898670508,12.646493732964398
43.74060179430355,38.852372193792576,27.573759760302234,13.652108124737314,49.26200142189952,26.932020674350905,12.720643986077004
43.715919070290894,38.579277781245715,27.219456081691487,13.554666999415065,49.75292725605903,27.330217581334615,12.786233343324515
43.72444613025785,38.29025970408499,26.851093237698443,13.461669698116408,50.221475705870624,27.712565891798047,12.843063718576465
43.767154842476735,37.98550399240319,26.4701102242629,13.373210642909697,50.665734169387086,28.077596367980536,12.890961770595071
43.84480496398383,37.66532057107944,26.077954075120015,13.289372135397324,51.08401383845867,28.42398755933032,12.929780668760099
43.95791106011352,37.330124989512264,25.676069737578498,13.2102440232908,51.47485150063547,28.750574612867176,12.959403211041938
44.10671594339233,36.98041884408105,25.265888703224757,13.135938423812735,51.83700348910722,29.05634632578484,12.97975138198664
44.29120346939132,36.61677723128735,24.848818005819282,13.066587255956561,52.16942951380491,29.3404317350745,12.990800012496189
44.51115944575884,36.2398558727232,24.426230230913824,13.002330764534861,52.47127662660627,29.60208440186108,12.992585098196187
44.76623138194672,35.85041770826692,23.999456409681724,12.943315256599472,52.741881844770816,29.840668124329248,12.98520362152522
45.05594169180017,35.449353502242566,23.56978260464277,12.889705279865709,52.9808008911057,30.055647382591914,12.968812198446626
45.37966659657941,35.03767441708973,23.13844834818553,12.841694611005948,53.18783911967567,30.246590003939946,12.943629866859066
45.73661167416291,34.61648641293812,22.706645673042118,12.799501005415092,53.363051345918116,30.413182787646562,12.909940342315677
46.12579465102293,34.18697151607494,22.275519591945226,12.763348967943605,53.50670901331174,30.5552481198846,12.868087630220469
46.546031530484655,33.750384373952905,21.84617002355867,12.733452376133203,53.6192567719949,30.672750551434774,12.818466085132178
46.99592472949808,33.30805390687202,21.419652834321912,12.710001354888124,53.70127292591903,30.765791004214382,12.761510382296024
47.47386525530032,32.86138529689143,20.99697824587899,12.693154630056016,53.75343576909532,30.83459098667381,12.697690142224374
47.97805592192763,32.41186315397959,20.57910712515892,12.683043821686555,53.776496709295,30.879472742726847,12.627508801260124
48.506535072620956,31.96104460596387,20.1669465702314,12.679790804090278,53.771263792992485,30.90084120728388,12.551500634459831
49.05718334929847,31.51053318020254,19.761347317648333,12.683522421296285,53.7385936706487,30.8991695670211,12.470222888147548
49.62773326891478,31.0619510297394,19.363105951174344,12.694370039398631,53.67938308296721,30.874991600872367,12.384246454630125
50.2158016017471,30.616947027289093,18.972970601697003,12.71246267159958,53.59455504181174,30.828908280442036,12.29414765508514
50.818924832537604,30.17724970720969,18.591644264416168,12.737924852983857,53.48504751585345,30.761606750783564,12.200500641589537
51.43457245683385,29.7447146665357,18.219783281777183,12.770875174542619,53.35182395145561,30.67387461526978,12.103870016201782
52.06014320973636,29.32131858191882,17.85799584909674,12.811417662656575,53.195910030703935,30.566597143160863,12.004803478662357
52.69295763706869,28.909111978342867,17.506845050232513,12.85962721130338,53.018424822437474,30.440740596202613,11.90382435700409
53.33025329515137,28.510163912831615,17.166854603936155,12.915534643457626,52.820577561532374,30.297330367537693,11.801424319345864
53.969197822294106,28.12651135948684,16.838514970017794,12.97911530081608,52.60364022722729,30.13743141227784,11.698056922163437
54.606933340341506,27.760114092315924,16.522290049981688,13.050283888891224,52.36891889496583,29.962134749969877,11.59413319981377
55.240633186937764,27.412817292741185,16.218621814083406,13.12889688592655,52.1177361644257,29.77254829005597,11.490019706571886
55.86753543077456,27.08632874716756,15.927928545373469,13.214761551594163,51.85142545249513,29.5697881829414,11.386038358858267
56.48494322178869,26.782214243248696,15.650596415264955,13.30764737348226,51.571326081465976,29.354968950292548,11.282469950584655
57.090210036567505,26.501898903349915,15.386967131075584,13.407293387444808,51.278772420118834,29.1291922198952,11.179564424898746
57.680735943336494,26.246657173445335,15.137325196464037,13.513410008476516,50.97508563427596,28.893534501477063,11.077555142750139
58.25399506087432,26.017592204097056,14.901888780403416,13.625680313150594,50.661572554280234,28.649038586195175,10.97666966593577
58.80758679892301,25.81561884448865,14.680806861391462,13.743761973421394,50.33952248806666,28.396716178386306,10.877132624212535
59.339275243333,25.641458296160472,14.474162279354594,13.867286612983714,50.010198325959415,28.13756004813051,10.779161522085234
59.84699413274833,25.495640103878202,14.281978257734412,13.99585589510113,49.674828136433014,27.87255221271147,10.682959022839912
60.328830085601936,25.378501604115097,14.104225256528105,14.129036143944106,49.33459852305677,27.60266071881068,10.588705887403254
60.78300658845686,25.290182508496365,13.940824636053236,14.266353410452629,48.990650484806245,27.32883121863671,10.496559327066933
61.20787764081093,25.230621897053865,13.791647803548297,14.407291218444275,48.64408091695804,27.051979038826328,10.406659881350896
61.60192677465235,25.19956176676546,13.656513362830287,14.55129263625344,48.29594138306394,26.77298125022133,10.319142702213247
61.96376392971322,25.196553366944944,13.53518639531993,14.697765637355515,47.94722399732232,26.492676196200815,10.23414437805734
62.29212085361537,25.220961303085417,13.427383747133456,14.846088810640138,47.59884194079222,26.211889964311723,10.151801789500984
62.58585466778399,25.271965148157612,13.332784988214213,14.995615146300612,47.25161831554186,25.931489483590205,10.072246369870857
62.84396176075512,25.34856259592157,13.251042161836091,15.145675457356193,46.9062847752185,25.652423686053027,9.995597965866981
63.0655884075379,25.449576749142153,13.181783127623675,15.29558880395016,46.563482813751925,25.37572237968329,9.921960518391053
63.250026652109106,25.573666200789365,13.124610325850135,15.444683764331932,46.22376253429244,25.102467127552853,9.851419858871107
63.39670314645998,25.719335677078035,13.07909775824344,15.592320070897808,45.8875778365603,24.833761220483716,9.784042744301237
63.505181297718465,25.884947167022666,13.044787014868259,15.737897154745033,45.555281425637794,24.570707631908764,9.719876124331401
63.57518225399743,26.06873322273183,13.021183453599377,15.880850077324057,45.227124732668095,24.31439274933635,9.658945951781853
63.606599638554904,26.268814028331782,13.00775370933352,16.020642403613554,44.90326207992423,24.065872372208922,9.601259315794545
63.59948534754068,26.48322297903659,13.003924933046338,16.156761439732684,44.58375454350625,23.82615613975913,9.54682225741921
63.55401698927679,26.709951093034142,13.009085382288276,16.288715620648226,44.26857305676561,23.596189335607303,9.495680206736658
63.47046800460295,26.947008547648085,13.022585760795794,16.41603478388537,43.957603914511616,23.376836016352986,9.44796405201525
63.34918611360788,27.192475583206363,13.043741479541982,16.53827536523156,43.650659751983696,23.168867224250324,9.40391523408517
63.19057712186743,27.444519583002066,13.071836639412455,16.65502720999652,43.3474982633793,22.97295254015641,9.363881899764364
62.99509659077676,27.701388822391596,13.106130219434354,16.765915474501348,43.04784737193203,22.789650935471702,9.328297189559104
62.76325628720965,27.961404056688167,13.145863331605165,16.870596574128125,42.751429837548685,22.619400088878873,9.297652694809361
62.49564130397302,28.22295241229894,13.190265233593692,16.968752038948306,42.45797858433844,22.462505968025887,9.272472963250188
62.19292169634772,28.484478526465224,13.238557585678153,17.06008347145702,42.16723835653927,22.31913483421562,9.25329152737982
61.85585324858214,28.744472659099692,13.289958996796518,17.144310927511917,41.87896024420869,22.18931292080232,9.240628435348848
61.485275346801195,29.00146021996378,13.343693819359038,17.221176147676427,41.59290646073163,22.072942538488963,9.234970213427284
61.08210575077898,29.253996187371097,13.399007795990288,17.29044751599709,41.30887178551704,21.969832913799443,9.23675367442144
60.647326469132786,29.500663924600623,13.455185097008647,17.351921047453995,41.02670221801149,21.87972662347704,9.246354947213124
60.18196795623453,29.74007439411959,13.511558322325262,17.405416207104924,40.74629418446553,21.802309174993834,9.264083145697663
59.687108663144016,29.970863176133353,13.567512961906242,17.45077014763306,40.46758568583027,21.737211630112178,9.290175962931743
59.163894086567105,30.19168809042808,13.622492634805276,17.48783346183008,40.190555600225125,21.684016638302968,9.324796031468145
58.61355571816672,30.401233351291854,13.676003475089543,17.516468600287176,39.91523001124877,21.642263822554167,9.368030345493258
58.03740995388473,30.598222805707938,13.727613364139982,17.536552387303434,39.64168746733547,21.611450944074015,9.419894025057566
57.436839592196954,30.781436171021735,13.77694854666527,17.547982238042863,39.370056984018234,21.591037615968638,9.480335192064254
56.81327081915164,30.9497187678348,13.823692591766058,17.550681076858535,39.10050508910844,21.580455688596842,9.549237487512023
56.168151843209195,31.101982511111288,13.867587237885047,17.544597299744325,38.83321451629503,21.579120201904008,9.626420688941256
55.50293549412473,31.23720298532951,13.908429565328507,17.529701622200506,38.568362531615094,21.58643860867959,9.711641598593308
54.8190704625265,31.354416884457233,13.946062653975929,17.505983456642817,38.30610773977004,21.60182196555297,9.804595887816577
54.118003359814296,31.452721274230285,13.980364164781513,17.47344777072288,38.046592180483394,21.62469280511825,9.90492049334824
53.401185869444625,31.53127569661155,14.01123908725009,17.432113467657288,37.789960474436754,21.6544816374204,10.012196631723157
52.670079100468314,31.589307622063842,14.038617347350316,17.382014653016874,37.53638629723473,21.69061587071223,10.125953474102594
51.92615010334634,31.62611929244891,14.062451342879934,17.3232044935893,37.28608536359833,21.732510755040227,10.245671961312826
51.17086023387254,31.641093509925227,14.082710872868358,17.255758939925336,37.03930587652893,21.779569482916845,10.370788465691039
50.405653929844775,31.633697604602478,14.099379671238161,17.179777812793038,36.79631140180927,21.831194584882674,10.500698061441524
49.631957600320185,31.603484980148558,14.112456548418624,17.09538383046306,36.55737056080287,21.886802944870404,10.634757079490978
48.85118580402649,31.550093650501513,14.121957551839188,17.002722791488676,36.322751099085224,21.94583213544257,10.772285777470193
48.0647437474382,31.47324242422839,14.127915518368257,16.90196724311347,36.09271166386937,22.007734682046117,10.912572747009055
47.27402100397119,31.37272761648664,14.13037816612352,16.793323302703378,35.86749226161357,22.071967593614936,11.054880994275495
46.480381120813995,31.24842574207842,14.129407855143345,16.677038940987998,35.64731220827511,22.13798649243881,11.19845371144355
45.68515574395164,31.10030408869786,14.125084051195593,16.55341000857402,35.43237911163984,22.205246875332286,11.342518392858533
44.8896456274608,30.92843244140844,14.11750617146445,16.422779785214097,35.22289600104255,22.273207269485376,11.486289712770338
44.09512072357403,30.732989346319563,14.10679490691554,16.285532648059704,35.01905503376685,22.341332273112474,11.628972201900165
43.302812596838386,30.514264506978048,14.093092386434249,16.14208597556862,34.82102333842305,22.409098576323107,11.769763300338685
42.51391260835043,30.272660841230756,14.076560282394034,15.992882602811537,34.628929210415485,22.47600033723896,11.907856707433924
41.72961867800235,30.00869447433015,14.057374620104893,15.838385038127981,34.44285036641356,22.54154676548659,12.042445684980324
40.95125609474289,29.722989533982567,14.035720270726316,15.67907334907541,34.262807252730795,22.60525258482727,12.172726572439856
40.18041223345112,29.416269885809363,14.011790006274602,15.5154465852343,34.08876552918549,22.666628288281462,12.297903665392939
39.418991163367146,29.08935259116157,13.98578754953158,15.348024450212606,33.92064537637092,22.725178278233013,12.417196908033166
38.669176413719036,28.743144118619444,13.957929072293577,15.177346667749818,33.75832934980414,22.780409294795678,12.529853388522284
37.93335870174433,28.378636311071453,13.928441483727301,15.003971787420367,33.6016631293736,22.831840342036223,12.635161196331559
37.214064312260334,27.996898042342032,13.897561222419295,14.828477947046052,33.45045374936485,22.879004870851873,12.732461293599036
36.513884485664384,27.599061494049828,13.86553494995364,14.651462330115889,33.30447803192321,22.921446882689786,12.821156038773639
35.83540399659698,27.18630756724335,13.832618784785705,14.473533973008754,33.16350437541972,22.958717298455426,12.90071979613584
35.181136465198655,26.759855765504224,13.799072954401886,14.295300965927899,33.02731328684432,22.99037319754881,12.970713982407931
34.55347710825697,26.320958095163533,13.76515279020234,14.117357074830528,32.89570690060988,23.015979024288825,13.030797947639392
33.954674370419724,25.870892077517674,13.731100820457625,13.940271370887157,32.76851297224667,23.035107905510657,13.080728188504223
33.38680723064875,25.41095024561757,13.697144913629431,13.764585105116485,32.64558480746944,23.047342779177626,13.120350942693825
32.851756796223235,24.942429604037503,13.663501669335798,13.59081861769088,32.52679351915254,23.052279527126693,13.149598227708365
32.351175214685874,24.46662769041903,13.630378213455199,13.419482249047144,32.41201874754206,23.049533455419336,13.168489925220289
31.886459476102527,23.98484593828987,13.597969276311392,13.251080832037996,32.301153579194455,23.038746496104114,13.177135121183765
31.458733528938176,23.49839224865751,13.566455351565635,13.086108244973072,32.194137865063844,23.019591341436847,13.1757262219581
31.06884003023012,23.008576853727735,13.536006243519362,12.925036376697902,32.09100999439703,22.991771769328643,13.164527459369392
30.717344548792127,22.516703401073457,13.506784349314707,12.768304063056705,31.99193992343003,22.95502024670086,13.143864625301156
30.404554979496318,22.024057739523307,13.478941034214229,12.616310680458158,31.89722206129268,22.90909347778883,13.11412106255453
30.130548659547195,21.531894726087945,13.45260892985244,12.46942017418908,31.807244303598722,22.85377000169872,13.075737270739362
29.895189802319248,21.041424718813353,13.42789782578227,12.32797544226296,31.722455224266806,22.788860460916208,13.029206761448783
29.698129318676454,20.553803436546346,13.404895887643729,12.192311033108597,31.643334867235207,22.714235446765528,12.97506614689789
29.53879522919509,20.070128953037656,13.383670752745262,12.062754618301664,31.57036745439243,22.62985589683228,12.913883343706374
29.41638556004065,19.591445391939864,13.364266329124831,11.939622921086634,31.504015714023783,22.535785850567752,12.8462469694445
29.32987204731429,19.118747296319963,13.346697117317134,11.823221713227111,31.444698753962953,22.432186272466524,12.77275862014896
29.27801556972075,18.652979739457248,13.330943892492947,11.713849259770548,31.392779071796017,22.319301009106834,12.694028820434019
29.25938517943701,18.195034695845457,13.31695237151404,11.611795331312003,31.34856027468746,22.19744081645816,12.610674387285941
29.272375102905844,17.745746334547285,13.304634380210071,11.517332683018036,31.312284964399836,22.066968997886047,12.523314799533814
29.31522231829939,17.305886757162448,13.29387013301791,11.430707007441427,31.2841239147204,21.92829612740391,12.432568742183266
29.38602451429044,16.87616220338332,13.284509659311356,11.352134227307591,31.26416097747864,21.781885194853952,12.339051644533132
29.4827532441329,16.457211635622716,13.276372464454223,11.28180790346212,31.252383795757908,21.62825548054762,12.243371346062265
29.603261370927033,16.049613553934417,13.269246880610226,11.219909764456366,31.24869238233928,21.467978611556486,12.14611999609858
29.745288769771363,15.653901601089077,13.262890843830156,11.166613929186784,31.252929118449984,21.301679463781007,12.047864508652939
29.90646955487253,15.270578142107519,13.257035083222076,11.122082110693693,31.264909512741355,21.130050257058684,11.949138586838462
30.08434211595714,14.900117285859304,13.251390157387139,11.086452764770216,31.284431537280327,20.95386166030157,11.850436863505205
30.27636214417236,14.54296194302446,13.245656673381841,11.059828077848215,31.311269365753578,20.773954761899745,11.752210897037582
30.47991751355697,14.199523518217296,13.239533746698235,11.042262297985063,31.34517049716306,20.5912190825907,11.654869217673955
30.692344995032183,13.870185250960548,13.232722910733996,11.033753446923942,31.38586642032685,20.406568302628283,11.558782737812626
30.910953608554525,13.5553026566157,13.224931636683028,11.034239350099643,31.43309253410445,20.220919504886496,11.464290406196138
31.13305798567796,13.255196317812699,13.215879862148112,11.04360084331461,31.48659902091916,20.035177243398433,11.371700783063067
31.356014533423068,12.97013993016725,13.20530574332658,11.061673681047374,31.546140867716453,19.850221270869213,11.281294878591416
31.57724874197238,12.70035013296975,13.192966060531223,11.088262372545406,31.611459443135118,19.666899627858207,11.193335536035773
31.79426912472326,12.445984111865302,13.178632244907057,11.123146444797804,31.68227513331626,19.4860290709501,11.108077119956002
32.00467218364842,12.207147828531383,13.162085470770885,11.16607895452747,31.758292278572352,19.30839593003603,11.025767424563822
32.206146064353895,11.983911052724036,13.143112699066522,11.21678469079746,31.83920082199608,19.134749177023462,10.946644275769744
32.39647808975373,11.776320388614563,13.12150425030475,11.274961442912455,31.92466660969655,18.965787947002553,10.87093327612731
32.57356910719568,11.584403130843858,13.097053083325802,11.340281077201501,32.01431832867368,18.802150057955547,10.79884693000287
32.73545514165518,11.408161274058253,13.069555893743404,11.41238803987184,32.10773808237942,18.6444032135527,10.730581935721293
32.88032915266352,11.247560994341507,13.038816361439201,11.490896774751088,32.204454225796596,18.493040768828926,10.666315172162491
33.00655170831931,11.102524067758772,13.004649825802948,11.575389836331926,32.303937470726034,18.348491908087333,10.606202357732577
33.112648262350135,10.972924448142416,12.96688660335006,11.665416924231746,32.40561091330667,18.21114967108692,10.550380145535556
33.197301671016156,10.85858902730659,12.925372101253362,11.760494333163658,32.508878219330775,18.081398165804938,10.498967206855855
33.25934938680654,10.759299676261747,12.879966066784284,11.860105077268328,32.61315195237023,17.95962047636466,10.452061232700705
33.2977875286311,10.674795800571781,12.830544116018137,11.963701648896295,32.717866904451455,17.84619065249935,10.409733756935363
33.3117779395037,10.604780021967613,12.7770009504752,12.070712285556972,32.82248554838905,17.74146041985009,10.372025483313992
33.300654854346604,10.548927026502792,12.719253526237392,12.180547870293909,32.92650331595669,17.645745749930036,10.338942678608708
33.26392895587031,10.506889185719613,12.65724397379309,12.292606831121072,33.02945348862011,17.559317231278563,10.310454129540462
33.201284875462406,10.478294734590131,12.590942104143728,12.406278628366067,33.130910173727685,17.482396589779775,10.286488654551592
33.11257038912062,10.462742512083649,12.52034804709291,12.520946603652982,33.23048503736393,17.415155484611812,10.266934375677668
32.99778090801649,10.459797820905571,12.445495595789192,12.635991372362666,33.327819925742254,17.357710810016037,10.25164070481135
32.85704419174939,10.468989321443077,12.366454136566372,12.750796522897643,33.42258436905523,17.310116737714367,10.240421878824181
32.690608230083896,10.489806065411978,12.283327996571163,12.864754089164133,33.51447628818227,17.27235822829035,10.23305997951328
32.49883329429023,10.521696919616646,12.196255685678507,12.977265426388474,33.603220278655535,17.244349447526936,10.229306844358678
32.28218619649192,10.564078100314074,12.10541051327235,13.087739149542907,33.68857205353124,17.225937506886293,10.22888562086779
32.04123241112797,10.616350219843255,12.011001189416188,13.195592280651598,33.77033511782297,17.216909336625104,10.23149272030444
31.776625938424633,10.677915243028725,11.91327059701375,13.300256989604694,33.84837395225053,17.216998488343144,10.236801185517585
31.489104573604546,10.748183606265947,11.81249182939226,13.401188945911652,33.9226087578009,17.225890332069056,10.24446708473567
31.179494708317847,10.82657657268924,11.708961889481365,13.49787236855525,33.992997223496126,17.243228481005723,10.25414275686241
30.848716398155887,10.91254388061719,11.602994369340504,13.589820389792026,34.059512900585474,17.268627299647314,10.265506116405748
30.49777854849612,11.005610317693302,11.494912347170612,13.676572258402027,34.122123892827034,17.301687974135728,10.2783079287969
30.127765726515225,11.105431856658651,11.385042108667962,13.757691664124557,34.18077747976182,17.34200802137918,10.292414685607373
29.739822593304602,11.21182433365517,11.273707773633362,13.832773176562958,34.235395979060385,17.38917946835377,10.307821408950574
29.335140904033814,11.324752107590179,11.161226748004427,13.901459101652806,34.28587958925345,17.44278040901866,10.324635616055826
28.91495551453722,11.44429262433386,11.047906467690419,13.963457192887226,34.332105030693356,17.502366617145572,10.343050494470662
28.48055056159966,11.570596711294487,10.934044960499438,14.018547722200617,34.373915134450755,17.567467997589077,10.363319937859544
28.033266424937175,11.703856703130363,10.81993830053237,14.066579644422436,34.41110628999134,17.637592072353605,10.385738583510134
27.57449978150865,11.84428566874567,10.705893134911639,14.107461927124158,34.44342309987319,17.712231697728193,10.410625419875693
27.105697907064833,11.99210278593265,10.592238630928081,14.141153741837186,34.470561251490274,17.790870174502945,10.438309748409912
26.628348815790652,12.147518154979132,10.479334039476237,14.167655073358237,34.49217319042332,17.872979973278916,10.469119021448932
26.143967266263342,12.310715529249396,10.367569381260033,14.186999153942375,34.50787604617277,17.958018876752035,10.503367739447025
25.654079180897988,12.481837327655226,10.257359102552218,14.199249468248706,34.517265238852445,18.045429129468168,10.541348223445201
25.16020768446268,12.6609797985651,10.14913303918827,14.204502676778835,34.51992873362855,18.134639367827845,10.583326341635974
24.66386187391146,12.848200249404604,10.043327610322835,14.202892355537514,34.51545334285105,18.225065168885262,10.629542588334687
24.166527159617306,13.043524957697521,9.940376653672852,14.194587337849132,34.503428646279005,18.316106471766595,10.680213194504958
23.66965499573067,13.24694831900003,9.840703604102545,14.179784828345671,34.48346366950514,18.40714375561869,10.735526250548709
23.17465173050733,13.45842691883627,9.744718554099292,14.158701641543942,34.45521543224368,18.497535622223676,10.79563425481459
22.682869092892695,13.677871637617706,9.652819074003073,14.131567425974271,34.418408769474,18.586618975594824,10.860647563738787
22.195598215582393,13.905136718132395,9.56538920624727,14.09862556650774,34.37283521767161,18.673710966440375,10.930629952732481
21.71406665933949,14.140010405436332,9.482793734229212,14.060142344377274,34.31834005837855,18.7581121251448,11.00559440124883
21.239438629202514,14.382211853171178,9.405370459857094,14.016414787358078,34.254809901747414,18.839113437202307,11.085500136860407
20.772818346498628,14.631390441243612,9.333424796358642,13.967769822456972,34.182163879301825,18.91600912387623,11.170257855580553
20.31525215731146,14.887123237052965,9.267228531772242,13.914558062409213,34.100347239588714,18.988109682582774,11.259745904286511
19.867726199459515,15.14891351847075,9.20702109156009,13.857146671112483,34.00932767828454,19.054748423423163,11.353826355960393
19.43116253300466,15.41619448519832,9.153010131596691,13.79591089888253,33.9090946269337,19.115281641560895,11.452348682153037
19.00641640961406,15.68833872451288,9.105371595215455,13.731224392669423,33.799666907389714,19.16908887933515,11.555142443505805
18.594273735814674,15.964670804248442,9.064251519586405,13.663452595169176,33.68112937749487,19.215583007854583,11.662007673855973
18.19544796080143,16.244476991882145,9.02976885232245,13.592954463728114,33.55370170112599,19.2542325991324,11.77270806112832
17.810578213513708,16.527007787693204,9.00201906082375,13.520091888017435,33.41779214340529,19.284582792053932,11.886967258684406
17.440229889435578,16.811475431642958,8.981080504701714,13.445238841273389,33.27399572513201,19.30626068849759,12.00446719554828
17.084895376432623,17.09705067844242,8.967020927197636,13.368782270664923,33.123054627938,19.318967824921266,12.12484783597616
16.744993980933195,17.38286087582713,8.959898921724095,13.291114982496412,32.96581687643299,19.322469614531286,12.247708457474983
16.420873824546664,17.66798976984133,8.959759919934076,13.212628867908789,32.803206526674074,19.316586921136846,12.372611830166079
16.11281590648228,17.951478813289526,8.966629683484014,13.133714062143117,32.636200549052035,19.301190020026596,12.499091829291235
15.821037608120509,18.232329768712095,8.980508462957662,13.054759697828361,32.46580350887647,19.276194709718393,12.626660379757508
15.54570682384284,18.50951044184603,9.001367453588289,12.976151192655337,32.293017723455904,19.241562375331068,12.754809309331524
15.286999861860895,18.78196687752227,9.029147487913486,12.898267993101566,32.118816183689795,19.197303369321997,12.883008464518653
15.045209271522449,19.048640547884986,9.063760690839551,12.821489028336131,31.944129175202168,19.1434775773745,13.010704107231335
14.820839141240342,19.30848367604574,9.105094958233048,12.746204339448642,31.769845305161187,19.080188567118952,13.137319515874731
14.614626052281892,19.56046941766709,9.15301730139802,12.672821897224502,31.59681466406684,19.00757594434861,13.262257832750267
14.427496107149771,19.803598367692892,9.207372981241804,12.601765187761,31.42585124112281,18.925811489043713,13.384906066819532
14.260499669774958,20.0369017010328,9.267982872309265,12.53347152545059,31.25774267420864,18.835098409802153,13.504639202102133
14.114747572531549,20.259441391461404,9.334642572747589,12.468397177833966,31.093261740467867,18.735669871809154,13.620825714981828
13.991361719544068,20.470310088696603,9.407123122614609,12.407019385594891,30.933166181891767,18.62778638093612,13.73283607427152
13.891444204662234,20.668632358633403,9.485172918936431,12.34982669718128,30.77818710059705,18.511736442196018,13.840051926476644
13.816052576168504,20.85356675658095,9.568522093011664,12.297303018064945,30.62901851585356,18.387844983470828,13.941872715452257
13.76616890857478,21.024307470728935,9.656887898107978,12.249913972541039,30.486317402142635,18.256487778960306,14.037719964578491
13.742666295370592,21.180085322502045,9.74997719267869,12.208098507724996,30.35070822589372,18.118102860906333,14.127040391968468
13.74628080743354,21.320172289893815,9.847485311156957,12.172264391630796,30.2227795704807,17.97319038702079,14.209308018836124
13.777589464890976,21.443898972981636,9.949095278098664,12.142785222864172,30.10306990831887,17.822301109256713,14.284026770113018
13.836992155910874,21.55068539401313,10.054480588983209,12.119997797048986,29.99204804848206,17.66602135813904,14.350736266434035
13.924698479204356,21.640066361376093,10.163308707520216,12.104199020803698,29.890094922104122,17.50496256711749,14.409021455725911
14.040723083108555,21.71169614618793,10.275240230813283,12.095641455519731,29.797493765678304,17.339756670053696,14.458522471318865
14.184893223870562,21.765339067093816,10.389924284100973,12.094528938978613,29.714435408783835,17.171052673039195,14.498939179738091
14.356868517253483,21.800857851662226,10.506995549682516,12.101016178504302,29.641036149000772,16.99951068302387,14.53002910155937
14.556165183613171,21.81820274135752,10.626075690798176,12.11521325805419,29.577354411795977,16.825793524208883,14.55160329966213
14.782172040959507,21.8174013201206,10.746776876932271,12.13719099939009,29.523396833434372,16.65055731951178,14.563524699675787
15.034151502233867,21.79855080449402,10.868704956449747,12.166984386046742,29.479118359314903,16.474442054731767,14.565707975516762
15.311231042043476,21.76181322702619,10.99146244281785,12.204593699900894,29.444424275611095,16.29806242557267,14.558117284752793
15.612394924023027,21.707411379282423,11.114652668553198,12.2499815023178,29.41917396876083,16.121999353565673,14.54076089155062
15.936481348105605,21.6356240320285,11.237884968325773,12.303066181318622,29.403182287162267,15.946794243640275,14.513685471154606
16.28218616278671,21.546780727366382,11.360778182439539,12.363718273561824,29.396219377954132,15.772948986045607,14.476973062809197
16.64807274307184,21.441256259123183,11.482963138732444,12.431762959506093,29.39801271840941,15.600932831992592,14.430740474581574
17.032585291911857,21.319465216602282,11.604089131268767,12.506985167004807,29.408252036434774,15.43119449730879,14.375138498352005
17.43406149785203,21.181859336619585,11.723833944528764,12.58913608282431,29.42659424762823,15.26417560739535,14.310350000046379
17.850742857622517,21.028929718346014,11.84191224172032,12.677944256606509,29.452666602167284,15.100320107155325,14.23658871447726
18.28078375605823,20.861210748018276,11.958080138081613,12.773127576029372,29.48607282303139,14.94007666423204,14.154099412565296
18.722259806472042,20.679281363684137,12.072134378728471,12.874397228891942,29.52640594207879,14.783895012335632,14.063157387890628
19.173174788543978,20.483764739836595,12.18390506384643,12.981452227939828,29.573260302894756,14.632218068015506,13.96406600464426
19.63146742461358,20.27533163014057,12.293245377651555,13.09397068686761,29.626234421768434,14.485473161559385,13.8571533468879
20.09502130751782,20.054707915804848,12.400022018470192,13.211603237715238,29.684925803596016,14.344067434832766,13.74276870101667
20.56167899544508,19.822677786727287,12.504107449881522,13.333968898181334,29.748921195665382,14.208388346651288,13.621278797726085
21.029257631430752,19.58007563241373,12.605377433672363,13.460651843311686,29.81778386254188,14.078804006033163,13.493064302176354
21.49556402449763,19.32777081294223,12.703718199509739,13.591202004867563,29.89104262698005,13.955658757869404,13.358516678967382
21.95840899284403,19.066652916645324,12.799038907886084,13.725145469538077,29.968192756155442,13.839264845224418,13.218034719176854
22.41562080514407,18.797620063592404,12.891278037393176,13.862003135275266,30.048712508717923,13.7298936090807,13.07202137522361
22.86506002445948,18.52157013457673,12.980399257748454,14.001306319339186,30.1320829977044,13.627768798702993,12.920883728565746
23.304640164750207,18.23939789617338,13.066382292741505,14.142601753813164,30.21779931928728,13.533062033530362,12.765037661445716
23.732352080704015,17.95200331881654,13.149214447433494,14.285448779235532,30.305375304797188,13.445889335625822,12.604913957559086
24.14628231286881,17.660307753635095,13.2288843143311,14.429413474770348,30.39434853066815,13.366308920162647,12.440960283446792
24.544620067007767,17.36526331113361,13.305377779444186,14.574061623622471,30.484290718386333,13.294321461782317,12.27363851926633
24.925657612767115,17.0678465696843,13.378675848532149,14.71895182178467,30.574822729637063,13.229873787932686,12.103423858172027
25.287790151884554,16.769042925996654,13.448752924508602,14.863631833347013,30.665622308922856,13.172864546135441,11.930809797557867
25.629516174809257,16.469831660713755,13.515575224979226,15.007643106658646,30.756416515261165,13.123150078256975,11.756313205819005
25.94943939527314,16.171175611314943,13.57910043907398,15.150532437081079,30.846964190009864,13.080554194202875,11.580472274088562
26.246277177579646,15.87401422571777,13.639278822155315,15.291859791720725,30.937038436284467,13.044884101207552,11.403839464648154
26.518875817273056,15.57925799517117,13.696054510212836,15.431195017437895,31.02641672754086,13.015944321912988,11.22697560720532
26.766222944185866,15.287783968418792,13.74936591945405,15.568108795119167,31.114877426149473,12.993541687664514,11.050445952010366
26.98744968168638,15.000434120097228,13.799144727799469,15.702167609014044,31.202193620555995,12.977486071679355,10.874815289613997
27.181828908878916,14.718018376991067,13.845314137461088,15.832940906410405,31.2881224672078,12.967594263343239,10.700641695510116
27.348780826065138,14.44132003280391,13.887788763853647,15.9600201232046,31.372398936779163,12.963697277547924,10.528470736283595
27.487885074192995,14.171097996868511,13.926476952971663,16.083035405083187,31.45473763637672,12.965644366035582,10.358830416176422
27.59888607198456,13.9080827529375,13.961282887547739,16.201658618507086,31.534837571962644,12.973299644615759,10.192226407606428
27.68168418169635,13.652966981484798,13.992107412436175,16.31559698586225,31.612389527231258,12.986535582341707,10.029139223921018
27.736319655282593,13.406394303135311,14.018850653598212,16.424584711228864,31.68708844626575,13.005227287306832,9.870024385532489
27.762959371428583,13.168951719541637,14.04141768599093,16.528374592604354,31.75864535553446,13.029247273061715,9.715313406139733
27.761891648466857,12.94116956872723,14.059724017612547,16.626733017553903,31.826793278146045,13.058463016522667,9.565414081046686
27.733527615611717,12.72352507354212,14.073698654599559,16.719443900039842,31.891288670080524,13.092740498814994,9.420710475914547
27.67840074081402,12.516442021051219,14.0832851287124,16.806319836483663,31.951910652624278,13.131949589749926,9.281561593823547
27.597158229015207,12.320285428266617,14.088440833539453,16.887210676283313,32.00845682410678,13.175967046829765,9.148297506868849
27.490546079355234,12.135355231334987,14.089136471477111,16.96200424858714,32.060734994712945,13.224686032688647,9.021214043144717
27.359392229448368,11.961880966499894,14.085357891962698,17.03062226702478,32.10855607573604,13.278039828174537,8.900568170640259
27.204590501989234,11.800018363239486,14.077108075782315,17.093013968603398,32.15173210842516,13.336024202136906,8.786575954890631
27.027086621849605,11.649852226871143,14.064405397826583,17.14914704835684,32.19007636820837,13.398697905622187,8.679413496487074
26.82786690760375,11.511408120917313,14.047279141029382,17.198996808445425,32.22340841958552,13.466163605264379,8.579218690418578
26.607951174570843,11.384673915538553,14.025765680874834,17.242538510899426,32.25156948493909,13.538544781066562,8.486091219050284
26.36839089758804,11.269646351089525,13.999906498452674,17.279750338957086,32.27443632942513,13.615970001654054,8.40009384302733
26.11026946866823,11.1664104118743,13.969748123808932,17.310627400340195,32.29191984966234,13.69857011961369,8.321267887578768
25.834700573167964,11.075211846652762,13.935343922105837,17.335195135624993,32.30395564273165,13.786483746556218,8.249672227137715
25.54282526270248,10.996474943310243,13.896755720811013,17.353511818597624,32.31050022641962,13.879857050300798,8.185429205658695
25.235809709974955,10.930770206683851,13.85405310379917,17.365661805821883,32.31153503500538,13.978830918344874,8.128747016412186
24.91484254678496,10.87876536047759,13.807310941632416,17.37174539229127,32.30707328158814,14.08352277646488,8.079910581040316
24.581129408545415,10.841178094087535,13.756607145617897,17.371868365097463,32.297166702857375,14.194011970249981,8.039257474916122
24.235884560262964,10.818736131043334,13.702022265755506,17.36613284767871,32.28191339804616,14.310329571141635,8.00715350832247
23.880321863460487,10.81214759223804,13.643641409418334,17.35463288646723,32.26146433672299,14.432449860181324,7.983971390871588
23.515650602748416,10.822079190577792,13.581556254073202,17.3374619817876,32.23601939815081,14.560282718542217,7.970072401507624
23.1430842449045,10.84913607103994,13.515863979452433,17.31473307197431,32.205811768127354,14.6936685915119,7.965791643811118
22.763859675719512,10.893840950266942,13.446663292102393,17.28659543843173,32.17109295396197,14.83237910746429,7.971427312194789
22.37925102944546,10.956614470230893,13.374051394370552,17.253234539305907,32.13212653205701,14.97612360106982,7.987234121748373
21.99057240104641,11.037759009181755,13.298124756652696,17.214859901826667,32.08918424092759,15.124555678224505,8.013420012738232
21.599178240070604,11.137448146892996,13.218981895861933,17.171694013984265,32.04253822187558,15.277274492297964,8.050142914678561
21.206461336480036,11.255723491910668,13.136724759474781,17.123968573230318,31.99245647283782,15.433822704599883,8.097504815861406
20.81384065438691,11.39249865160467,13.051458535057243,17.07192800766659,31.939207498227947,15.593686864127607,8.155544061578171
20.422742227854005,11.547567331371498,12.963293150099052,17.015835868944702,31.883063978061063,15.75630511560742,8.224228978576942
20.034582924367545,11.720609777499432,12.872349364211125,16.955976656340226,31.824293917658668,15.921082448677135,8.303454798255386
19.65075922342887,11.911193682901317,12.778766859097457,16.892649380870868,31.763146745152202,16.087405254822137,8.393043134508773
19.27263659410444,12.118772718979908,12.68270756162395,16.82615786281338,31.699855444120413,16.25464711796955,8.492741878157814
18.901538034655765,12.342691820869979,12.584351332948184,16.756803936714253,31.634659997224237,16.42216806507759,8.602224706712637
18.538734690557163,12.58220600940471,12.483888051744684,16.684882872723666,31.5678270718292,16.58931476244896,8.72109159674128
18.18543873935295,12.83650611382669,12.38151269992212,16.610678250019305,31.499645806989825,16.7554292384013,8.848871861686572
17.84279460469713,13.104735950737792,12.277426087257497,16.53445715536834,31.430413747545053,16.919871071701678,8.985029288118323
17.511867629353272,13.385995261728938,12.17183703755134,16.45646750188836,31.36043053468097,17.08204530379654,9.12896816955325
17.19363375373154,13.679335115240551,12.06496219216062,16.37693781532725,31.289992747037427,17.241419741677007,9.28003964403806
16.888972278435322,13.983752471615283,11.957026020935901,16.296078509474047,31.21938096832664,17.39752661414892,9.437547299906829
16.59866119730113,14.298185883522494,11.848263284978644,16.21408247124085,31.14884819530338,17.549955576932064,9.600750943685629
16.323374103082173,14.62151244017764,11.738920456828916,16.131125625438038,31.07862093717029,17.69834312518921,9.768869147933614
16.063677830579596,14.952546028458574,11.629252721969308,16.04737262754314,31.008908099307625,17.842360180534055,9.94108327016571
15.82003109656333,15.29003749384421,11.519518220248225,15.962988403084356,30.939905918210986,17.98170042290456,10.116546733917351
15.592785147941921,15.63267728145183,11.409975538015589,15.878147204368615,30.871798236565443,18.116071869617443,10.294400125562548
15.38218666951108,15.979102069224766,11.300890787958899,15.793032151589916,30.804756765327838,18.24519234042214,10.473785806295016
15.188381357241365,16.32791115207917,11.192551686641961,15.707827270505607,30.738938764325784,18.368786422388656,10.653855267126385
15.011426588482289,16.677695189128727,11.085276357962892,15.622709091241733,30.674481854744485,18.486581693107354,10.833769779087557
14.851347365784115,17.02706552212311,10.979410316310547,15.537845620327465,30.611504178717404,18.598307127569665,11.012699105531906
14.708249854704233,17.37466979880559,10.87531746573889,15.453406627608931,30.550112588534425,18.7036972561503,11.18982152649312
14.582432111696473,17.719194399449744,10.773372160217447,15.369578232968621,30.49041237414148,18.802498515148514,11.364326585553293
14.474426255931046,18.059364052809837,10.673952649270396,15.286569206885206,30.432511704633406,18.89447199704452,11.535420575256188
14.38498079108644,18.393947437865826,10.577432907485646,15.204606706016927,30.376518283095876,18.97939334857746,11.702332958988949
14.315018070790376,18.721770014125706,10.484172602392578,15.123929794079764,30.32253673961305,19.05705480902454,11.864321557657908
14.265578493976317,19.04172655708009,10.39450788771624,15.0447857137246,30.270679527336377,19.127271526078918,12.02067677501184
14.237757663021037,19.352785219012617,10.308744804738856,14.967426554538507,30.221084157675172,19.189889071312653,12.170728074184218
14.232646251548056,19.65398389515462,10.227155895706893,14.892103850471539,30.173916854344707,19.244787040911714,12.31385378895257
14.251279741222726,19.94442522150325,10.149979792293232,14.819063738597109,30.12936258140076,19.29187720527917,12.449489126139058
14.29460496683909,20.223272417524026,10.077421503617982,14.748546581402463,30.087615198920428,19.3310999252706,12.57712723651612
14.363464131731508,20.489744925169358,10.009651129389047,14.680788066406675,30.04886828609117,19.362422308907494,12.696315251101058
14.458582870666092,20.74311502538871,9.94680133895495,14.616014987830262,30.01330179234788,19.38583671727485,12.806650036981178
14.58054986350642,20.982706245025597,9.88896540973931,14.554435409426985,29.981069726047842,19.401357260609974,12.90777498868086
14.729793547369162,21.207890937148996,9.836196605573114,14.496228895762838,29.952294074942127,19.409015782373817,12.999376611394657
14.906571095492003,21.41808694551606,9.788508156646195,14.441541328201364,29.92706137822885,19.408860055109052,13.081180563930138
15.11097317607984,21.612760471702384,9.745873094211376,14.39048520828097,29.90541709150164,19.40095352990761,13.15294839173857
15.342930022152876,21.791439212186436,9.708224282555282,14.343143109376786,29.887359241395078,19.385374043846625,13.214475943801151
15.602206035287557,21.953726295180275,9.67545546727091,14.299570278330929,29.872835455373693,19.36221155234134,13.265592900890487
15.88838706392698,22.0993034672464,9.647423584379517,14.259794762115195,29.861742584840595,19.33156658462905,13.3061626564619
16.20087268685355,22.227924713682985,9.623951694162855,14.22381716277403,29.853927021411266,19.293548766206808,13.336083141407268
16.538885520068508,22.33940889954996,9.604831330999358,14.191611609745491,29.84919050587934,19.248274466760513,13.35528824364387
16.901499735358595,22.43363683739842,9.589823833760537,14.163126111652696,29.847306730879026,19.19586607141871,13.3637474938593
17.28767058020463,22.510551970809267,9.578662891262303,14.138279987939981,29.848043376676184,19.136456779171436,13.361463906788327
17.696245122601475,22.57015920647157,9.571060508627673,14.116958997027517,29.85117736925466,19.070200218459,13.348472899411147
18.125957363901517,22.612518548425545,9.566714337709277,14.099010336978054,29.85649580293428,18.997277299520583,13.324843567452623
18.575423435734468,22.637736722021096,9.565315202458228,14.084239304036801,29.86378473887737,18.91789442968805,13.290680613411267
19.043145790687305,22.6459611915867,9.566558590396395,14.072409988936036,29.872814141704755,18.83227644046521,13.246124705793035
19.527526864280095,22.637376337547124,9.570159448647445,14.063250933665964,29.88332497192644,18.740661933681075,13.191350566767786
20.026886462123336,22.612198993940314,9.575862224315767,14.056461670571089,29.895022374209077,18.64330675496284,13.126564421748693
20.539472958990658,22.57067297200894,9.583442081977719,14.051715576301868,29.907579428840044,18.54049441624028,13.052002968643682
21.063463978943016,22.513064452869934,9.592700632738111,14.048659709262767,29.920647745173138,18.43254370547598,12.96793384021761
21.596962284380584,22.439658826662505,9.603460352278264,14.046914668431262,29.933862794102218,18.31980610006641,12.874655749404209
22.13799394491797,22.350758072266643,9.615559907894218,14.046076277008108,29.946840013410036,18.20265634753308,12.772497115120244
22.684510597074333,22.246678336547827,9.62885043492319,14.045721205622298,29.959169043013326,18.08148274516283,12.661813568201651
23.234395306304172,22.12774824504104,9.643191158133625,14.045417642817279,29.970411864504996,17.956680839798796,12.542985091124576
23.78547346043384,21.99430890723708,9.6584437421427,14.044737483353055,29.98010773043534,17.828654069991174,12.416412873610593
24.33552949093093,21.846715964829325,9.674466657001163,14.043266571982294,29.98778873457182,17.697821120037535,12.282515687850939
24.882325620567798,21.685342032247956,9.691111291417489,14.0406133135347,29.993000836127017,17.564621005698044,12.141725499520595
25.42361785669142,21.510577359638162,9.7082214711083,14.036414027533976,29.99531515620937,17.429509274662813,11.9944826421467
25.9571680698145,21.322829008038905,9.725637809392552,14.030332287402532,29.994323952537563,17.292951725138256,11.841231782035653
26.480753705733058,21.12252191259476,9.743205932366925,14.022055514280007,29.989629845925485,17.15542430202595,11.682419258783433
26.992177374975757,20.91010631112304,9.760784063711137,14.011296553781552,29.980835834655313,17.01741868072634,11.518491985682394
27.48927787203827,20.68607208889254,9.778246016969288,13.997803471603751,29.967538318775915,16.879447479694583,11.349898709629686
27.96994236448407,20.45096249618597,9.79548118628418,13.981370979899364,29.94932706674166,16.742043345320763,11.177093967677775
28.4321185572693,20.20537755780419,9.812396812189693,13.961844555755372,29.925798320660785,16.60575030001462,11.000544284678401
28.87382665532174,19.94996649226772,9.828923941605277,13.939116579574707,29.896580700779733,16.471110655392586,10.820734432445803
29.293171239317726,19.685417179495843,9.845021804800187,13.91311909908952,29.861362272850393,16.338650820902906,10.63816939124616
29.688351375245624,19.41244875815541,9.860675784433278,13.883815962146747,29.81990516945377,16.20886727300873,10.453370696225303
30.057668146714153,19.131806174527295,9.875890299505846,13.851196710884693,29.77204363319997,16.082213866395175,10.266871205740637
30.39953344931446,18.844253119250826,9.890680354254899,13.815276599430884,29.717671206199125,15.959091713412489,10.079211348537253
30.71248314351837,18.550563186402552,9.905064168523358,13.776103611097504,29.656727493956716,15.839842599192322,9.890935666852288
30.995190363524237,18.25151159686184,9.919058173359725,13.733765069072362,29.58919587545073,15.724747344193926,9.702588146770077
31.24647458275487,17.94786885398385,9.932675111556902,13.688386577580232,29.515116233549257,15.614030857448224,9.514706755546996
31.465308185406563,17.640396066222497,9.945927010730092,13.640124813290251,29.43460071935937,15.507872336347091,9.327818090041436
31.650821056106842,17.32984101834316,9.958832755653503,13.589158231753393,29.347836062576043,15.406413430840974,9.142433013402519
31.802300923411646,17.01693490932041,9.971423584096183,13.535676481506737,29.255072880201723,15.30975894678163,8.959043712358259
31.919191333680498,16.70239089975846,9.983742307714857,13.479869883984486,29.156614371172477,15.217973375992377,8.778120881885354
32.00109044933167,16.38690469372728,9.995841878049333,13.421922669227675,29.05280884223215,15.13107940019934,8.600109577439113
32.047749874362296,16.071155271192808,10.007787761106375,13.36201129406033,28.944042727184094,15.049060104553075,8.425425279753364
32.05907203897705,15.755803824476788,10.019660517784432,13.300304504663671,28.8307313728108,14.971864625133342,8.254454411718758
32.03510713310972,15.441491915630117,10.031558078953571,13.23696455357001,28.713305145096623,14.899416803161275,8.08756119772686
31.976050807520682,15.128843084246894,10.043604608053567,13.172155563404552,28.592190582994526,14.83162278026523,7.925096466745572
31.882241318333687,14.818470751497557,10.055964678426694,13.10605891588339,28.467790683252492,14.76837463478999,7.767401923028046
31.754154499918176,14.51098974744215,10.068849026788996,13.03888337686918,28.340468634372357,14.709555745683026,7.6148081961198075
31.592399888006057,14.207025412017138,10.082505688292128,12.970861906966789,28.210537668479123,14.655052487161907,7.46762987356445
31.39772230467344,13.907215772015974,10.097205129365834,12.902240606003883,28.07825802865476,14.604766273813672,7.326161002911068
31.171004060776195,13.612206493882647,10.113227345260322,12.833268315941488,27.943838765044294,14.558619837786576,7.19067173994143
30.913258253796023,13.322642021678044,10.130852529498782,12.764194243509777,27.807443759710964,14.51655893209403,7.061405461322947
30.62561326743065,13.039157114106466,10.15035846687889,12.695280684322126,27.669207228289906,14.47855213827886,6.938577675809521
30.309297527037046,12.762373303879622,10.172026155343607,12.626825647038563,27.529256838125786,14.444589373437895,6.822378198278813
29.965630146632652,12.492910110371751,10.196145120678262,12.559176040133856,27.387729498535766,14.414677441136138,6.712973660892966
29.596014927472492,12.231419423590152,10.223009833778452,12.4927209385809,27.244773291933818,14.388831197891468,6.610506206700357
29.201932599408316,11.97862795002683,10.252910400322452,12.42787338887821,27.100544809862186,14.36706223609188,6.5150931670215435
28.784932450167258,11.735356382451926,10.286124418857463,12.365052617700089,26.955207102976118,14.34936831629746,6.426844480377451
28.34663092431035,11.502505951566208,10.322911156694492,12.304672007508726,26.808925854985354,14.335728080547517,6.345905231408925
27.88871702407023,11.28103010403159,10.36350610470316,12.247134011853074,26.661863896576314,14.326107768126189,6.272499458692012
27.4129517906354,11.071908114308131,10.408115276348816,12.192829193457387,26.514176084880784,14.32047883328594,6.2069452728514305
26.921154971861593,10.876124187702214,10.456909692620304,12.14213484784298,26.366007689322597,14.318831951527308,6.14964156203472
26.415185538539703,10.694647843189196,10.510019740828469,12.09541520340639,26.217498649939532,14.321176838591212,6.101044900441365
25.896922427439897,10.528411461683891,10.567529027685662,12.053027635915175,26.06879011451326,14.327533989364246,6.061647449275738
25.368247076769705,10.378286050699204,10.629469870992702,12.015328929511043,25.920028108007443,14.337927535208678,6.031957486425628
24.8310292877042,10.245059257191405,10.695825269909477,11.982671834424671,25.771364106960622,14.352379134574715,6.01248143729061
24.28711653533081,10.12941809355422,10.766540373711344,11.955392671227477,25.622956989629856,14.370900244401101,6.00370607342303
23.738324477949874,10.031936837431521,10.84153869264544,11.933797536679723,25.474979305695115,14.39348538302724,6.0060811618268914
23.186426681395428,9.953069187668262,10.920732570686456,11.918151964607205,25.327622873620342,14.42011175324837,6.020004432356057
22.633143454786197,9.893142104968579,11.004023115245879,11.908675381440705,25.18109720127328,14.450747597524023,6.045809957936995
22.08013177269143,9.852349491449473,11.09129505732341,11.905540829435287,25.035620831133684,14.485363881061708,6.083758764730499
21.528979918252773,9.830747737336308,11.18241313679937,11.908880114971323,24.891409619430917,14.523938864854136,6.134030409567616
20.981209735104578,9.828257473658995,11.277220093533845,11.91879156601341,24.748665966120527,14.566452858835477,6.19671679041765
20.43828451042207,9.844672797710146,11.37553346242936,11.935343580431045,24.607571727434276,14.61288019496166,6.271820817018589
19.901615623142177,9.879673451631213,11.477142160732244,11.958570234440218,24.468289553349493,14.66318246495976,6.359260243417731
19.372562100149473,9.932834444987769,11.581807201661539,11.988463500494483,24.330979884760183,14.717301301239898,6.458873025354667
18.852423709115108,10.003633132387248,11.689267831456869,12.02496802416754,24.195829602262847,14.7751506669388,6.570420122071765
18.34243431726976,10.09145799332632,11.799248360330097,12.067978810469148,24.06307270683718,14.836610270204124,6.693585572405327
17.843761146886745,10.19562037829335,11.911460049459567,12.11733935111318,23.932988765886993,14.901519785331246,6.82797700725612
17.35750724542544,10.315365182303609,12.025598413866122,12.172841017010512,23.805883990252635,14.969673344932048,6.9731286325597575
16.884709780092464,10.449877973258344,12.141340652461253,12.234228428756097,23.68206912623636,15.040815358069496,7.128505456130639
16.426333484050396,10.598290677001257,12.258344885971145,12.301211831908317,23.561845277374946,15.114639310271146,7.293507463043682
15.983268276086644,10.75968633904946,12.376249430789269,12.373479055917198,23.445499695932376,15.190792335098738,7.467474441519801
15.556336856280417,10.933101642314671,12.494672017566263,12.450700725863873,23.333305183946738,15.268890162161977,7.64969161212234
15.146303562869614,11.117528715180164,12.61321199587373,12.532532610465857,23.22551676710537,15.34854125929571,7.839394949107779
14.75387315303505,11.31191898426321,12.731459169150583,12.618620761315764,23.122364043168492,15.429366695865365,8.035776236994563
14.379682081079027,11.515189521358714,12.849008044255791,12.70860669416407,23.024041777993702,15.511003976405554,8.237988846564825
14.024291153375364,11.726229765500753,12.965469081732335,12.802127656255864,22.930708200331186,15.593098939706007,8.445153662976022
13.688192069566515,11.94390674352191,13.080470393179377,12.898813302907078,22.84250208982953,15.675295921432504,8.656363748508172
13.371859995338873,12.167071611729448,13.193653640719836,12.998283586428727,22.759571924224208,15.757230484715475,8.870688362320442
13.07586627096574,12.394574528865194,13.304672860523615,13.1001529757856,22.6820921219002,15.838524404147275,9.087178748682076
12.800990358460695,12.625287865209293,13.413199756800626,13.204044523252739,22.61025420865262,15.918781935640439,9.304876812445766
12.548255365894367,12.858124988758426,13.518930522471662,13.309607927041517,22.544245499626616,15.99758737667647,9.522824691846619
12.318887778133268,13.092045087430828,13.621587274363824,13.41652846672198,22.48423394057187,16.074504713253173,9.740071954694209
12.114248381464852,13.326049344942696,13.720914106406845,13.524522888451168,22.430373551161306,16.149080779158222,9.95567927059414
11.935762895151406,13.559177435370238,13.8166735488022,13.633329970062928,22.38282956122064,16.22085464876759,10.168720118981922
11.784859280378596,13.790506641725807,13.908646798742982,13.742702044549342,22.34179883521717,16.2893723837107,10.378282651616958
11.662913708859197,14.019151642975359,13.996635527768234,13.852401514248662,22.307507762075325,16.354202512775665,10.58347262157337
11.57120481913322,14.244263496382864,14.080461548775995,13.962208265903314,22.280199053982308,16.414956833864224,10.78341688232851
11.510876673726939,14.465028116666657,14.159963107457507,14.071935294789554,22.26012350277884,16.47132097283529,10.977266766793212
11.48291700398753,14.680665319971666,14.234989155625042,14.181439482627336,22.247536445680137,16.5230773980162,11.164201999137257
11.488152893609271,14.890429023497003,14.305394380768181,14.290623040172541,22.24269175410875,16.57010390231781,11.34343633417407
11.527250058896836,15.093608384219838,14.371036570762852,14.399431454936243,22.245831999286644,16.61235646283199,11.514223830754865
11.600701531299961,15.28952941011253,14.431774450138564,14.507847766230062,22.257178242588978,16.64985284369955,11.675862952528336
11.708808040322928,15.477557463684784,14.487463784582602,14.615880793198754,22.27692241856976,16.682663532104907,11.827697998603565
11.851661219984454,15.65710301021014,14.537953104473894,14.72355240203581,22.3052267251139,16.71090862831302,11.969120074804223
12.029138150743155,15.827630568710484,14.583083274462743,14.830888670450738,22.34222997909407,16.734753638537363,12.099569144415897
12.240908850212344,15.988664671528637,14.622694424849552,14.937914251358427,22.388052921890765,16.754399792800477,12.21853730794192
12.486449404945262,16.13978890607456,14.656637559243226,15.044647420019071,22.44280515043294,16.770074085139846,12.325572864710793
12.765050071111407,16.280641590288187,14.684782323756373,15.15109360996372,22.506601368714524,16.782026404629892,12.420283011318768
13.075814463271325,16.410911178905668,14.707016891923113,15.25723662947654,22.579572480809432,16.79053382400738,12.50233317535432
13.417653873286222,16.530331499845058,14.72324452018755,15.363030876658977,22.661854377747336,16.79590600984325,12.571444658566259
13.78928201634683,16.63867799108452,14.7333824488851,15.468403613104817,22.753563442966183,16.798485988841115,12.627393881253873
14.189213587106538,16.73576560684617,14.737364895565232,15.573272881420355,22.854776153222325,16.79864394794161,12.670014394848867
14.615768517091725,16.821446879387885,14.735149322518726,15.677570163713142,22.96551689012982,16.796766770896614,12.69920039479715
15.067082160560375,16.895608899097336,14.726723484224934,15.78124984067464,23.085748661638444,16.793248717230206,12.71490917678336
15.541119996430373,16.95816930750476,14.712109301383327,15.88428146033048,23.21536277470717,16.78848398990582,12.717160463496038
16.035695469364555,17.00907343151634,14.691362552589002,15.986634059323716,23.354168052140754,16.782857443913603,12.706032589231535
16.548491808082424,17.048296983512312,14.664571153569904,16.088263894401333,23.50188023703189,16.77673312854722,12.681657620518045
17.077087874524697,17.07585526119885,14.63185241557701,16.189116293008837,23.65811388208974,16.7704454727189,12.644217672125944
17.61898379689556,17.091812577429888,14.593347728012585,16.28914198395234,23.822386416536702,16.76429659471677,12.593942347544079
18.171625067107072,17.096286245630107,14.549216019298969,16.38831114059766,23.994139372431206,16.758556921805848,12.531106684937875
18.73242863250382,17.08944572494338,14.499629836049415,16.486612426759926,24.172763588071124,16.75346432755736,12.456032748353397
19.298807980876163,17.07150885758044,14.444778483480171,16.58404426873192,24.35761563960621,16.74922155965264,12.369097897247196
19.868189755126824,17.0427365591622,14.384878878039348,16.680608322507133,24.54803188625787,16.745994243943937,12.27074463292344
20.43802149242108,17.003429540285286,14.320186099491965,16.77630390033644,24.743346315658446,16.743911458558305,12.16148335034407
21.005774911884266,16.953928590617945,14.25099398323268,16.871119630582516,24.9429011799833,16.74307316583279,12.04188645476898
21.568949250881783,16.89461419484789,14.177625898144273,16.96502424246621,25.146041152363328,16.743568546010717,11.912578294612432
22.12507994212456,16.825903256771287,14.100423458444258,17.057960617666165,25.35209890181446,16.74549924742239,11.77422489773477
22.67175413732919,16.748246313722692,14.019738999821843,17.149843730615178,25.56038790688323,16.748992674149164,11.62752637137449
23.206627397774128,16.662125828219583,13.93593286282236,17.240559128810236,25.770214077352193,16.754198612419426,11.4732124984688
23.72743660566954,16.568051685674924,13.849373407844325,17.329961108658637,25.980900384929647,16.76127675541503,11.312037579576389
24.23200998466514,16.466552282099595,13.760436123250011,17.4178768087559,26.19180259093718,16.770383909402206,11.144771314395394
24.718275534614083,16.358162949083837,13.669499821767998,17.504120645700088,26.402306318528023,16.78166292547971,10.972188194795416
25.18426733818963,16.243414420327014,13.576942270472601,17.588511944421004,26.61181652789365,16.795232706139274,10.795059765073434
25.62812986657177,16.122824099669728,13.48313799493566,17.67088498063199,26.81974829646006,16.811179831013078,10.614151771186133
26.048121092813144,15.996891665263622,13.38845666744161,17.75108871742011,27.0255188468661,16.829552768804017,10.430225191582675
26.442616305273976,15.866099241525129,13.293260096243909,17.82897961792706,27.228543198818087,16.85035861378015,10.244037413729208
26.81011644514832,15.730915703953954,13.19789852716779,17.904411103746906,27.428238977456072,16.87356130900451,10.056339962105929
27.14926142147346,15.591802246394867,13.102706448814828,17.977225351344988,27.62404296248156,16.899081704444978,9.867873563462046
27.458841355523404,15.44921467401732,13.007999018881156,18.04725785805633,27.815433947072634,16.92680430395931,9.679366116071705
27.737799210753003,15.303601212683223,12.914072858762292,18.114357775560133,28.00194786031472,16.956593587471858,9.491536701609887
27.985226382517435,15.15539872084228,12.821211081944336,18.17840841953708,28.183176113327463,16.9883108401028,9.305100778543972
28.200357666126738,15.005029556988594,12.729686815812993,18.239331687001563,28.358752411686897,17.021819324261994,9.120772156750784
28.382570445913604,14.852898632403035,12.639762721690438,18.29707881928242,28.5283375415693,17.05697768309417,8.939263631598159
28.531389404205225,14.69938999517144,12.551690234269438,18.351618688423386,28.69160939913552,17.093629419098825,8.761286073775805
28.64649783395059,14.54486391339848,12.465710074409987,18.402929266554374,28.848263163378824,17.131593714136713,8.587543130495087
28.727753322854397,14.389656460379154,12.3820500019987,18.450991705295746,28.998017712546908,17.170659303942234,8.418723091581969
28.775197221931094,14.234082379855685,12.300917788692589,18.495784892989857,29.140618078856168,17.210581404804387,8.255490737374872
28.78905016540512,14.078438421012933,12.222493541285433,18.53728253680571,29.275831501539255,17.25108082839063,8.09847890566455
28.76969719012554,13.9230034849802,12.146926256427943,18.575456427820306,29.40344170284337,17.29184481347221,7.948279308077132
28.717668524645394,13.768036715890185,12.07433540511711,18.61028212717143,29.523241680082762,17.332529024411674,7.805433726631089
28.63361947036342,13.613779102337707,12.004814994102349,18.641739757955943,29.63502420506785,17.372759027837162,7.670426788567224
28.518311929722444,13.460461306705698,11.938436619404985,18.66980970524469,29.738575107418214,17.41213028511016,7.5436808727451
28.372598975250487,13.308312239772905,11.875249090168454,18.694467761335375,29.8336741183658,17.450208069186075,7.425553027268788
28.19741247163108,13.157560635682048,11.815275416877606,18.715681133563972,29.92010040394484,17.486528864430905,7.316333093110109
27.99375276777563,13.00842979300953,11.75851111208978,18.733404159838045,29.997636429214566,17.520603005737627,7.216243036320236
27.76267908566283,12.861131972217246,11.704926192642562,18.747576318923883,30.066071622386495,17.551919687588335,7.125438825917311
27.50530029208875,12.715866269619784,11.65446843390961,18.758130968378058,30.12521529197472,17.5799602256747,7.044014549708024
27.22276728617381,12.572819370883744,11.607064769447897,18.765017697970354,30.17491793700338,17.604221365490403,6.972005903100545
26.916267579047656,12.43216769697334,11.5626217173637,18.768224954642566,30.21508410165677,17.624237713687123,6.9093919411360964
26.587020334489363,12.294079295764655,11.521027194652804,18.767787417204545,30.24566695194877,17.639593420269506,6.85609719749043
26.236270587984247,12.15872104016895,11.482153319341204,18.763778442381234,30.266655705762386,17.64992552127655,6.811995203840728
25.865283376146824,12.026292482268396,11.445857688346948,18.756297189080286,30.27807474979159,17.654922948116088,6.776912737204279
25.475339597991525,11.897092434803238,11.411981920196713,18.745457692953572,30.279999178273282,17.654321708158477,6.750637343438676
25.067737637082264,11.771576683983437,11.380349368564357,18.731384989351348,30.2725697293291,17.647898886602544,6.732935698798161
24.643802706031806,11.65036594317766,11.350765069070022,18.71421866672595,30.25599213594575,17.635469282446962,6.723588493214453
24.204897105827555,11.534216090521749,11.323018348830809,18.694116308946043,30.230527080269898,17.616885308356135,6.7224319240819534
23.75242324289922,11.423982609969412,11.296885421621418,18.671251211312956,30.196480039915567,17.592037224475092,6.729381575198772
23.287821398592254,11.320589993676986,11.272129782267776,18.64580693110243,30.154189684973886,17.560850224884273,6.744427322170616
22.812568709883756,11.225002509582621,11.248501498396944,18.617971231094845,30.10401376884631,17.52327911347323,6.767613529593326
22.32817797664617,11.138194894123258,11.225737805823274,18.587929220602103,30.046318206587674,17.47930595543482,6.799023503823285
21.83619015990534,11.061126429425757,11.203565188243015,18.555856504034534,29.981475023215534,17.4289428816418,6.838772652206315
21.338160692052224,10.994720248184116,11.181701706825292,18.52191232919794,29.9098664771886,17.372235364063982,6.887002461211726
20.835646183838076,10.93984483375375,11.159859513227683,18.486231789959827,29.831885734944944,17.309262804854516,6.943868712764441
20.330196636953836,10.89729617112704,11.137748027475086,18.448919316066736,29.7479306349443,17.24013796913091,7.009525723227118
19.823351554909888,10.867785389416197,11.115077481630838,18.410048099257285,29.658398539516277,17.165005853277048,7.084110857525908
19.31663410764435,10.851936710578565,11.091562168821664,18.369666166383123,29.563689192708544,17.084043970274056,7.167731177521106
18.811541328677585,10.85029227941679,11.066922995787067,18.32780359866635,29.464213231265628,16.9974680772848,7.260452636615273
18.309535815581384,10.863315810591935,11.040889562084807,18.284476651017037,29.360400797349964,16.90554056844913,7.362291447950601
17.812045274780125,10.891390793405163,11.013203172084175,18.239690636735137,29.252706793031443,16.808576364864326,7.473207430007822
17.320466958932997,10.934813536695701,10.983623530495219,18.193443931236473,29.141610954020717,16.706949022733735,7.5931000910583375
16.836166645584957,10.993783013169732,10.951939802427441,18.145731607552698,29.027611483107943,16.601097506858405,7.721807625358191
16.360467870837066,11.06839052882706,10.917980275730255,18.096546004119485,28.911213774142745,16.491525986835793,7.859106883424051
15.894636635848856,11.158612788533802,10.88161458327715,18.045873701181186,28.792918147902174,16.37879758028831,8.004712449941666
15.439869057134622,11.26430973438352,10.842751805233707,17.99369301318893,28.67320671850275,16.26353076018288,8.158277115816558
14.9972893727379,11.385224682803294,10.801340618791656,17.93998129714636,28.552527217521195,16.146395477453904,8.319397346657071
14.567961327210611,11.520984163903202,10.757369722364697,17.884734607473263,28.431276001965013,16.028100103567063,8.487622262621972
14.152903104027436,11.671098197414944,10.710864509012685,17.82798595246348,28.30978629374028,15.909370503901089,8.66246295194397
13.753090936686112,11.834963361102625,10.66188191724909,17.76981161650464,28.18833016028187,15.790927889644383,8.843402082047783
13.369448941166816,12.011869578167094,10.610506693928174,17.710330826618115,28.067142825904828,15.673470513299828,9.02990268164091
13.002834118422593,12.20100995665046,10.556848167371527,17.649701971492735,27.946462358982387,15.557664916196117,9.221413421624542
12.654023258829204,12.401495240469846,10.50103557008863,17.588112101110987,27.826557624505632,15.444148381591924,9.417371385623458
12.323702623632087,12.612374725903363,10.443212101122446,17.525762176602026,27.707728785213302,15.333533858412736,9.617204670615193
12.01246392408903,12.832657575781736,10.383528317874081,17.462855997591998,27.59029576479492,15.226407471681418,9.820334157193107
11.720825198928338,13.061325491688319,10.322135222538437,17.399600574394128,27.474598306707286,15.123319218241225,10.026173924418496
11.449300769017604,13.297336414262517,10.259179384244531,17.336218932302945,27.361013168565286,15.024773155221764,10.23413166505187
11.19850424999423,13.539624826680672,10.194803735170073,17.27296413913985,27.249971799720665,14.931220355210359,10.443609125140656
10.96922035274781,13.787102055657686,10.129154063744648,17.210123069694433,27.14195892797788,14.843056582722896,10.65400164006698
10.762404466839948,14.038658258721757,10.062385564409531,17.148011811567798,27.037491855945756,14.760627288697654,10.864697110277593
10.579131730184718,14.293169610160465,9.994664155758853,17.086971052743475,26.937097185646653,14.684236627646396,11.07507484426991
10.420534154645264,14.549511962328882,9.926163081305189,17.02736541859686,26.841300444706295,14.614153667074117,11.284503945712622
10.287743489000622,14.80657417844751,9.857058413934014,16.969584375134616,26.750629649715695,14.55061986940552,11.492341398127511
10.181843515382779,15.063263546423972,9.787526849406571,16.91403825705351,26.665620808855905,14.493864934562744,11.69793119905407
10.103832784598017,15.318504525457193,9.717748512115897,16.8611458800881,26.586813501622245,14.444120919487473,11.900607795246394
10.054599007882118,15.571237653150211,9.647913652920357,16.81131737495369,26.514734889757477,14.40162087293043,12.099707473934899
10.034903484457839,15.820423506294867,9.57822737439419,16.764938158790827,26.449880787989017,14.366584977268483,12.294585122808313
10.045367993268568,16.06505128143017,9.508909522268564,16.72235751629142,26.392701858229056,14.339204324164124,12.484627093825523
10.08645821706448,16.304148570065898,9.440193585126876,16.683883877731205,26.343592093516882,14.31962983764873,12.669255643421828
10.158466119212948,16.536790312219384,9.372327349798326,16.64978581126794,26.30287414052067,14.30797388506315,12.847929250567043
10.261498572427847,16.76210569245939,9.305572513647702,16.62029241131777,26.270785073828,14.30432413799974,13.02014293709886
10.395482027650543,16.97928145660553,9.24020004117875,16.595588751551656,26.24746855908061,14.308755285592778,13.185427758930834
10.56018875688717,17.18756263186622,9.176482108541586,16.57580891905769,26.232971244668615,14.321327554855731,13.343347315509222
10.75527185554755,17.386254744610614,9.114685184194272,16.561030631583808,26.227238032346587,14.342076664440023,13.493491607909172
10.980285228207268,17.574729491525964,9.0550679442304,16.55127319451185,26.230111500301803,14.37100362038192,13.635471005293857
11.234681591169073,17.752429975413015,8.997881812561179,16.546498145345907,26.241351079632828,14.408066765037258,13.768912440571132
11.517801888457313,17.918871384480532,8.943369297441512,16.546612142018205,26.260671617442526,14.453176257464392,13.893457499335874
11.828867496329375,18.073637350025123,8.891759880313913,16.55147507483227,26.287773162437897,14.506195425692905,14.008761554198493
12.166975530527283,18.21637360722844,8.843266690495,16.56091370192059,26.322342636710815,14.566954655614193,14.114495399658757
12.531095438086169,18.346782097710296,8.798085105597005,16.57473268385125,26.36404176158799,14.63527110040092,14.210351745330788
12.92006767787186,18.464620507282895,8.756391874483015,16.592716017912274,26.412500533419045,14.710957641486107,14.296054876760888
13.332604439761216,18.569707423954934,8.718343339305282,16.614621589303475,26.467316475089177,14.793816156725399,14.371368110155858
13.767290706693318,18.661926255098418,8.684072290877497,16.640175789934133,26.52805500889227,14.883626240277296,14.43609658089036
14.222587117306444,18.74122245591376,8.653684595223217,16.669074424249203,26.594254712511717,14.98014032352526,14.490086956711897
14.696840390885122,18.807596241380832,8.6272580174496,16.7009935103569,26.665437863496056,15.083085361198863,14.53322515747949
15.188302219816872,18.861097378381796,8.604844779322969,16.735605151846965,26.741115805274845,15.192165548575703,14.565432459925935
15.695147590664822,18.90182808334357,8.586476734107524,16.772587396971943,26.820782983240637,15.307065187505643,14.586661681759864
16.21548555899389,18.9299535114748,8.572169623993787,16.81162346988022,26.903905400487197,15.427453412538785,14.596895099810052
16.747365170977616,18.945709657403786,8.561923548419486,16.8523958685896,26.989911277907538,15.55298658687413,14.596143933411346
17.28878098016681,18.949399989058332,8.55572034614931,16.894581537207475,27.078190243575797,15.683303771363905,14.584447872914627
17.837681253165645,18.941383817473795,8.553520689637043,16.937850592809983,27.16810457237597,15.8180182786601,14.561873276028013
18.391981740506957,18.922063478666512,8.555262508013497,16.98187232786275,27.25900564646022,15.956710964869691,14.528509880404192
18.949583186672832,18.891872481343274,8.560860277064982,17.026330168072285,27.350245756491613,16.098928089518303,14.484467291578051
19.50838653831145,18.851263936039317,8.570204379732449,17.070936897741124,27.44118767389705,16.244183809966447,14.429872822039275
20.06630311305202,18.80070033789771,8.583163541775043,17.1154399277763,27.53121657810306,16.391965384674087,14.364871402980668
20.621262042242567,18.74064786480531,8.59959706750933,17.159616691468987,27.61974584278875,16.54173864876228,14.28962879577103
21.17121651127193,18.671577965478697,8.619375540917892,17.20326935229851,27.70620931133285,16.692951358012664,14.204339987223417
21.71414748494687,18.59397457769584,8.642396140094329,17.246234725941438,27.79004783408721,16.845033829258128,14.109240005874263
22.248065106831316,18.50833969192514,8.668583777266894,17.28841601411724,27.870701942372374,16.99740051986048,14.004609433597679
22.77101040368713,18.415191473950422,8.697884275292633,17.329814910308457,27.947613479871904,17.149455365719483,13.890771914817993
23.281060382195456,18.31505631526356,8.730258588963087,17.370538686280106,28.020230074126733,17.300599316005734,13.76808959218194
23.776340593879997,18.208459023571567,8.76568053676333,17.410783634403884,28.0880067236202,17.450240907860493,13.636961753199236
24.255045908122845,18.095913417004322,8.80413525681251,17.45080928722737,28.15040529325587,17.597811314272082,13.49782498667159
24.71546099149333,17.977914901736337,8.845614612946244,17.490911450459976,28.206894227750666,17.742776274860677,13.351150724594495
25.15597096457768,17.854937512831615,8.890110050180507,17.531398626836083,28.256950364014514,17.884636863403347,13.197439829659212
25.575063555793346,17.72743601146316,8.937606879844655,17.572575665641008,28.30007002133733,18.022922335403017,13.037216986209403
25.971330337850357,17.59585004568974,8.988080651751897,17.614733729829016,28.33579206879177,18.15718218351235,12.871026341389381
26.343471624486135,17.460607078922397,9.041492733264946,17.65814221836944,28.36371760557903,18.286982292454947,12.699427663280263
26.69030787520336,17.322122633890768,9.097784524458216,17.703042035935724,28.38351185953564,18.41191087393055,12.52299214086915
27.010796278000445,17.18079779833272,9.15687258242279,17.74964281076667,28.39489555118991,18.531593624859596,12.342297392630103
27.304041969310198,17.037014948563474,9.218647582322687,17.798122055787672,28.397638060724628,18.645708537333178,12.157922026055397
27.56929658683141,16.89113372671736,9.282980384273442,17.848621491418626,28.391553235435,18.75399998079135,11.970441123851247
27.80594978824356,16.74349109875321,9.349733949641132,17.901240068734833,28.376496175593974,18.856298372568286,11.78042349664104
28.013521170281123,16.5944071894266,9.418772519381465,17.956026363302822,28.352363145307955,18.952535306414248,11.588430140357511
28.191653779157168,16.44419207758872,9.489962169272246,18.012972405464648,28.31909765497819,19.042739979062237,11.395012607669665
28.34010758621178,16.293148513990687,9.56316729806493,18.072011292800635,28.2767048099282,19.12702045031147,11.200710649620603
28.458752552256964,16.14157112297249,9.63825076862191,18.13302449559302,28.22526802238047,19.205540357094694,11.006050648027944
28.54756369053034,15.989744099463099,9.715078792694566,18.195863226221,28.16495589710432,19.27849674104429,10.811546878935054
28.60661978875924,15.837938125329172,9.793525267894143,18.260374711106536,28.096016412475365,19.34610144551034,10.617704242013508
28.636102609817875,15.686407249188742,9.873471389286765,18.326416839692648,28.018764807252673,19.408567094206795,10.425018605729441
28.636292880610764,15.535386206238845,9.954801001926567,18.39385642558357,27.933569986889605,19.46609746267734,10.233973834679672
28.60756458194829,15.385087750666159,10.037394051872573,18.46255872293171,27.840843552149664,19.518882155337955,10.045037778168584
28.55038097186675,15.23569992609934,10.121120101524639,18.532375687786587,27.74103421909076,19.567097069334046,9.858658697350599
28.465293081946896,15.087385383708423,10.205833114096862,18.603136019949012,27.63462248860631,19.610910124964924,9.675262520974622
28.352939077305894,14.940284704648938,10.29136806805419,18.674637953790402,27.522108256979,19.650486323227398,9.495251372019373
28.214042741746677,14.794520917419707,10.3775391541304,18.746645142145095,27.403993122983593,19.68598864379922,9.319003434788675
28.04941306588026,14.650201402976775,10.46413878619112,18.81888532307941,27.280765300137684,19.717578237940607,9.146873654495494
27.859948287363448,14.50741954007033,10.550939628139805,18.891050116026534,27.152891392035432,19.745414988281546,8.979194163026811
27.64664025953996,14.366259502389177,10.637705031879747,18.96279363238301,27.020814330685365,19.76965483690796,8.816273533364718
27.410570489813853,14.226802192505154,10.72420657638802,19.033730201973842,26.884955985928155,19.790443984278838,8.658395506451464
27.152896210881728,14.089136054427422,10.81023734054664,19.103436218603456,26.745722194212505,19.807915113439925,8.505818674976993
26.874834137647873,13.95338897940165,10.895613455079696,19.171462007166433,26.603505072264124,19.822188054202968,8.358777371974385
26.57765294750464,13.819783559785604,10.980168210371152,19.23735305724572,26.458679555536563,19.83337001031565,8.217482455882976
26.262677653568666,13.688685373564327,11.063745057463962,19.300670963738536,26.31159867533099,19.841550566264996,8.082121061677038
25.93129402332172,13.560615025015696,11.14619064105228,19.361003331994063,26.16259236930737,19.846793896766364,7.952858909365452
25.584940388316607,13.43622735024294,11.227348124340955,19.417961107019966,26.01196745059283,19.849132246613596,7.82985454802353
25.22508893321518,13.316277014675498,11.307054403642459,19.471169743202076,25.86000772482059,19.848560873138485,7.713288083614705
24.853225143653788,13.201582817822498,11.385143810913313,19.52026011280585,25.706980059590613,19.845035671650223,7.603390204851087
24.47082916660225,13.0929968898481,11.461454212923659,19.56486168057364,25.553146562557902,19.838479713404713,7.500457049266242
24.079359424827494,12.99138498833673,11.535829005707054,19.6045986203763,25.398775157275765,19.828800499298147,7.4048501753516
23.680239553529574,12.897618856282921,11.60811450794094,19.639090189114825,25.244148506716922,19.81590781995829,7.3169852330016525
23.274851786132462,12.812569711399263,11.678157306486481,19.667957436678766,25.089575457827113,19.799722724094625,7.2373120722872235
22.864538420009158,12.737092310328528,11.74580513807484,19.69083390148729,24.935397796613024,19.780178115265908,7.166291543995385
22.450607673417906,12.672003477848351,11.810911053989786,19.707373146573598,24.78198339313567,19.75721493533163,7.10437444652493
22.034340837901496,12.618064355358682,11.873336536954826,19.71725046679651,24.62971197269901,19.73077914305214,7.051985566250295
21.617001145875992,12.575967107839677,11.93295045760712,19.72016589452026,24.47896754724047,19.700824132646577,7.0095137893294615
21.199841947860218,12.54632162186422,11.989627767645377,19.71585618638614,24.330140184499378,19.667315243561138,6.977307361389223
20.784110750432955,12.529641815593358,12.043253957623298,19.70411119119822,24.183626000884857,19.630229119540203,6.955671425080147
20.37104812958435,12.526334525675184,12.093734674976657,19.68478316687266,24.03981945340246,19.589547243924997,6.944865186124818
19.961879861430088,12.536692142616502,12.141003408033047,19.657789035275695,23.899107589326988,19.545248627837537,6.945097911077652
19.557802672706885,12.560888542497043,12.185021337120325,19.62311732692395,23.761874917877186,19.49730519450064,6.956523540351086
19.159968537269542,12.59897789605863,12.225770093570679,19.58084294834044,23.628510889112665,19.445679594990096,6.979234991363702
18.769471853980107,12.65089583243093,12.263243309470656,19.53113660296992,23.49940648204475,19.390324115632325,7.013263103467045
18.387341248117668,12.716463168932298,12.297443954653295,19.474257931158444,23.37493896784521,19.331181866393752,7.058584320222362
18.014536939336114,12.79539314599287,12.3283903610166,19.410537549256777,23.25545595615364,19.26819307315635,7.115131760496281
17.651953267295536,12.8873007014771,12.356125015793493,19.340360552516973,23.14127025632878,19.201304753286564,7.1827992876020215
17.30042269920622,12.991709839054812,12.380717308704565,19.264158746335738,23.032667060595596,19.13047647881264,7.261435905870713
16.96071585461586,13.108058202594442,12.40225896453521,19.182408720534493,22.9299133511673,19.055678097267027,7.350836203077438
16.63353641053696,13.235702783005598,12.420857487959772,19.09562694566766,22.833259346685193,18.976884037327267,7.450732537178847
16.319516691311634,13.373929397254832,12.436633363114824,19.004357592849246,22.742932211189242,18.89407399758724,7.560791702749083
16.019229771779255,13.521962875655715,12.449723327488128,18.909156344732846,22.65913006975207,18.807245190392614,7.680617016938771
15.733243284485372,13.678973947768318,12.46028649098242,18.810574713188775,22.58202154360543,18.716427957146337,7.809754193809224
15.462211798321823,13.844084346872766,12.468510199657993,18.709147067846335,22.51174805809514,18.62169420796942,7.947696761784653
15.206951761007927,14.016375327332204,12.474616223419579,18.605381598544586,22.448428254449922,18.52316454318467,8.093888241765269
14.968451497956138,14.194900651816083,12.478864207128618,18.499755201985003,22.392174608408062,18.42102345101047,8.247722663693024
14.747829138003782,14.378697915358398,12.481547224991075,18.39270991967155,22.343124846520713,18.31553221687472,8.408546500566684
14.54627539461184,14.56679267943486,12.48298078726947,18.284648967961587,22.301465609739278,18.20702474978021,8.57566301847127
14.365004632988592,14.758197935195335,12.483491266485887,18.175933752104335,22.267428992462488,18.095890939494144,8.74833791663235
14.205225801653516,14.95191523334234,12.483410935634257,18.06688379906622,22.241273709472072,17.982561701034783,8.9258049052887
14.068130033180182,15.14694072718177,12.483083883926748,17.957778836026343,22.223268898735682,17.86750088137377,9.107270656259644
13.954876455490334,15.342275299935562,12.482875530213672,17.848867892552995,22.213680608258684,17.751198931389695,9.29191867275422
13.866564313345318,15.536935037891341,12.483173220788334,17.74040307414787,22.212755559592352,17.634163210301057,9.478911996038818
13.804197669248948,15.72995803370539,12.48437665710091,17.63270068922582,22.22070230994061,17.516905947707365,9.667396054716606
13.76865311953546,15.920407955781421,12.486885714474296,17.526193051546322,22.23767458354375,17.39993210840321,9.856502988479278
13.760655103095377,16.107377635642028,12.491090122869352,17.421436804049655,22.2637670074709,17.283727654002412,10.045357149544069
13.780759456962318,16.289993697943277,12.497363688673671,17.31908896629333,22.29902705543913,17.168750099616776,10.233080971846963
13.829343598743424,16.46742439768677,12.506064491456486,17.219882647382796,22.343467863834732,17.055423561102714,10.418800940670224
13.906600423934783,16.63889209211766,12.517535621756588,17.124617285245503,22.397067212193164,16.94413770906535,10.601653436606856
14.012533895605266,16.80368302180877,12.532100391691818,17.034154847539025,22.459762979348906,16.83524805485051,10.780790536036047
14.146957771414817,16.961148594336592,12.55005502222041,16.94940691379595,22.531468040192784,16.7290750383187,10.955386506108013
14.309499682851474,17.110703732539125,12.571666590939044,16.871310660196798,22.612104568967606,16.625901094802643,11.124646117578704
14.499607003055448,17.25182660790934,12.597177222028908,16.80080250854632,22.70162728708458,16.52596710135554,11.287814701820245
14.71654885820581,17.384056084917926,12.626806947181453,16.738793682709925,22.80001557308168,16.429469632295966,11.444186464523202
14.959415300980368,17.506984867601346,12.660751517198106,16.686146662344797,22.907247580861252,16.336560316455426,11.59310728372661
15.227118868855364,17.62025369486547,12.699179531322118,16.643658081944178,23.02327435035271,16.24735183380569,11.733972933688056
15.51840058745691,17.723554722095546,12.742230569745704,16.612060762174895,23.147997112740097,16.161932504677054,11.866226969336568
15.83183863815968,17.816643654995246,12.790012035732277,16.592044864497574,23.28124901986078,16.080380203016375,11.989361869007649
16.16585818724192,17.89934792677374,12.842594894105893,16.58427573363262,23.422791447246208,16.002766403716954,12.102923602431092
16.51874464506205,17.971561555281156,12.900009296842214,16.58938853747797,23.572330460067572,15.929153324794498,12.20651549576247
16.88866457280673,18.033231463880053,12.962240100959482,16.607964201289438,23.729538539781963,15.859589956981345,12.299797760656768
17.273692786344196,18.084344209262373,13.029223103971482,16.640502041243362,23.89406185033369,15.794108078594654,12.38248385975057
17.671836757960694,18.12491811891155,13.100843205100832,16.68739783689689,24.065513311597826,15.73271888634425,12.454336213143247
18.081052027884336,18.15500293509706,13.17693585364536,16.748931020964136,24.243469287671356,15.675411156228119,12.515161680426596
18.49925081680469,18.17468434409949,13.257292295174258,16.825261676784926,24.427481518885994,15.622149625829605,12.564807450880963
18.92430804522798,18.184086961179,13.341665847040929,16.916431783073374,24.617095228542137,15.572872799732524,12.603160018930387
19.3540664759567,18.18337230705404,13.42977664966632,17.022364200971595,24.81186100070607,15.527493465419736,12.630149778906343
19.786343611539515,18.172732965017786,13.521315946540053,17.142859014813695,25.01134164005738,15.485904282925773,12.645759679343938
20.21894502896487,18.152385316564125,13.615950080723293,17.27758994449689,25.21511738557311,15.447986760746774,12.650031841837535
20.64968486570747,18.122562438855976,13.713322603798987,17.426101973193468,25.422786568986744,15.413624200113496,12.643067333178402
21.076406986776483,18.0835077834887,13.813054845515927,17.587810839764398,25.63395807233817,15.382718048789082,12.625020429082008
21.497000164142396,18.03547026964688,13.914745527518265,17.76200760538336,25.84823587943583,15.355199548886892,12.596091948607251
21.909406654916587,17.97870196435389,14.017968833661458,17.947871498955863,26.06520234830205,15.331032157466998,12.556523793866516
22.31162757622621,17.913459126757715,14.122271842449685,18.144487136800283,26.284410121458933,15.310208792288122,12.506594118477402
22.701729253872916,17.84000583456156,14.227173429860626,18.35085728829995,26.505384936410163,15.292745410308822,12.446613864497042
23.077852979873732,17.758618555811317,14.332165933131513,18.5659079792405,26.7276285328225,15.27866937982023,12.37692660214711
23.438227384782603,17.669590442701836,14.43671949565346,18.78849306087279,26.95061419078354,15.268008805144472,12.297910347313785
23.78118298383044,17.573233671719517,14.54028748713716,19.01741449023156,27.173788300982373,15.26079770334659,12.209977393939187
24.105168884206194,17.469878494441748,14.642312070337505,19.25146978480158,27.396595152754234,15.257100777322048,12.113570856593682
24.408766303314884,17.359869998656908,14.74223158453314,19.48950961218219,27.618514426275777,15.257036096506852,12.00915935633325
24.690692540359827,17.24356479300243,14.839490256022343,19.730471602678037,27.839081695336237,15.260774343582357,11.897230651331068
24.949797008380695,17.121330101998094,14.933546539163888,19.973380966781846,28.057884775086308,15.268519153526077,11.778285567970912
25.185055653560937,16.99354644527229,15.023876545646742,20.217335866671178,28.274561092472467,15.280483428063748,11.652836451612723
25.395567737188752,16.860611000607133,15.109973274956776,20.461492478138293,28.48881457637797,15.29686994423521,11.521414175350767
25.580555202971176,16.722937507582294,15.191345281741043,20.705051801563513,28.700436877001515,15.317861636003872,11.384580612434181
25.739362459915835,16.580951964028912,15.267522900748247,20.947246635695713,28.909309180817605,15.343622661796388,11.242936218620677
25.871455474812926,16.4350860212491,15.33808311235679,21.187328648923298,29.115382652411697,15.374302579578941,11.097116519160021
25.976421851786586,16.285771305715123,15.402689544830206,21.424556454721156,29.318649565529576,15.410035273604198,10.947781165777876
26.053972703369915,16.133438914204223,15.461125755549832,21.65818515607001,29.519113541468872,15.450932136750133,10.795601677140239
26.103943275792886,15.978524341642014,15.513307553485545,21.88745745345788,29.716767166408278,15.497074358927721,10.641251534530342
26.126288377983517,15.821471452739683,15.559277856390807,22.111598541890928,29.9115951323068,15.548507628954145,10.485400513965752
26.121073274099864,15.662730160964598,15.599191851194991,22.32982034064607,30.103611016067642,15.605237852505748,10.328712418375375
26.08846553744341,15.502750207614275,15.633299795833683,22.541339271387198,30.292901186565167,15.66722578678216,10.171843302702603
26.028731526988018,15.3419783486492,15.661932696097809,22.745405887491582,30.47964401111574,15.734381207196968,10.01543821860902
25.942235111704935,15.180861876044824,15.685488998303027,22.941338630790273,30.664102359382024,15.806558749556805,9.860125981657065
25.82943381900564,15.019851675475621,15.704418202714201,23.12854853141071,30.846603957857763,15.883559454277618,9.706512679886123
25.690870412400134,14.859399006896096,15.719203947127044,23.306543683938816,31.02752441576114,15.965140248374603,9.555175758986973
25.52716174193281,14.699951260514359,15.730354757522761,23.474915978074165,31.207279570863186,16.051025187962345,9.406659501894866
25.338987918525454,14.541952756510064,15.738405911642367,23.633322859586997,31.386322403419815,16.140909723925727,9.261472550949263
25.127083628178703,14.385847192386763,15.74392365427745,23.781475060388058,31.565151791958026,16.23446086359617,9.120092163668808
24.892232359120246,14.23207649786918,15.747504024767313,23.919134525868557,31.744344097091254,16.331328775439808,8.982979039403576
24.6352635822803,14.081076894876471,15.749777400910368,24.046117955899476,31.924590912997378,16.431175266138855,8.850594542871526
24.357052188287643,13.933274492271618,15.751428385924012,24.16229575083195,32.106730855938075,16.53369886262495,8.723406283592624
24.058521464002165,13.789080029218443,15.753214636488785,24.267581903928125,32.291783149425505,16.638636609856984,8.601880135939421
23.74065044970268,13.648882338393156,15.75596934763489,24.361919901599606,32.48096625203328,16.74574788525604,8.486467676510225
23.40447991168188,13.513041969707055,15.760593346485589,24.44527223170459,32.67567537594999,16.854796401720762,8.377594837100029
23.05111237595743,13.381886967295964,15.768040897673716,24.517616263921866,32.87742890297167,16.965542565659092,8.27565270680946
22.681711271949165,13.255711580734614,15.779297823087923,24.578943232889138,33.08780817887213,17.077751337667717,8.180992029668769
22.297502371916103,13.134782963164405,15.79535785934018,24.629258818720718,33.30839961336452,17.191206379318295,8.09392327696754
21.899771146770398,13.019373496309141,15.817205120994899,24.668586772919458,33.54074842201559,17.305713903201358,8.014720344803765
21.48985144736463,12.909825462291334,15.845808051107156,24.6969722452068,33.786337830677084,17.421092078918104,7.943622428360416
21.06910923970016,12.806613366312842,15.882124988875528,24.714481947598973,34.0465837422612,17.5371557406819,7.880832230601309
20.638927789691053,12.710362843902082,15.927110145993042,24.721203882395717,34.3228166752023,17.653705398802074,7.826514620556395
20.200700451966917,12.621827775741545,15.98170961309153,24.71724805418034,34.61624351673038,17.770521069383467,7.780801665266189
19.755833246688056,12.54185152945923,16.04685941191367,24.70275025220848,34.92790588463216,17.887356932100882,7.743810779411593
19.305749486529322,12.47132703814473,16.123507677555242,24.677882168421064,35.25865311089637,18.003935582543036,7.715674606726633
18.851886576924358,12.411159797075213,16.212655115152483,24.642869710807503,35.6091386351853,18.11994576001282,7.696564068167716
18.395684922978205,12.362238991245047,16.3153793414193,24.598028842347684,35.97983262777919,18.235046658863055,7.686689794809483
17.93857513275537,12.325420350948672,16.432823700597723,24.543817264616433,36.37103223190299,18.348875553032517,7.686289218119779
17.481968070768414,12.301514817082623,16.56617217882111,24.48086774285477,36.78286578213453,18.46105518592223,7.695610667583063
17.027249136070033,12.291273629818495,16.716642278047388,24.409979374796652,37.21530735479365,18.571202222782752,7.714896500599871
16.575775109623535,12.295368490462366,16.885497438668114,24.332083822371384,37.66820546170923,18.678936442571406,7.7443664122748315
16.128871094668117,12.314372034618644,17.074070327554317,24.24820913380401,38.14130476079498,18.78388781081326,7.784204043217232
15.687826208144212,12.34874304646942,17.283801587904154,24.159460646312397,38.63424446346991,18.885701161272085,7.834547627170117
15.25388668547954,12.39881766359417,17.516277307101824,24.06704851970346,39.146539091602314,18.98403897867862,7.8954833283898695
14.82824617464487,12.464804791731877,17.773231213458303,23.972355493964717,39.67755371649413,19.078581090990166,7.9670403988234
14.412035535750753,12.546782722263133,18.056525636672948,23.87697901240288,40.22648317357258,19.169021166773092,8.049188096866706
14.00631432913204,12.64469583964157,18.368164494359597,23.782704797848666,40.792348778323735,19.255064324611126,8.141833753122741
13.612067243033193,12.758355390763777,18.71033731519983,23.69144619983234,41.37403531957955,19.336430163162138,8.244820383252282
13.23021263195178,12.887453984805735,19.0854275042295,23.60521020551544,41.97038168442248,19.41285894165943,8.3579229623155
12.861622970855171,13.031596039928374,19.495970221392973,23.526123787727997,42.58028825116326,19.484118181684725,8.480844564282586
12.507141265504396,13.190327125944718,19.944635770662654,23.456508908493344,43.2027715683754,19.550010289128817,8.613214577117294
12.16758004539192,13.363145573053867,20.43427223545744,23.39895750571136,43.83694299285846,19.610377867308312,8.754589682422178
11.843707230615008,13.549501492811963,20.967947279331284,23.356376257354647,44.48195292570093,19.66510349769645,8.904455948960678
11.53623020794519,13.748795356181809,21.54895005716604,23.332020533199437,45.13695479608116,19.71410687000049,9.06223053883889
11.245785523261368,13.96037725441834,22.18076416494285,23.32951794839886,45.80110613624932,19.757340715395646,9.227263569350958
10.97293649293427,14.183544234045634,22.86701242761176,23.352830031984535,46.47357705620802,19.79478824269079,9.398841519504561
10.718175873716751,14.417537407398457,23.6113850258966,23.406133203496665,47.15353552183138,19.826474539860094,9.576193150913275
10.481937390318258,14.661540372902282,24.417576692345133,23.493663758200825,47.84012104174313,19.85249534629765,9.758498414625736
10.264639755045645,14.914678148299933,25.28922031301416,23.619570381528508,48.53243284945528,19.873041670428577,9.944899584754893
10.066769917293234,15.176016638596314,26.22979469678216,23.787789570634605,49.22952898978343,19.888401648917,10.134511783675483
9.888955694027912,15.444564004153333,27.242532383851387,24.001952182703583,49.93041302117,19.89894530794207,10.326429909773504
9.731976924189967,15.719274063238776,28.330356835365897,24.26532723356497,50.634003377627735,19.905103258326125,10.519732023795758
9.59672576252747,15.99905085392638,29.4958347387959,24.580790969887904,51.339103217261965,19.907343585201573,10.713482143391778
9.48415510239258,16.28275591892469,30.741150664065433,24.950809951396074,52.044389936416245,19.90615019492312,10.906734996995679
9.39523692672911,16.56921939916793,32.06814155071943,25.377470550774053,52.74844466858164,19.902004737119434,11.098543019797459
9.3309326772951,16.857251277141547,33.47835730027717,25.86257409517876,53.44983353574864,19.895372973363393,11.287964827614864
9.292166877708638,17.145651124103846,34.97307557689072,26.407726385233957,54.147202808216605,19.886698133316894,11.47407437398245
9.279797371738011,17.433218950459192,36.55328199288114,27.014363720300594,54.83932181579117,19.876400777167884,11.655969984100558
9.294585247576338,17.71876559507592,38.219666871928226,27.683779224562823,55.52506044429942,19.864878158731294,11.832782734751975
9.337169432986503,18.001119344420324,39.9726252687191,28.417208265339603,56.203345407905935,19.85249846587998,12.003684154687587
9.408046459167977,18.27913128501622,41.81221103030723,29.215912046802643,56.87312948742663,19.839595062576834,12.167894174548335
9.507553569353576,18.55168226093522,43.73805002938451,30.081202436224125,57.5333759903995,19.826470064092796,12.324689392810985
9.635855408334029,18.817688599716362,45.74928527818937,31.014430663596514,58.183060286406516,19.813407921176232,12.473408717795971
9.792938773880488,19.076103360034413,47.844607074235846,32.01695443221967,58.821190972595645,19.800687459278404,12.613454161126914
9.97861854817325,19.325914455537276,50.022321487903554,33.090100195378234,59.4468300443666,19.788587696106198,12.744288976704937
10.19255146813339,19.566142577407568,52.28037029786633,34.23516200882923,60.059096453356965,19.7774083575455,12.865437148762913
10.434251068837835,19.795839952485405,54.61628850842694,35.453412436299296,60.657164287099135,19.767547313746164,12.976486251701417
10.703096434867179,20.014090498030775,57.02715050329568,36.7460562772525,61.24025766259444,19.759658384622554,13.077091882130787
10.998331294573072,20.22001397017346,59.5095631599024,38.11412124767099,61.80763720293454,19.75483717154418,13.166979181223484
11.31905798511286,20.412775200004138,62.05975242523156,39.55834286112423,62.35859167015686,19.75474220559135,13.245939462393702
11.664233202299702,20.591593792829535,64.6737320246053,41.07910928099915,62.892439113924546,19.761619942881556,13.313824880282407
12.03267183345985,20.75575076670429,67.34747748746373,42.676479962050095,63.40851804800373,19.7782660476518,13.370544928997655
12.423062786361822,20.904594578615626,70.07704252244068,44.35021588153005,63.90615957432507,19.807971310992947,13.416065392881562
12.8339901701773,21.037548267355696,72.85860354347062,46.09978187877251,64.38465710595119,19.8545143002542,13.45040723537982
13.263947254870741,21.154115980225857,75.68845773842217,47.92435828734949,64.84326021248734,19.92224107061783,13.473642968223775
13.71134105422308,21.25388625226369,78.56301437540945,49.82287416930087,65.2812044651422,20.016174239348555,13.485890978794641
14.17449825930114,21.336530213335404,81.4787799295658,51.79401426313875,65.69775597408747,20.142040722688073,13.487310006172367
14.651682331715488,21.40179616673285,84.43232991952047,53.83618283862828,66.09223938147672,20.306208110953165,13.478094607569552
15.141117363886803,21.4495047632108,87.4202826296158,55.94746814809436,66.46404817683526,20.51562537035564,13.458470528072441
15.641004419843414,21.47955253930484,90.43926422684301,58.125651559629226,66.8126530912893,20.777842930541567,13.428689362721984
16.149523962103093,21.491934601545903,93.48587423240558,60.36826487298797,67.13760845814913,21.101087057220585,13.3890237891878
16.664830631295732,21.486782156093412,96.55669672375913,62.67265457956745,67.43855485044753,21.494285183561733,13.33976454326125
17.185048751830813,21.464387780229956,99.6483360748443,65.03600136518058,67.71522926368377,21.967023668404124,13.281219252470159
17.70827254900585,21.42520015994893,102.7574130406826,67.45529569066188,67.96748647290313,22.529507187334293,13.213712782533657
18.23257086367612,21.36979842785265,105.880518250073,69.92730737025904,68.19531954262719,23.192470378204167,13.137587297419277
18.75599367002008,21.29886288284977,109.01416606302175,72.44858241066723,68.39886154658831,23.966973420608642,13.053199892263805
19.276578972293155,21.213159397116396,112.15476251420678,75.0155426294716,68.57836054893804,24.86419822227072,12.960918533998967
19.792362966070534,21.113569665985317,115.29856706623967,77.62472903262481,68.73414744628609,25.89537201546458,12.861119515026406
20.301396290992013,21.00117399259508,118.44166792633459,80.27303965243944,68.8666235160634,27.071750298498078,12.754188333530923
20.801763682219153,20.877324970955105,121.58002094143218,82.95779220412366,68.97626175783105,28.404532414081377,12.640522114766737
21.291602845119527,20.74365277486156,124.7095236248697,85.67665161323023,69.06359610634618,29.904727179471433,12.520529973168664
21.769120356115675,20.60201565451959,127.82605559403694,88.42754165347542,69.12919951769477,31.58309033955073,12.394630172963945
22.232602290085982,20.45443673751769,130.92550380275108,91.20856380230474,69.17367524660413,33.45023590074961,12.263246057568614
22.680418591421407,20.30304920473214,134.00382273477376,94.01790761458092,69.19766644648487,35.51689795017402,12.126802923106133
23.11102265817144,20.15005597985738,137.05710943458564,96.85379445955594,69.20186316866794,37.794150044549625,11.985726108393443
23.52294823517241,19.997696539314322,140.08165115610777,99.71448457104137,69.18698958892158,40.29341645417589,11.840440503357938
23.91480700034176,19.848218639283818,143.07394382537314,102.59827812743804,69.1537802848681,43.026258671737246,11.691373780474628
24.285292029455157,19.703875296820453,146.03071242043083,105.50347044511034,69.10296787466159,46.00397477041207,11.53896380479037
24.633188686335227,19.566951524636202,148.94894910986287,108.42833705076066,69.03528866139247,49.237143427727084,11.383665366763447
24.9573868783052,19.439780612420837,151.8259317649441,111.37117637158673,68.95149431978855,52.73533985848719,11.225952008572511
25.25688887775323,19.324719208070725,154.65918183818533,114.33032643348685,68.8523536494012,56.5070766768038,11.066313638370232
25.53081345848599,19.224105871684383,157.44637110224423,117.30411229045858,68.73863397092289,60.5597768882848,10.905251389002782
25.778397692155814,19.140244150133746,160.1852278407622,120.29078113130392,68.6110660941507,64.89969764492658,10.743270423156229
25.99899496700099,19.075411437801677,162.87350513503196,123.28846993730758,68.47030803986327,69.5318986777112,10.58087211441237
26.192068933818046,19.031857774029238,165.50901850940497,126.29517923708634,68.31691861688093,74.46021479404617,10.4185467905034
26.357185785905106,19.011772139094987,168.08968042300214,129.30876838058768,68.15134476060952,79.68717549091568,10.256767734153197
26.4940087662053,19.017228069618895,170.61348436413385,132.32706397904087,67.97392518402602,85.21395921423934,10.095986722588322
26.602298581605833,19.050134106141726,173.07848374967313,135.34807725481136,67.78490590218725,91.04035316037057,9.936630771462074
26.68191990891963,19.112216225278292,175.48283862843599,138.37019495584298,67.58445701285888,97.16462152890755,9.779100605004075
26.732850637628108,19.205039649251727,177.82495314823814,141.39226950691733,67.37269204569638,103.5834035455188,9.62377192609491
26.75519009950397,19.33004231198085,180.103631664064,144.4136582584988,67.14969480949382,110.2917833399599,9.47099882234433
26.749162010914738,19.488553192912434,182.31812589941822,147.4342371349069,66.91554176119503,117.28345097443595,9.321117100547998
26.715109538922114,19.68179123905568,184.4680436265249,150.45432706584697,66.67031491700024,124.55089065673441,9.174445475533526
26.653486069974733,19.91084701787678,186.55323567133712,153.47450919784004,66.41411980376219,132.08562003121943,9.03128431238907
26.56484833836036,20.1766575782986,188.57374840288938,156.49540421303925,66.14710731167342,139.87834042580545,8.89191415871806
26.449854870485176,20.47998660970544,190.52978596305468,159.5175061317904,65.86948285826769,147.91887613971286,8.756595898060992
26.309265967510573,20.821406029016224,192.42162280619587,162.54110470961086,65.5815019941218,156.1960551574417,8.625571012462023
26.14393886304043,21.20127773559183,194.24951581227526,165.5662614482796,65.28346146203775,164.69769085014414,8.4990603127836
25.954817823309853,21.61974576467476,196.0136814504621,168.5927780761331,64.97568868758239,173.4106489816193,8.37726348128243
25.7429246468254,22.07673808549071,197.7143360019256,171.62014662848173,64.65852851557416,182.3209524982357,8.260361732065148
25.50935144406715,22.571968329866518,199.35176395524232,174.647520570355,64.33232710104613,191.4138721232388,8.148520539995154
25.25525259329368,23.104937924420838,200.92637469028145,177.67370795711415,63.997421204629795,200.67396338455148,8.04188886336784
24.98183403658237,23.674956064150134,202.43870273321411,180.69715364327018,63.65414454564854,210.0851669765779,7.940596880422337
24.69034104630319,24.28119290817931,203.88935657448545,183.7159678972492,63.302844977575745,219.63107257912026,7.844755677523754
24.382045964255703,24.922741624135707,205.2789652269217,186.728069697574,62.943889182503185,229.29514257199253,7.754458817992796
24.05823782792815,25.598642641822444,206.60813933899553,189.73132740436796,62.577645697821005,239.06067901846114,7.669785969134665
23.72021691031496,26.307861680980178,207.8774733561464,192.72354035165412,62.20446300853523,248.9106459259458,7.590810856793235
23.36929371632773,27.049253023548474,209.08761609757744,195.7022941307959,61.82466134596223,258.8275356298529,7.5176112520149285
23.006786974446012,27.82153497167919,210.23932425182474,198.66481783101318,61.438540173306,268.79328540677733,7.450273519895541
22.634018622170778,28.623281154660397,211.33340315254466,201.60791799956306,61.046396592219985,278.7892199694046,7.3888891115366775
22.252309488886077,29.452921742926836,212.3705886846231,204.52798123127147,60.648552592613235,288.79611410562967,7.3335477782064675
21.86297638867684,30.30874954762163,213.35147676852324,207.4209823461722,60.24537883741723,298.79442188732503,7.284334587002253
21.467326715350186,31.188922083848436,214.27651085508256,210.282484519046,59.83729482265362,308.7645387334285,7.241340238443189
21.06664916095289,32.091461598521846,215.14596751770625,213.10767900018755,59.42474725204715,318.68696713036184,7.2046881251721215
20.66220600909263,33.01428546023168,215.95991513044893,215.89147386827688,59.008193986770806,328.5423931305156,7.1745640922026555
20.25523616800768,33.95528424279945,216.71817759846488,218.62863962985796,58.58811012823253,338.31172049508297,7.151231402690063
19.8469704044393,34.91239857848895,217.42033121509965,221.31401956466976,58.16499929218619,347.9760619425999,7.135026894882835
19.438646604369552,35.883636390070585,218.06572245880943,223.94268967905558,57.73938531513126,357.51667879111847,7.12634392209948
19.03151253654903,36.86704264951213,218.6534813752353,226.50994919597548,57.311787559049044,366.9149266393714,7.125609736410731
