HandOpen,HandClose,Wrist Flexion,Wrist Extension,Supination,Pronation,Rest
1.353309585728887e-07,2.571288212884886e-06,5.413238342915548e-07,0.0,1.353309585728887e-07,1.7593024614475535e-06,2.706619171457774e-07
1.596456228882502e-06,2.6814063425872438e-05,5.844501081238453e-06,2.706619171457774e-07,1.4611252703096133e-06,1.8182642762587644e-05,2.9222505406192265e-06
9.118286453018874e-06,0.00013958877625364115,3.144063048227438e-05,2.786919582046338e-06,7.927823099855037e-06,9.361829388339338e-05,1.6126308116855853e-05
3.4430192829548154e-05,0.0004919643216850611,0.00011409957574776571,1.466518284654624e-05,2.942462027031234e-05,0.0003258881961019347,6.217748395696258e-05
9.893033561289598e-05,0.0013411615630586574,0.0003188254974522083,5.330234414709732e-05,8.549669250086661e-05,0.0008769521916689563,0.0001905557522195077
0.0002352606946955341,0.00305282414301077,0.0007403204754382054,0.00015185057176703826,0.00020966837512988314,0.001972942158432329,0.0004943931718312622
0.0004891603263854091,0.006090710168426528,0.0015002757588531935,0.00036335893260643185,0.00045389445258761256,0.003914249622989188,0.0011249007778237196
0.0009223071253846916,0.010999557134390252,0.0027433013271094104,0.0007622385648357347,0.000891929448757283,0.007130075406145727,0.0023020376702465994
0.001615217139773297,0.018383922908558725,0.004634491997719187,0.0014425424701534507,0.0016209129286156056,0.012295306670535057,0.004326163199984287
0.0026691659180059233,0.028885654106893165,0.0073596953033118,0.0025140566698419876,0.002761574734384521,0.020472683080612866,0.007590987305842043
0.0042072487850346495,0.04316246405167629,0.011126187379203307,0.0040992246201669805,0.0044578193645004125,0.03320716947157093,0.012589642924870841
0.006375230086308826,0.06186991919180441,0.016161469925589464,0.006334711699402423,0.006876319557354942,0.052531231046013364,0.019908133902269868
0.009343931526174564,0.08564839725712003,0.022710521761554893,0.009379005467467507,0.010206091008066118,0.08089720628191283,0.030208738068807025
0.01331658577955906,0.11511445818670708,0.03103248388479822,0.013423282228480762,0.014656806999016623,0.12107545798833663,0.04420905050729124
0.018541685869078235,0.15085447805719396,0.041396777975144315,0.01870104169932318,0.02045486377444334,0.17604679419906552,0.06266072878725078
0.025325286296949644,0.19341862351734745,0.054078401586241984,0.025493660703133015,0.02783819308271135,0.24890504232284621,0.08632965774976274
0.03403538142043197,0.24331441175768495,0.06935248092360007,0.0341310950492691,0.03705133943946755,0.3427771068116719,0.11597811873915904
0.04509667444813405,0.30100236881270526,0.08748870790054457,0.04498813260949396,0.04834082267570585,0.460757058430489,0.152349559180428
0.058979274541603656,0.36690216569055945,0.10874712853738414,0.05847715028923691,0.06195039632102371,0.6058454381268563,0.19615614834161932
0.07618595286354454,0.4414166864333667,0.13337673092456365,0.0750382217762088,0.07811670317637015,0.7808929171478559,0.24806815259979229
0.09724231617150571,0.5249664963154788,0.16161701828295102,0.09512745999631592,0.09706559965454631,0.9885597816151641,0.30870364506064285
0.12269273457399181,0.6180146674396211,0.19370117421159377,0.11920476557802712,0.1190089568087226,1.2313057776898113,0.3786184276618644
0.15310004182259118,0.7210698116401489,0.22985829787836976,0.14772236710055872,0.14414258870986255,1.511412579329366,0.4582974294266419
0.18904285592038847,0.8346713285937769,0.270312800697509,0.181116635733221,0.17264609220913346,1.8310202200830172,0.548148056343885
0.23110662756198347,0.9593665664720237,0.3152816246586051,0.21980596223093687,0.2046841212981725,2.192147629087434,0.6484946380953182
0.2798705057488981,1.0956866261347533,0.36497257035837066,0.2641937515608409,0.24040759745343218,2.5966793999687914,0.7595733992701933
0.33589411645959044,1.244124188069358,0.4195863997097019,0.31467120255533204,0.27995349806695635,3.0463269001321565,0.8815289765462144
0.39970571876245314,1.4051147557785226,0.4793206219858692,0.3716157929217908,0.32344376542291825,3.542587902702163,1.0144137011816547
0.4717915693100881,1.5790217376190259,0.5443701092910164,0.4353858744340987,0.3709851498899412,4.086720629185647,1.1581893785413744
0.5525868901360418,1.766125120281753,0.6149230734382616,0.50631340972496,0.4226699624282865,4.67972599850919,1.3127333324992227
0.6424686096952819,1.966612671696435,0.6911554903514977,0.5846962803618719,0.47857661667632084,5.322323563852998,1.4778541369055056
0.7417494528090816,2.180572774639153,0.7732276076531034,0.6707912151668535,0.5387714866419284,6.01491945833651,1.6533169378197363
0.8506732887255878,2.4079890878934584,0.8612826268550233,0.7648077870588353,0.6033149237085161,6.757577218564916,1.8388675318545693
0.9694112425129884,2.6487387971303633,0.9554446201790612,0.8669031568715214,0.6722704234616688,7.549999674169046,2.0342445969248915
1.0980574830302736,2.9025975944492655,1.055815059317785,0.9771774316870604,0.7457123970506416,8.39152057164728,2.2391797442943586
1.236625032631082,3.169251253738853,1.1624703199711628,1.095670473464776,0.823729666181031,9.281103071920224,2.453392109464233
1.3850436474641656,3.44830774589848,1.2754616711819344,1.2223610905616498,0.9064249751004,10.217346200504776,2.6765837457886295
1.5431611381583477,3.739305338715962,1.3948194781745733,1.3571681156006472,0.9939116429556746,11.198498102015826,2.9084369990803367
1.7107472939051938,4.0417176328193065,1.5205618664344498,1.499951578538593,1.0863079222104397,12.222470033594453,3.1486108682695497
1.8874984610515608,4.354956227866655,1.652701733850225,1.650512919069425,1.1837294369960372,13.2868466769348,3.3967346087913843
2.07304387906389,4.678370275282864,1.7912464682871256,1.8085950207122288,1.286280997133673,14.388895323581261,3.652401410284288
2.266960186642309,5.011244536267422,1.9361928009495013,1.9738833876316026,1.3940495427201103,15.525582811115378,3.9151683914554525
2.4687957856606837,5.352799328643874,2.0875213090352203,2.146008575601627,1.5070984214482759,16.693610423189373,4.184565999031951
2.6780962210476593,5.702194686851058,2.2451911512803906,2.324548862664248,1.6254623349480737,17.88946945878346,4.460110218383452
2.894427104553126,6.05853825339637,2.409134297330349,2.5090330036987756,1.7491430840505635,19.109503554923794,4.7413089049446295
3.11739812794433,6.420893322700978,2.5792498828118275,2.69894402241335,1.8781063460896943,20.349953503814778,5.0276652595557785
3.346682078395848,6.788283837183349,2.755400158660872,2.893724256878671,2.012280067020313,21.606976547164443,5.3186886768537915
3.5820207076640243,7.15969702446339,2.9374101577727756,3.0927812675111435,2.151555594831538,22.87666382643712,5.613911559252629
3.8232191547482,7.534086445382262,3.1250722048439266,3.2954944034771816,2.295790800228549,24.155087374876853,5.9128986405750865
4.070132955992813,7.910377027720618,3.318151901607707,3.5012214374943733,2.4448123660925902,25.438372716530367,6.215245000962085
4.322650810468334,8.287471707264366,3.5163901006962224,3.7093045097117523,2.5984155012312775,26.72275813058544,6.520571366661043
4.580677269167919,8.66425811483224,3.71950011677189,3.9190754448187626,2.756361733493421,28.004628736857054,6.828519700651533
4.844117687119265,9.039614840473158,3.927164389349469,4.129860771789041,2.9183765737507272,29.280564871443147,7.138748152713719
5.112869217738299,9.412420142232435,4.139033780869732,4.340986174271911,3.0841490607115816,30.5474185047975,7.450929227093731
5.386829224927321,9.781565792085006,4.354728679211958,4.551780967606489,3.2533356069613544,31.802363090507768,7.764750334752642
5.665923168148568,10.145972193226289,4.57383997648644,4.7615836249773915,3.425569093363384,33.042878380191546,8.07990910438436
5.9501279450704825,10.504597378624489,4.7959316015224145,4.969747402688365,3.6004695500617023,34.26670036016286,8.396101795721842
6.239469254827634,10.856438697236102,5.0205487872997825,5.175647311088704,3.7776520429563707,35.47177228653789,8.713010909760834
6.534000185624586,11.200533786882593,5.2472311778390734,5.378693881549392,3.956733240287128,36.656199542755715,9.030297675070164
6.8337774177295225,11.535966770635667,5.475523581456266,5.5783520825746375,4.13733909733977,37.81820442855205,9.347603288977654
7.13884226122765,11.861877380931993,5.704979343647284,5.77415350411195,4.319109800385318,38.95608438538088,9.664560566485916
7.449223721630332,12.17746579514867,5.935157510421464,5.965695739780484,4.501698052868949,40.068176501379874,9.9808086187049
7.765011594474855,12.481990612553929,6.165617289263822,6.152635205726119,4.684763719904438,41.15282837651229,10.29599770236708
8.08651101289817,12.774763684038152,6.39591245444935,6.334680370787692,4.867970747401718,42.20837573833548,10.60978582980767
8.414380686730423,13.05514529015839,6.625587187683472,6.511586215387173,5.050989521821857,43.23312757328185,10.921850648346524
8.749654885504965,13.322540893355814,6.854174414856716,6.683147996997163,5.233502416108947,44.22535928087788,11.231933180500565
9.093668736938632,13.576402603584448,7.081197056060107,6.8491939897429495,5.4152066933733485,45.183313453664844,11.539890335895777
9.447958765023891,13.816237830251913,7.306171934584038,7.009579252980431,5.595812357300006,46.10520525134737,11.84571615511605
9.81417246467578,14.041619553094655,7.528617980150622,7.164182092888645,5.775038353535566,46.989228591055856,12.149524416060169
10.193989656915903,14.252190107068637,7.74807024462086,7.312902363875701,5.95261088118743,47.833562352256344,12.451515046737203
10.58905327015276,14.447657932889907,7.964094216350638,7.455659934004452,6.128263462118797,48.63637783196809,12.751942444280774
11.000909293260584,14.627791710820539,8.176292392892288,7.592392892292089,6.301736283244549,49.3958480234443,13.051093295249844
11.430956815495156,14.792414992610958,8.384303990782344,7.723055700696671,6.472774016123123,50.11015860269404,13.349278998503099
11.880407696177251,14.941403326733061,8.587803775402714,7.847616917362534,6.641122983290785,50.77752062151982,13.646839017231349
12.350253880829653,15.074689656022672,8.786500307620729,7.966055925498457,6.806528937300045,51.396184590527135,13.944139238247054
12.84124078798767,15.192286469477041,8.980130748011042,8.07835931025078,6.968737018438412,51.96445497586594,14.241556091395648
13.353846899843884,15.294319117180185,9.168453200777373,8.184519177190724,7.127494453095213,52.48070604765651,14.539455939849976
13.888270128746232,15.381046805513245,9.351240022564399,8.284534844442362,7.282554233455828,52.94340332000491,14.83818180620296
14.444420789852037,15.452858123789651,9.528275286673283,8.37841563031591,7.433677914990634,53.351130395444315,15.138046741362336
15.02192134851223,15.51025099794015,9.699359203967335,8.466181771442265,7.580638730416194,53.70261145568409,15.43932558041686
15.62011364720222,15.553811129294694,9.864317730065698,8.547865144300497,7.723226394645945,53.99672229664301,15.7422421781661
16.238075003746726,15.584197865612191,10.023009041854682,8.623512781354137,7.861250761093837,54.23249526388409,16.046956481624097
16.87464618003411,15.602139945881774,10.175322174938188,8.693190830651103,7.994541351558876,54.409125399742976,16.353554203221144
17.528467614075605,15.608432242148993,10.321174272238697,8.756984861698392,8.122944329078539,54.52597683072158,16.662038610971436
18.198008476359725,15.603924071834324,10.460513899369102,8.814997163923687,8.246320002790473,54.58258587737042,16.972325910088713
18.881578900690936,15.589501295326102,10.593327463521799,8.867343651779544,8.364541889421789,54.57866226015636,17.284245498593393
19.577333242828356,15.566068602412646,10.719640974870075,8.91415048945206,8.477496109887893,54.51409225439243,17.5975441641926
20.28327554373137,15.53453343839915,10.839515364232472,8.955549859021488,8.585080253753564,54.38894459102381,17.911897178348518
20.997270866494205,15.49579016999767,10.953039297820547,8.991675775175057,8.687204127022804,54.20347589960513,18.226928024113345
21.717062006388137,15.450705527319485,11.060323704167692,9.022660551734356,8.783794589451462,53.958131990303315,18.542226360171316
22.440289162091894,15.400109273980679,11.161499532100283,9.048631458699129,8.874801600074699,53.653544183699765,18.857353855817234
23.164508636162488,15.344791216812284,11.256716538815274,9.069708141150553,8.960200924872623,53.290522293171165,19.171841427663782
23.887208847355588,15.2855000737912,11.346139805248832,9.086002067544669,9.039992018679541,52.870050095193115,19.48518646839333
24.605825266579046,15.222940106258307,11.429943763966563,9.097617652475465,9.114192933318533,52.393297338366565,19.796853563651233
25.317755328244388,15.157767092444981,11.508305916206064,9.104653920924756,9.182837069876177,51.86165442652151,20.106276345149542
26.02037253885205,15.090589142430773,11.581401485265003,9.107207266610853,9.245975269973842,51.276767390298836,20.412856510086833
26.711040232489516,15.021974184139776,11.649399336279155,9.105377762408759,9.303680043270857,50.640544673747975,20.715960746539928
27.387128446427894,14.952456959381403,11.71245927816188,9.099279468105061,9.356046431359506,49.95513545693752,21.014919730503717
28.046035865302354,14.88253792939971,11.7707302791104,9.089049465445182,9.403188733137862,49.22289740763933,21.30903161213918
28.685212218304628,14.81267602151082,11.824349740450284,9.074849978645865,9.4452355143659,48.44636448380123,21.597571339357014
29.302175435044255,14.743282056756348,11.873445823615246,9.056864511652254,9.482325590913478,47.62821576541405,21.879804503514855
29.89452386031422,14.674716542012158,11.918145076968305,9.035292256992285,9.514609061227034,46.771245310061914,22.15499912428155
30.45994668899828,14.607290697542325,11.958582895773626,9.010342931543233,9.542255808271884,45.87833533605767,22.422431244687278
30.996234136455378,14.541268387562166,11.994909190322188,8.982232306702658,9.565465991971813,44.95243417063917,22.681387704550648
31.501287624330786,14.476871635169381,12.027285691330688,8.951178237245548,9.584474493382988,43.99653668592623,22.93116929479025
31.973129518719627,14.41429549398247,12.055880929282399,8.917397159661538,9.599549349874849,43.01366438940393,23.171092294076146
32.40991149500733,14.353728952060932,12.080872191451553,8.881102249438957,9.610988382238443,42.006845588592924,23.400486378558952
32.80992173272035,14.295368331488326,12.10245555849922,8.84250431518044,9.619113822629432,40.97909720839679,23.61869288181735
33.17159219749371,14.23941631832632,12.120853663869198,8.801813145782841,9.624263475036186,39.933407913590486,23.82507151787944
33.49350607382473,14.186073867816402,12.136312756224553,8.75923581333684,9.626780394606763,38.87272387085994,24.019018236757592
33.774405383994704,14.135533741244082,12.149092269643356,8.714972518285748,9.627003691914501,37.79994416132911,24.19998818320651
34.01320340538122,14.087976978191742,12.159453858538482,8.669214023406315,9.625260819238132,36.71792855221445,24.36751844773611
34.20900581269204,14.043571289179852,12.16765424246887,8.62214368220837,9.621861070983835,35.629505935844996,24.521247063082964
34.36113205623645,14.002471455256302,12.173943180140036,8.573942910267599,9.61709033620521,34.53747238443698,24.66092052254645
34.46912378698624,13.96481906216313,12.178562957291003,8.524795031334795,9.611206306229546,33.44458474317976,24.786386013457776
34.53273993189226,13.930737642002883,12.181744787756152,8.474883928905452,9.604433349920402,32.35355928293267,24.897575014159358
34.55195430300156,13.900323761332224,12.183703170497315,8.424389693478384,9.596957915748796,31.267071723121866,24.994487640034965
34.526980422064334,13.873637692675162,12.184632074747153,8.373485142007604,9.588926106216627,30.18774990503455,25.077181744107303
34.458324898633556,13.85069584481163,12.184703378142409,8.32233365436191,9.580443920405873,29.11815850215553,25.145765633570928
34.34682642107366,13.831466164167075,12.184066377663331,8.271087179962528,9.57157943960667,28.060780842389086,25.200395714165
34.193645658494546,13.815869615360477,12.182851181624514,8.219884561000079,9.562366599005836,27.018001380735512,25.24128139727751
34.00022194913284,13.803790167335608,12.181179689397515,8.168850694298921,9.552810357929843,25.99208941946583,25.268690238806784
33.768225117457845,13.795089417418563,12.17917972591888,8.11809653808864,9.542891867759225,24.985184020519604,25.28294674786657
33.4995110619073,13.789617996683958,12.176992821063164,8.06771954799908,9.532572083709118,23.99928236496237,25.284435863920983
33.196081099596434,13.787219421834862,12.17477352821319,8.017803924670439,9.521794472286986,23.036240256478365,25.27362174470297
32.86004556781594,13.78772745539992,12.172685348436525,7.96842071399441,9.510489796400103,22.09779719799261,25.251068051972762
32.49359272409726,13.790967029021097,12.170896647924442,7.919628337855135,9.49858442158713,21.18562028555466,25.21744231921943
32.09896426996662,13.796784056263519,12.169577307346778,7.871474560328253,9.486009188359555,20.301335715126516,25.17350738502313
31.67843645296526,13.805117205558794,12.168896290158795,7.824002711522698,9.472705471695958,19.446527772059017,25.120108655768657
31.234303239329087,13.816073139983068,12.169019456477638,7.777263440563018,9.45862855619876,18.62271748179433,25.05815861500243
30.768859350528146,13.829952005932283,12.170106665081432,7.731326154841566,9.443749558673646,17.831340455817564,24.988617634226
30.284383277165357,13.84722093859775,12.172307669235858,7.686283475131072,9.428055573383293,17.07373192975786,24.91247148223131
29.783122275779707,13.86846855971094,12.175757241808018,7.6422513685969475,9.411547265009727,16.351117694899454,24.830708376195158
29.267281506765684,13.894360592154865,12.180571122987713,7.5993723514783085,9.39423427265375,15.664604628000632,24.74429968707828
28.739015492997634,13.925601264748526,12.186843269154746,7.557822048505296,9.376129983768054,15.01516692300546,24.654188016528014
28.200418893035962,13.962904392195028,12.194642473154602,7.517812236226596,9.357247643844836,14.40363076294523,24.561283934795107
27.65351916687296,14.006974991256191,12.204007338947125,7.479586850631332,9.337598709452116,13.830661206459677,24.466468760627635
27.100274566253013,14.058493980847585,12.214941659500134,7.443414307392337,9.317193063826378,13.29675218472075,24.370603163925402
26.54257366125917,14.118098899695644,12.227412681198343,7.409580023704876,9.296041021033117,12.802219895784308,24.274541297203267
25.982230985479074,14.186362278746541,12.241352202397891,7.378379612202705,9.274156346966182,12.347200460722144,24.179139137582847
25.420979192550575,14.263772456809594,12.256658247132687,7.350111366348114,9.251557344843485,11.931652209442026,24.08524762784155
24.860461637374197,14.350718697456994,12.273195730621843,7.325067473024214,9.228264306439705,11.55536132919741,23.99369688806695
24.302230337630625,14.447481930867525,12.290796738337455,7.303524878208214,9.204294988815981,11.217947887812299,23.905282479078608
23.747751372135475,14.554235361737849,12.309261746249499,7.28573739024143,9.179659917849635,10.918870328927497,23.82076373980212
23.198411947893607,14.671055387124623,12.328362172041286,7.2719304362498605,9.15435845581617,10.657430300236001,23.740876476590845
22.655522363266137,14.797932570983656,12.347844279185999,7.26229823236958,9.128377742201568,10.432781088591428,23.666342778278054
22.120313252719935,14.93477457005353,12.367435371477542,7.257001509173129,9.10169590780866,10.243939965211013,23.597860693787585
21.5939314960242,15.081405099411878,12.386852724988163,7.256164810893108,9.074286834664537,10.089801633211007,23.536080633265428
21.07743623043828,15.23756343313712,12.405813533209196,7.2598739332161735,9.046122173017851,9.96914991632437,23.48158748698581
20.57179519797891,15.402903366499235,12.424043211114284,7.26817423317474,9.01717000543549,9.880666326140167,23.43489603067991
20.077881753721332,15.576991590674131,12.44127964190347,7.281070126873121,8.987393376647328,9.82293593718948,23.39645148579424
19.596475231870922,15.759307216019915,12.457273763859966,7.298525472210979,8.956751049168663,9.794452456507985,23.366625530933653
19.12826870692946,15.949243844548485,12.471792029488649,7.32046538684147,8.925198986196518,9.79362485335783,23.345706161542523
18.67388162085608,16.146116914239542,12.48462453721809,7.346782901347674,8.892690377028352,9.818788125508524,23.33388508814955
18.23386794027043,16.34917708374865,12.495593839245279,7.377351639688918,8.8591747494687,9.868218192028234,23.33124885993967
17.808715818574534,16.557623126379298,12.50455721246623,7.4120380691628025,8.82459730790331,9.940146351011578,23.337777491033737
17.398843890571786,16.770607648093844,12.511401628525423,7.450706420932153,8.788898611089605,10.032770387186295,23.353347722836222
17.00459912813624,16.987237202820925,12.516035402287274,7.493216869099063,8.752015218515119,10.144264197277819,23.377741883604997
16.626256060259198,17.206571982291024,12.518380105168221,7.539421226559035,8.713881665073808,10.272786934614924,23.410675608244613
16.264015687475435,17.42762782720605,12.51836391429551,7.589158870628696,8.674432136821785,10.416490866857064,23.451848510208052
15.918004226473153,17.649380864940373,12.515916116261652,7.642254436663878,8.633600117628225,10.57352879409351,23.500992658717184
15.588273427367866,17.870774025324195,12.51096292729038,7.6985185061943975,8.591316391491034,10.742062261173784,23.55789142403445
15.274803453867287,18.090724784807342,12.503425690238192,7.757750341510539,8.54750845333279,10.920270736657114,23.622369822447723
14.977506922528411,18.308134527258133,12.493223490944814,7.819739282321942,8.502107313261646,11.10636322528957,23.694274861728367
14.696232527149961,18.521899529360113,12.480281101057557,7.884263419515854,8.455064000195447,11.298593048043825,23.773463351105114
14.430770488981343,18.730920829841136,12.464537739270979,7.951088798032369,8.4063663540281,11.495273201556287,23.859802507697214
14.18086500790017,18.93411034998044,12.445950105248023,8.01997395977611,8.356044747574442,11.69479326869318,23.953169342896654
13.94623279145638,19.13039429139853,12.424489451919188,8.09068013220903,8.304167676518825,11.895639841959387,24.053439579325328
13.726588267598563,19.318716182783337,12.400137487602327,8.162980161095316,8.250835071643122,12.096412091622152,24.16048541368812
13.521705328325138,19.498041107862008,12.37288368972527,8.236659891608852,8.196173353629728,12.295824093028331,24.27419894685891
13.33153827746576,19.667361256080998,12.342723136665347,8.311513762025125,8.140332641682011,12.492698130549867,24.394523253216125
13.15634456333774,19.82570125690747,12.30965425679033,8.387339948476862,8.083485331821839,12.685956240742598,24.52146456462161
12.996726666819475,19.9721227158701,12.27367952686886,8.463938483164146,8.02582416269302,12.87461230487892,24.655080355607378
12.853592217110446,20.10572911004291,12.23481329891745,8.54111265099389,7.96755919077936,13.057764947703728,24.79545143266827
12.728085057730205,20.225671297873106,12.19309407239385,8.618670604604539,7.908915120187215,13.234591036462318,24.942647801660453
12.621515312854603,20.33115274999589,12.148591889670103,8.696424289031292,7.850129079297318,13.404339064555645,25.096697929019193
12.535290589837478,20.421433634269178,12.10140630403136,8.774186194457485,7.791447559948645,13.566322384255816,25.25756975935952
12.470850653608805,20.495833332719993,12.051659633808107,8.851766027229134,7.733122436481545,13.719913214892129,25.425165252326266
12.429610193622265,20.553732422669658,11.999491606051457,8.92896873953995,7.675406829875514,13.864538037771885,25.599319220876215
12.412912153606786,20.594576322963057,11.945056560701708,9.005594394460582,7.618551719257312,13.999674178137656,25.77979311665567
12.421991743798227,20.61788087589355,11.8885214200766,9.081439004577378,7.562803891842186,14.124846715120043,25.966266516746483
12.457947971453873,20.623238417577426,11.830063487904228,9.156294675539252,7.5084044736531235,14.239625420574527,26.15833511026809
12.521717843429503,20.610326249735852,11.769868131273856,9.229948247005348,7.455587007969399,14.343623378704372,26.355517922174666
12.614051844773076,20.57891928791391,11.708126257943773,9.30217915458083,7.404575061041378,14.436498062586764,26.5572696109091
12.735492814312341,20.528900255902613,11.645032200356834,9.372757932211426,7.355579214557816,14.517954912173645,26.762994069567295
12.886359918929037,20.460260014559555,11.58078358255596,9.441446774637653,7.308792939114995,14.587758135487293,26.972057706490453
13.066739185729961,20.373090676633346,11.515582931394093,9.508003686878746,7.264388450172036,14.645749869054287,27.18379850181178
13.27648357954413,20.2675789477475,11.449637826237174,9.572189773461343,7.22251466904404,14.691865591694073,27.397527452307912
13.515224359496244,20.144003192318387,11.383157132537997,9.63377585409196,7.183296955980677,14.726136636599005,27.612528439592396
13.782388697069486,20.00273186826096,11.316344639283432,9.692546246029673,7.146836553469703,14.748685414500018,27.82806513059068
14.077213653707952,19.844218538620375,11.249394073630684,9.74830138079315,7.113209958826902,14.759720226453314,28.043389892191907
14.398752557399582,19.668992590853993,11.182489121809107,9.800859686265216,7.082469896480346,14.759529604379459,28.257744625454023
14.745880023857184,19.47764964014292,11.115807943798979,9.850057066516907,7.054647329250423,14.748473433393867,28.470359368086022
15.117303317664417,19.270844468478398,11.049527211245401,9.895743609370255,7.0297524069746755,14.726969898131454,28.68046457799404
15.51157917625826,19.049285808026344,10.983822699395807,9.937779167895558,7.007774009985619,14.695486490832298,28.88731737078867
15.927127963112236,18.81373305063666,10.918868537832495,9.97603013150485,6.988679123545952,14.65455256345034,29.09022270458614
16.36224125972938,18.564996946161127,10.854836591850724,10.010368581433418,6.972412379987508,14.604794154028781,29.288538670480293
16.81508741804186,18.30394278399342,10.791894737800318,10.040673139169668,6.958895500524716,14.546960379951487,29.481676810079907
17.283719341825062,18.031489905620354,10.73020453394542,10.0668299645008,6.948027504217233,14.48191727042136,29.66910794826151
17.766083336615846,17.74860421592039,10.669919792468173,10.088732910441323,6.939686920202661,14.410619849739737,29.85036629214936
18.260027381712746,17.456286384473003,10.611184560043652,10.106283257831846,6.933735891413785,14.334081999381263,30.025041439787145
18.76331195412676,17.15555910453511,10.554128896391651,10.119391141570086,6.930025905172952,14.253350360212485,30.192760900303764
19.273628612392283,16.847454292566816,10.498864294384138,10.127979953216458,6.928405982048264,14.169481924624877,30.353172611455367
19.788625426019166,16.533000556939452,10.445480799741881,10.131990648939942,6.928732053176819,14.083524042542672,30.505934266689405
20.305931047971644,16.21321175382026,10.394046535637816,10.131381693732507,6.9308729390202455,13.996495372439462,30.650710568229897
20.82317141404302,15.889077696673805,10.344611112916573,10.126124890761309,6.934710323661112,13.90936861353072,30.787174981429764
21.337980637620234,15.561559485200897,10.297212572029371,10.116202114221565,6.940135037250681,13.82305744914271,30.91501595417616
21.84801004558884,15.231592199744442,10.251883707283717,10.101610681382258,6.9470432284041435,13.738407729694181,31.033951949399402
22.350936975841506,14.900092193759736,10.208654256514572,10.08237999406964,6.955334137401331,13.656190553260378,31.1437555482243
22.844473977282835,14.567960815443568,10.167548730317279,10.058588785576738,6.964909351033486,13.577096526715133,31.244278520265883
23.326380948029644,14.236080659871075,10.128582620170366,10.030370178776884,6.9756719272014776,13.501734670364774,31.335462673732305
23.79448410844633,13.905307941280416,10.091760743360778,9.997904884092497,6.987524212697767,13.43064060653413,31.417327582244923
24.24670010570548,13.57646507654587,10.057077642087291,9.961410739680405,7.0003658563406175,13.364291012693442,31.489944728110427
24.681054941126963,13.250334522726297,10.024517225490339,9.921133603725337,7.014094054093808,13.303113627845807,31.553415863059207
25.095690731244876,12.927654028319472,9.99405384122191,9.877340287851538,7.0286061588552124,13.247488067678638,31.607868704945467
25.488864823512568,12.609113950875141,9.965660864704077,9.830313116384678,7.043804040813488,13.197742135021743,31.653468861130225
25.858948204190312,12.295356734597883,9.939325267449645,9.780345613032411,7.059598577873701,13.154147537519894,31.69042876505823
26.20442535172004,11.986977369365446,9.91505731040461,9.72773835063849,7.075911186810404,13.116915380418105,31.718999884667628
26.523895909612914,11.684524123407792,9.892888882639996,9.672794854937019,7.092671549784993,13.086192152312465,31.739456922959683
26.816078309995437,11.388500050580216,9.872864336614331,9.61581937118808,7.10981389491721,13.062057464606681,31.752084941927734
27.079814057950934,11.09936499014399,9.855029544196471,9.557118479489025,7.127273244482395,13.04452414108355,31.75716868181307
27.31407160292,10.817536736553867,9.839422264777872,9.497005129903497,7.144981165051747,13.033540292522435,31.75498237103039
27.517950002064648,10.54339126264978,9.826066335357911,9.43579995793016,7.1628614656145375,13.028991689764437,31.745782698573763
27.69068267276956,10.277263678829595,9.814970721195692,9.37382695176599,7.180828243817409,13.030702918442934,31.729807215552686
27.831642006964906,10.019450882246803,9.806130940201845,9.3114059251289,7.198788334270805,13.038437725329448,31.707277212837965
27.940344368687555,9.770214206366466,9.799529299215068,9.24884548811483,7.216646640157799,13.051900261274746,31.678400153411456
28.01645208854887,9.529780149170971,9.795133493592699,9.186437904230061,7.234309938157411,13.070739815198685,31.643365619452624
28.05977203856567,9.298339541914615,9.792895671964196,9.124455314414748,7.2516865289171415,13.09455987229789,31.602334434328146
28.07025537672306,9.076046431652196,9.792752862580084,9.063146207906136,7.268683318503647,13.12292748885659,31.55542745049724
28.04799960754446,8.863017724405168,9.794627708993348,9.002731361596293,7.285203569130571,13.155379699210357,31.50272135019484
27.99324829457082,8.659334296012178,9.798429327375407,8.94340025199419,7.3011467342219,13.191428789029834,31.44425367938376
27.90638573778959,8.46504317395551,9.804056430442975,8.885313086420997,7.316410006500351,13.23056740635203,31.380037943563426
27.787928574121352,8.280159904721065,9.811403747541684,8.828614985962938,7.33089192017688,13.272271324225986,31.310098581055808
27.638516498982572,8.104676740090985,9.820369130987974,8.773459430367534,7.344498244291863,13.315999465093025,31.23452665633973
27.458902975530663,7.938595470523136,9.830858521887404,8.720029344868406,7.357148011598713,13.36119322021131,31.15352485210931
27.249946237740797,7.781992612285705,9.842787719722208,8.668550965971903,7.368778320273663,13.407276602741304,31.067413687661407
27.01259975391614,7.635083327555833,9.856080691154908,8.619301367786317,7.379348707208397,13.453658340637304,30.976608685359526
26.74790148608517,7.498242784363028,9.870667243786224,8.572606006194622,7.388843716552743,13.499738264261216,30.88158900999475
26.45696373294814,7.371985293222749,9.886485903147253,8.528825384368899,7.397271486511369,13.544919826163754,30.782867478305626
26.14096636499491,7.2569270429305295,9.903492599031912,8.48833762628929,7.404659763322951,13.588625120208794,30.68096799173399
25.801154738384437,7.1537484270367715,9.921667284738488,8.451522994737438,7.411051760283136,13.630304907250538,30.576412650325533
25.438840544366954,7.063159989064132,9.94101249716149,8.41875160727058,7.416501946858724,13.669441265731141,30.469714409693943
25.055400188972467,6.985873214240558,9.961546964207074,8.390373163762732,7.421071707435655,13.705546872789323,30.361368293670168
24.65226660554488,6.9225761667685735,9.983300679840063,8.36670918181636,7.424826315915244,13.73816424529315,30.25183793350958
24.230917100427412,6.873912558668939,10.006313686747237,8.348052575229673,7.427833844256158,13.766865222230457,30.141540989527428
23.792862007212598,6.840463600620738,10.030635320858355,8.334678118681364,7.430165122010866,13.791250236737284,30.030841131638535
23.339634793604173,6.822733430412013,10.05632004331219,8.326857278742603,7.4318938718744665,13.810947689548163,29.92005381755369
22.872782098924873,6.821138858135108,10.083420283311588,8.324864822630179,7.4330967097378435,13.825614352891977,29.809463400739812
22.39385409491008,6.836002750126666,10.111979406299243,8.328973028404366,7.433855057947261,13.834936730828629,29.69933674512312
21.9043975236377,6.867548684531239,10.142027219462614,8.339440469747286,7.434262094989949,13.838631807093165,29.589922111738677
21.405953156086234,6.9158950694985375,10.17357980705391,8.356502259242788,7.4344319124573675,13.83644631538165,29.481437681165804
20.900056038356,6.981049163488822,10.206643456502645,8.380362751448382,7.434502970829781,13.828155476681747,29.37405997033345
20.38823416391323,7.062902317049301,10.241218206891217,8.411189322345814,7.434632882441099,13.813561984443055,29.26791701254395
19.872002853825332,7.16122750110256,10.277296970777403,8.44910730332813,7.43498834878651,13.792494787663657,29.163090603002217
19.352856364411895,7.275679416276018,10.314861202246725,8.494204916564078,7.43573455631759,13.764807038129064,29.059633662205048
18.832260457413255,7.405796840928937,10.353876003009594,8.546567831097413,7.43702661720207,13.730373107182745,28.957597484288765
18.311647618038275,7.551008118835967,10.394286095346434,8.606342262508123,7.43900486781389,13.689085561538459,28.857056000017316
17.792413141121553,7.710640869988771,10.436012328923571,8.673784005267517,7.441793951425643,13.640853774718437,28.758126998633966
17.275909945586328,7.883933613545997,10.47894776852319,8.749259228738813,7.445503392861186,13.58560524277559,28.660992322114126
16.763441754072225,8.070045614774195,10.52295408707624,8.833211164230507,7.450227632249957,13.52328866577039,28.56590405188525
16.256256680391683,8.268064949123481,10.56786034377864,8.926120967010375,7.456045358105983,13.453876504173257,28.473169858792037
15.755546411397033,8.477017917612804,10.613464992115274,9.028473800160791,7.463019376744522,13.377366635168412,28.383128574918192
15.262452951088394,8.695880850774392,10.659540935902053,9.140730842169067,7.471198018486815,13.293784575466002,28.296125213931226
14.77807518670094,8.923591034104593,10.705843560649704,9.263306091946182,7.480616973526578,13.203185558682922,28.212487728419344
14.30346719834069,9.15905368943679,10.752119859634567,9.396546722566564,7.491299697420954,13.105654531980058,28.132508990775975
13.839630669438943,9.401145960036233,10.798114789962623,9.540717143333467,7.503256653743143,13.001304288404897,28.056434874944166
13.387508445649614,9.648720484131863,10.843573372411067,9.695987260636365,7.516484717341093,12.890272758100547,27.984456353046166
12.947981327187314,9.900609859489277,10.888241051240778,9.862423519720124,7.530966598491908,12.7727207163156,27.916709527131516
12.521865276994575,10.155631689342497,10.931865075119712,10.039980993337279,7.546670039535148,12.648832958506805,27.85328705934304
12.109907961379053,10.412593130482424,10.974197914285654,10.228497127260642,7.563548887630802,12.518823742150479,27.79425021109476
11.712787817419725,10.670294609624943,11.015003772162128,10.427689517413356,7.581547319623528,12.382941378874413,27.739628333468453
11.331117534693746,10.927533395173182,11.054068314511518,10.63715986204026,7.600603597520018,12.241467945868411,27.689412082765035
10.965448673385826,11.183107990827176,11.091207586576541,10.856403155744424,7.620650268774201,12.094717274912703,27.64356346737101
10.616272690505074,11.435824662122636,11.126270668354861,11.084817068482549,7.6416143125049185,11.94303572258619,27.602053957121434
10.284017288819458,11.684506443748027,11.159135790118444,11.321707374099255,7.663421172255641,11.786804742190176,27.56490746482266
9.969041083444653,11.928002285361314,11.18970535170346,11.56629045472082,7.686000131994813,11.626440766786375,27.53221560488199
9.671639624952189,12.165193870368482,11.217905123853036,11.817696479891751,7.7092871702594,11.46239013937006,27.50412184987124
9.39209418464945,12.39500029514257,11.243687261468583,12.074975238513566,7.733226917428501,11.295120855183203,27.480792841723378
9.13077551294398,12.616382012424168,11.26703161056135,12.337103616092403,7.757776815087216,11.125114381392398,27.462391883268065
8.888249435404067,12.828345598284109,11.287941646394206,12.602992913762934,7.782911359776623,10.952859683970804,27.44906104194066
8.665317625956042,13.029950322933958,11.306437703683244,12.871495753895145,7.808621989457661,10.778849677029898,27.440910347651503
8.46298900029184,13.220315118369882,11.322551891313466,13.141413179343623,7.834912720664478,10.603580500402499,27.43800758855185
8.282419077864699,13.398623830518758,11.33632500243665,13.411502704165974,7.861795630416959,10.427557288860568,27.440365436365305
8.12484626398341,13.564128814576202,11.347804016553974,13.680487910872635,7.88928790713557,10.251307537907627,27.447929795651437
7.991535942341043,13.716154298323946,11.35704215283514,13.947069096216923,7.9174080628929735,10.0753925283898,27.460576608631417
7.88373306369402,13.854100267847434,11.364103162095898,14.209934395002222,7.946170038458915,9.900406746987748,27.4781188100891
7.802620983008613,13.977445985923602,11.36906614490848,14.467772656148355,7.9755773236809775,9.7269677281257,27.500314476387114
7.749285999283361,14.08575133406404,11.37202663280573,14.719289336264096,8.005619102632249,9.555704028521285,27.526865990593656
7.724688040071008,14.178655619486456,11.373093767661212,14.963222581650095,8.036269896152385,9.387244154326552,27.557410881681935
7.729636018597935,14.255875357689632,11.37238500650569,15.19835473240395,8.06749411177503,9.222206165278383,27.59151424159909
7.7647663407593175,14.317201875213627,11.370019837402173,15.423518676436057,8.099253310036538,9.061188136374117,27.628673491659196
7.830527624354948,14.362498206603398,11.366114149428444,15.637602460706786,8.131511364806055,8.904760431946496,27.66833688926074
7.9271751246461095,14.391695546281754,11.360775780034995,15.839556453524002,8.164235915591032,8.753461359887108,27.709922838976574
8.054770789527865,14.404790559824711,11.354100703392803,16.02840637009564,8.197397847278717,8.607796482551441,27.752827658725934
8.21318254697331,14.401844197650258,11.346170091838957,16.203269733333514,8.230969978960196,8.468239174222585,27.79642505333529
8.402084665303127,14.382982101024535,11.337049781206945,16.36336761469379,8.264925129798462,8.335230165656142,27.840067815574386
8.62096609038633,14.348396100132774,11.326792805469978,16.508027775576217,8.2992339831522,8.20917560525909,27.88309529078289
8.86914656416007,14.298344206142941,11.315442914423276,16.63668309374303,8.333863234174204,8.090443553931516,27.924841800252455
9.145791146568177,14.233146595441363,11.303036673985183,16.748868527448163,8.368774143311887,7.979359420895396,27.964641535330756
9.449916726865524,14.15317900200927,11.289605055976942,16.84421591393997,8.403921590161914,7.876201592407126,28.001831055718956
9.780393555660773,14.058866619607162,11.275176889004207,16.922446746238794,8.439253832405413,7.7811980074893565,28.035751440569747
10.135946938505434,13.9506792804357,11.25978403811255,16.983365522636664,8.474712718718115,7.694523608124722,28.065751903577674
10.515161123221956,13.82912702713942,11.243468167900797,17.0268555088974,8.510233601303977,7.61629805260968,28.091201732794826
10.916485107918707,13.694755488509527,11.226291099009373,17.052876071593666,8.54574433840582,7.546583599410413,28.111516259367892
11.33823889490915,13.548142614435926,11.208346125009871,17.06145978444557,8.581163313340994,7.485385252997428,28.126188774174647
11.778619926520706,13.38990139978998,11.189762561017785,17.052708250528077,8.616397242663387,7.43265551628874,28.134810960452704
12.235712055111065,13.220689689968648,11.170702069985442,17.026786343916275,8.651339816765693,7.388301922454997,28.137072400658436
12.707499188065476,13.041218885931837,11.151352633653406,16.98391614972511,8.68587133470981,7.352193633003096,28.132744414753816
13.191882283402107,12.852253661401338,11.131922973671333,16.924373144363056,8.719858907072625,7.324168278889601,28.121658908323177
13.686696375653407,12.654605754323118,11.112635784563526,16.848485433199468,8.753157139869618,7.30404175357656,28.103690108313224
14.18972720839217,12.44913080333733,11.09371968804101,16.756633813349964,8.785610031795812,7.291616879788259,28.078745581036845
14.698729826831878,12.236731028947478,11.075401896573313,16.649249604406442,8.8170553354084,7.286685197633735,28.046767801606524
15.211447885061386,12.018356594236819,11.057902662283789,16.52680955210826,8.847331000268284,7.289023664185706,28.007736695460537
15.725628559479102,11.794998599981042,11.04143114526627,16.389829865497877,8.876280905525006,7.298391746563487,27.961663689368496
16.239031400629905,11.56767597148256,11.026181840684606,16.23886135981038,8.90375869224039,7.31453067226486,27.908583919560453
16.7494343297584,11.337422803665529,11.0123307214513,16.07448594452689,8.929632137755044,7.337163667427574,27.84856681349078
17.254639577806184,11.105278820359095,11.000031365942993,15.897313817675032,8.953789102371678,7.365997023740746,27.781750097831278
17.752481709607213,10.872281008192244,10.989414273406352,15.707981239606834,8.976142063769423,7.400722796144014,27.70836908666392
18.24084268329935,10.639454017834328,10.980594224889506,15.507149314433335,8.99662895858321,7.441022400836267,27.62875589531995
18.71767486205611,10.40779916042853,10.973684492825917,15.295502891952955,9.015211241770539,7.48657063324692,27.54331725789647
19.18102172860006,10.178283250087585,10.968807444629277,15.07374805158228,9.031871041059063,7.537042950393323,27.45250994175296
19.629027819706227,9.951829005851415,10.966093874393275,14.84260856385853,9.046609498338594,7.592126241523502,27.356822153234756
20.05994291401087,9.729309206906759,10.965675161832893,14.602822350042944,9.059448255094093,7.65152575093338,27.25676119886472
20.472128059757903,9.511545113210898,10.967675666552433,14.355138098651587,9.070433318622628,7.714963040200205,27.152842644996092
20.86406255216278,9.299306112189694,10.972207347064717,14.100312709674514,9.079637389663485,7.782169237323121,27.045580461864215
21.234347721660146,9.093307955954758,10.979365622812892,13.839110100663481,9.087157883322668,7.852879432093828,26.93548232673859
21.581708806520314,8.894210580373132,10.989226743557497,13.57230029760989,9.093111846938674,7.926829601114842,26.823046367074955
21.90500017246614,8.702616597484232,11.001847399605731,13.300657655993916,9.097630171342978,8.003754983836933,26.70875209127616
22.203213636304508,8.51906958410274,11.017265643394222,13.024958369403624,9.100852257593617,8.083388463965205,26.59304985506842
22.475482857911,8.344051593954639,11.035500851332243,12.745978491760068,9.102922761336615,8.165458320012718,26.47636476580876
22.72108028569367,8.177980121907874,11.056551702976043,12.464495089782828,9.103992245429215,8.24968565226284,26.35912218678534
22.939413799521745,8.02120553463113,11.080393953263073,12.181292196059777,9.104219644023713,8.33578161086259,26.241775499424037
23.13003741009621,7.874012228423856,11.10698040137939,11.897167553075391,9.1037722197635,8.423445616896567,26.12481092895534
23.29267933862523,7.736625296746761,11.13624321950766,11.612933199219386,9.102823324643248,8.512367699060635,26.008729448052875
23.427268723238694,7.6092176964579465,11.168096700278836,11.329408396070589,9.101551101790918,8.602235116768753,25.894021903374096
23.53394428223904,7.491913132268784,11.202438558487648,11.047409366706779,9.100137965528154,8.692737505104553,25.781146900538012
23.61304706742028,7.384789496236106,11.23914950926254,10.767739831703407,9.098769224489342,8.783565858990164,25.67051433241977
23.66510258328045,7.28788869167089,11.278092958534641,10.49118302063529,9.097630883598697,8.874407467884753,25.5624798001814
23.690795428025037,7.20122772904461,11.319118332979016,10.218494341353557,9.09690721260737,8.964941309954249,25.457356322081424
23.690942571275063,7.12480269252302,11.362069640583348,9.950394578040013,9.096778567631935,9.054835823130771,25.355441050851226
23.666469088432095,7.058586561305227,11.406795313540618,9.687565000417313,9.097419319185288,9.143748277212953,25.257042793697817
23.618386333368814,7.002534524805215,11.45315364136818,9.430645754806244,9.098994685025895,9.231324139112287,25.16249612550708
23.547774269546686,6.956618335659851,11.50101260636593,9.180236433790702,9.101656322954852,9.317196203566548,25.07215965808425
23.45577133370028,6.920891151203443,11.550246095379896,8.936895990783746,9.10553862322912,9.400985204291452,24.98640353098052
23.343570396738794,6.895543901097697,11.60072762704978,8.701140783175633,9.11075768146467,9.482303413631879,24.9055929018329
23.212413586702752,6.880915788480457,11.65232257631805,8.473441683759404,9.117414251010928,9.560760238459757,24.83007617049704
23.063581581878914,6.877465900185166,11.704880816449483,8.2542209136162,9.125600847895463,9.635967472001964,24.76018052597856
22.898382290362495,6.885732919292008,11.758232970977183,8.0438484631926,9.1354094126587,9.707543645804087,24.696206516567322
22.71814727977546,6.906296291135957,11.812195120962246,7.84263881830287,9.146934004997131,9.775118393053717,24.638414895645525
22.52423492923863,6.939741767665391,11.866581838969411,7.650849523563016,9.160267493752794,9.83833620819246,24.58700905488237
22.31802905193956,6.986634758231861,11.921217535621906,7.468683887016017,9.175495974141032,9.89685856595856,24.542119503194154
22.100926595102415,7.047502684454326,11.975937964912063,7.296301524522934,9.192693328412053,9.950366828632676,24.503795509601286
21.87431901915616,7.122820543181982,12.03058529036635,7.133835549765461,9.211915198907194,9.998568717129235,24.47201027006814
21.639573816927733,7.212993554943312,12.085003940797032,6.98140609416948,9.23319247186838,10.041205530751002,24.446680209915154
21.398019838961982,7.318337931679014,12.139040979233627,6.839123009063847,9.256526399518766,10.078055765539602,24.427685247724337
21.150939499896516,7.439064456047372,12.192550557947559,6.707081854884523,9.28188680289364,10.10893529532404,24.414878014427867
20.89957053066099,7.5752681318623525,12.245397430566245,6.58535868353723,9.3092133974282,10.133696069261047,24.40808784949942
20.64511684086376,7.726925118804724,12.29745515983351,6.474004887394704,9.33842048954482,10.152223999687028,24.40712969401494
20.388761463091743,7.893895111435908,12.348602597253008,6.373043430375237,9.369405587605254,10.164436470426434,24.411814536968052
20.131670378506467,8.075924723134532,12.39872632448769,6.282467785590976,9.402059854822157,10.17027996024725,24.421952827693644
19.874982575518217,8.272649183042594,12.447730348329626,6.202241771835875,9.436274743690015,10.169728996462315,24.43734924918851
19.619792824068394,8.483593160672156,12.495545163743014,6.132297581112003,9.471941066914738,10.162790653889958,24.457793118628143
19.36713666748473,8.708172621080685,12.542127720735136,6.072532395447616,9.508943135788835,10.149518202338399,24.483050152523095
19.117981574500906,8.945698977243936,12.587452724698139,6.022805978962778,9.547153051144743,10.130027727585095,24.512858233998493
18.873221685132204,9.195385584773467,12.631504312753837,5.9829398255871284,9.58642727061021,10.104505303758378,24.546926020105744
18.633672646319337,9.456355759091352,12.674276975423483,5.952716551351104,9.626604847899264,10.073201236713334,24.584933527922107
18.40006639166658,9.72765188483566,12.715784536571455,5.931879812919841,9.667507094338122,10.03641824935042,24.6265336910546
18.17304738034858,10.008245376123874,12.75606632215714,5.920136328023897,9.708940328983152,9.994499606602725,24.67135282791704
17.953171377231744,10.297046456119078,12.795183044680734,5.917159079715096,9.75070288347138,9.947818432568619,24.718994723239945
17.740907074577013,10.59291263941456,12.833206915921991,5.922589308063848,9.792593168740803,9.89676787728497,24.769061563527668
17.536639938549712,10.89465610612907,12.870216551876187,5.936037114652921,9.83441373418282,9.841752389465988,24.82119083415208
17.340676788631427,11.201051219304663,12.906300201107914,5.957082187511116,9.875970363320256,9.783180834646448,24.875082216929616
17.15324893001558,11.510842657225298,12.941558790472685,5.985275334082995,9.917068764946313,9.721461494547363,24.93049683608024
16.974521153219527,11.822752903611807,12.976100764037994,6.020140962607807,9.957510995240213,9.656999083446594,24.987241202467313
16.804631131147083,12.135487939932451,13.010031659616214,6.061181149374746,9.997092821320468,9.590194941618705,25.045158000711176
16.643762801742668,12.447742119413787,13.043445127906772,6.107880968126312,10.035602864991404,9.521449941125942,25.104134501056976
16.49220575535436,12.75820398038052,13.076418143198383,6.159713301132995,10.072824315632428,9.451166694714612,25.164119740654872
16.350360574451617,13.065562786968535,13.109009872220438,6.216142090068998,10.10854048459344,9.379748566312541,25.225134541646437
16.218707266440564,13.368514251510693,13.141261671655842,6.276624419995564,10.142544486963455,9.307596342591493,25.287274878471017
16.09776839287228,13.665766081207407,13.173195318629908,6.340612588941523,10.174649950053269,9.235103854121943,25.350714403713503
15.988076578287549,13.956046306927565,13.204808905531761,6.407558049422834,10.204698157117674,9.162652674151204,25.41569910777075
15.890146271898436,14.238114853444714,13.236073501784324,6.476918858593842,10.23256172448803,9.090606969698953,25.48253299139646
15.80446436490198,14.510774729172931,13.26693567660965,6.548169600101372,10.258150092183397,9.019309926724018,25.551565651121216
15.731543728116181,14.772880144055963,13.297326412888056,6.620809356664345,10.281418118517845,8.94908126164984,25.62318185221169
15.672056018471446,15.023342517385423,13.327169817653683,6.694364151638337,10.302370914614796,8.880214863844941,25.697783786122812
15.626963339971738,15.261135596206499,13.356386648512979,6.768385364230984,10.321059107672154,8.812977143954578,25.775764798071755
15.597553228360162,15.485299200182565,13.38489409524991,6.84244785612091,10.337567005143537,8.747606817904005,25.857480544668785
15.585382580565664,15.694941487125867,13.41260414200642,6.916148700786282,10.352000148096717,8.68431507336264,25.9432252318963
15.592193654574965,15.88924089285852,13.439421217401279,6.98910506742003,10.364476895458974,8.62328457653276,26.033221549099334
15.619834211030135,16.067448417430207,13.465239861086777,7.060951042272607,10.375125867836516,8.564667572792889,26.127627982722014
15.670182667949408,16.228889576662823,13.489944086699035,7.1313345859549,10.384088473920873,8.50858411983402,26.22655496267768
15.745077481659111,16.372965464474802,13.513412083182475,7.199915064023131,10.39152213589973,8.455120625052704,26.33007497698493
15.84625390443794,16.499153703562172,13.535527906603436,7.266361564557468,10.39759858984816,8.404328554247408,26.43822071507194
15.975290901078756,16.60701059359838,13.556193656641302,7.330353382599409,10.402496687002044,8.356223338318717,26.550976493090552
16.13356969933465,16.696175227319042,13.57533315198054,7.391583622075458,10.406394477343216,8.31078390498275,26.668269411383044
16.32224420935091,16.766375076789423,13.592886281970202,7.449764464703486,10.409463551539874,8.267953851421359,26.789962412096962
16.54222076002456,16.817430577153203,13.608800033857671,7.5046315322468775,10.41186424596129,8.227644786732936,26.91584827573686
16.794141956818635,16.849255616577885,13.623021431661245,7.555946335435089,10.41374096837694,8.189741151478731,27.0456448480339
17.07837091763469,16.861853238847555,13.635493925951451,7.6034976430619245,10.415219884188403,8.154105376865484,27.17899375152494
17.39497786247907,16.85530878695335,13.646156673002489,7.647102874380112,10.416410210070733,8.120582579869483,27.315464228046356
17.74373566173061,16.82978370966756,13.654945652489754,7.686609870485159,10.41740681832794,8.089004142514801,27.45456660962382
18.124127152489272,16.785512786967043,13.661794378595914,7.721898512858925,10.41829130445481,8.059189525065328,27.59577754764507
18.535357646092518,16.72280506612263,13.666632243946982,7.752881348747949,10.419131116195372,8.030946219184102,27.738565236211763
18.9763647290356,16.642045020775495,13.669382054213713,7.779503230266439,10.419977400305845,8.004068881507285,27.882402431605435
19.445825188900297,16.54369026611874,13.669960342972418,7.80174107239087,10.420861858155044,7.97833959584148,28.026769295019303
19.942163450801775,16.428266282708552,13.668280774179104,7.819603951701321,10.421793952712939,7.953530292356235,28.171150465278924
20.463563725189495,16.296361010804773,13.664256492871594,7.83313209520819,10.422760101505776,7.92940690375418,28.315026276187297
21.00798448149551,16.14862043767108,13.657798874946247,7.842394542714063,10.423724531302323,7.905736368638333,28.45786060146956
21.573173529076865,15.985744047596192,13.648814722707172,7.84748749664547,10.42463109390779,7.882297328648448,28.599090812685034
22.15668499305711,15.808478811033124,13.637204555178664,7.84853431414221,10.425406264844279,7.858889717572679,28.738124165436563
22.75590081692637,15.61761147530988,13.622863325170073,7.845685453470327,10.425962669911414,7.835338114783722,28.874341859249597
23.36805627177702,15.413959947421718,13.605683387542937,7.839116185012843,10.42620150965128,7.811490606454776,29.007107450123396
23.990266384006322,15.198364844017188,13.585557230874151,7.829021539873278,10.426013516837093,7.787216959580577,29.135773435594277
24.61955153498291,14.971681819947893,13.56237807914508,7.815609609454797,10.42528034060765,7.762407332651953,29.25968424412665
25.252861341812512,14.734774761386833,13.536039563107973,7.79909468250411,10.423878570266451,7.736971971218289,29.378181421291174
25.88709556096098,14.48850976925564,13.506435998846172,7.779691713456019,10.421686663833302,7.710842235774026,29.490615964949942
26.519122376636087,14.233750134638996,13.473462757549342,7.757613187588423,10.418593042583678,7.683973083960465,29.596366564448243
27.145796971421944,13.971354217113996,13.437015626797772,7.7330677238099454,10.414502142867443,7.656346805801214,29.694861517011887
27.76398353270846,13.702179764484471,13.396989367738433,7.706259035299141,10.409335430536323,7.627976060307942,29.785600787280448
28.370579800121455,13.427093920308126,13.353276733911306,7.67738519950034,10.403030166423337,7.5989032755079,29.86816974744414
28.962539156051363,13.14698101619192,13.3057688421515,7.646638734522343,10.395545818214584,7.569195703784564,29.942238230560832
29.536887554218406,12.862741865296119,13.25435692072888,7.614207196240435,10.386881039089618,7.538938073842036,30.00755079161075
30.090737348099886,12.57528675561983,13.198935022424473,7.5802736469284895,10.377087549980233,7.5082248803517295,30.063923303168764
30.62130068822379,12.285528117831458,13.139403074872957,7.545017008870096,10.366268461355032,7.477153585503665,30.111252025047733
31.125903168261292,11.994375455562242,13.075669475615967,7.508614480927661,10.354565220028553,7.445819898467287,30.149523272028876
31.60199784615597,11.702730824631333,13.007652590184094,7.471248837705297,10.34214263453529,7.41431645786065,30.178809903570738
32.04718079992095,11.41148318702943,12.935281594742495,7.433118213681737,10.329175548229722,7.382736344349523,30.199255948487618
32.459207896771694,11.121501788775477,12.858497575414923,7.394441351725882,10.315838162429461,7.35117992499291,30.211063521494918
32.83600894877185,10.833629249915552,12.777254404203683,7.355455098467584,10.302297062046597,7.31975900158994,30.214494907127968
33.17569629322137,10.548675618385095,12.691518731640755,7.316406941310292,10.288706848822883,7.2885946060678055,30.209885285985035
33.47656925523842,10.267413857762342,12.601270061853278,7.277546859786442,10.275205958204404,7.257811395239225,30.19764596050141
33.737118721862316,9.990575373214735,12.506502372543853,7.239121051660756,10.26191257858197,7.227532204289567,30.17824735754532
33.956034587719934,9.718845254321556,12.407227495475308,7.201367024789914,10.248922640091129,7.197873365970509,30.15219265796585
34.13221351970448,9.452859285160601,12.303478637552725,7.164508402405912,10.236310361180347,7.168941011715132,30.119999494800613
34.264762769816905,9.193203826378477,12.195312307201993,7.128750135000389,10.224129810611773,7.1408287885062585,30.08219435237263
34.352999993295136,8.940416849143288,12.082808609027667,7.094275901091732,10.212416477726654,7.113616646235243,30.039308334987602
34.396451536880214,8.694988291050512,11.96607166396575,7.061247355925399,10.201189110665474,7.08737120831865,29.991865444444258
34.394850687986455,8.45735987835159,11.845233885499994,7.02980383544882,10.19045189290569,7.062150686690862,29.940368194121124
34.34813601231661,8.2279245439225,11.720465185291475,7.000062454781309,10.18019660159093,7.038014775165921,29.88528632330399
34.256449198575325,8.007024879714695,11.59198098063813,6.972119086528993,10.170404319852222,7.015032601252332,29.827047994469563
34.12013166749829,7.794951540194578,11.460044014258319,6.946049922131884,10.161046225353731,6.993282168333221,29.766034018897507
33.93971895018346,7.591943161339281,11.324961977377765,6.921913091864578,10.152083893514142,6.9728433910418826,29.70257862164272
33.715933008833076,7.398187963913716,11.187082366517492,6.899750319458318,10.143469888073463,6.953790758757769,29.636976109922205
33.44967403153081,7.213827825094657,11.046783900385712,6.879588860589763,10.135147775412447,6.936188807479152,29.569486046454674
33.14201133696085,7.038967305454908,10.904466588831665,6.861443515905077,10.127050733496144,6.920089837085699,29.5003309133359
32.79417216262484,6.873686449610545,10.760543277844345,6.845318274021757,10.11909973042012,6.905531617691789,29.429689754171854
32.407530626685535,6.718050495237651,10.61543346813035,6.831207633076664,10.111201807924429,6.892534600711346,29.357696135430217
31.983599951707507,6.572112693492765,10.469559346504102,6.819097239215268,10.103248772126024,6.881101094216449,29.284444046361113
31.524025811175648,6.435913489946314,10.323343673737659,6.808963017697693,10.095119374919989,6.871219187676802,29.209999399372336
31.03057578522349,6.309479055293271,10.177208935779142,6.800769235387348,10.086687301711832,6.862871308166617,29.134411726450082
30.505124022677055,6.192824325681214,10.031576981433561,6.794466551399909,10.077830515883948,6.8560431585729855,29.05772137500789
29.949634801073067,6.0859769934166845,9.886867556500949,6.789990650619801,10.068435722718881,6.850727929217641,28.979963316541607
29.36614816509831,5.989028418800677,9.743494187676328,6.787263155032115,10.058398359652145,6.846925348902881,28.901171917136313
28.756767505400152,5.90218087146818,9.601858372021336,6.786196966281937,10.047622314900892,6.844639646140777,28.821386135794686
28.12364745068458,5.825757621381036,9.462346678637164,6.786704733447141,10.036020101571792,6.843878681410348,28.740649964384367
27.46898129058569,5.760180613607628,9.325335690242852,6.788706472290874,10.023510959180822,6.844652285565507,28.659006804798405
26.79498825716336,5.705938467376755,9.191202974115573,6.792135400658772,10.010016618517591,6.8469684879275095,28.57649427836535
26.10390148769017,5.663555984670114,9.060336393113479,6.796943281980115,9.995458486063177,6.850829715041265,28.493148284166185
25.3979569326653,5.633567263082548,8.933138343218802,6.803103220567798,9.979759155151463,6.856230663197809,28.409017238419093
24.67938274106431,5.616493274392538,8.810026278288214,6.810606784274442,9.96284647605173,6.863156770878789,28.324177175227284
23.950389554655388,5.612823744302695,8.691428667982072,6.819456393536127,9.944657608688047,6.871582406168992,28.23874088205665
23.213163951687452,5.623001653930058,8.577776049117787,6.829656408208921,9.925144199130319,6.8814698140630135,28.15286046752853
22.469866276130666,5.647408558364731,8.469490916357373,6.841205475058247,9.90427944885598,6.8927696642915555,28.06672014225232
21.722629452805776,5.686350607190418,8.36697940590694,6.854090859881193,9.882063059800727,6.905422773886138,27.980520288361408
20.973553967190306,5.740046667824028,8.270624453010576,6.868284243320976,9.8585206738356,6.91936195765626,27.894466320870162
20.22469866925359,5.808619267732989,8.180779738484015,6.883739616887934,9.833699612702892,6.934513419061122,27.808772201782244
19.478069916057077,5.892087820481557,8.097764806384184,6.9003955230150975,9.80766395157868,6.950799103823537,27.723668519503658
18.735611283331377,5.990363669837264,8.021862056111821,6.918180953595688,9.780490606111677,6.968141563035291,27.63939828379681
17.999198104158825,6.103246955393593,7.953315341663143,6.937019944546868,9.752267112420787,6.986469830321632,27.55619922896078
17.27064225932161,6.230426360813428,7.89232871590599,6.956832459847996,9.723089731142839,7.005723714278999,27.474284084371924
16.551706448415267,6.371484052433219,7.839064397855445,6.977534810427963,9.693060213007337,7.025855221065831,27.393826192845243
15.84411832887982,6.52590624343858,7.793640852654347,6.999042128911986,9.662281926896533,7.04682705573266,27.31494965348527
15.149574229574018,6.693095298976824,7.756133336168704,7.021270992794858,9.630857020766676,7.06860997382763,27.237721895119495
14.469730990888465,6.872378117252916,7.726577561895528,7.04413982199114,9.598886098204211,7.091180993627899,27.162150457136587
13.806192147049478,7.063010071085616,7.704972907920446,7.067567454090003,9.566470898631685,7.114522065599404,27.08818887622328
13.16049404750391,7.264178201153861,7.691282111872835,7.09147161441361,9.53371734449589,7.138618456944684,27.015756048162174
12.53409366076299,7.475006280597199,7.685429495035454,7.115767738431654,9.500735440298278,7.163459229804373,26.944767764134955
11.928358115467153,7.694561010552547,7.687301035543283,7.1403674323584845,9.467636054026723,7.189042391985153,26.87517382638253
11.344556006460293,7.921858177002826,7.696746396583297,7.165176945043671,9.434527101872472,7.215381455726474,26.806994269928754
10.78385074028871,8.155869164733817,7.713580930077601,7.190097310757315,9.401510396386604,7.242507188533477,26.740344102555966
10.247295982900857,8.395528411070199,7.737586446466662,7.215026404298699,9.368678960072895,7.270463763598785,26.675434851477743
9.735832961086572,8.639741439982302,7.768510734248679,7.239860768059192,9.336115043751823,7.299302963626497,26.612559066810906
9.250289794514435,8.887394654593272,7.806066788183279,7.264495196105155,9.303889305521313,7.32907810761289,26.552075573119634
8.791382429591234,9.137372138830791,7.849933619200201,7.288820096396894,9.272061231943447,7.35983772135729,26.49440078364261
8.359714498899534,9.388581171854804,7.899759334598464,7.312717909884319,9.24068138684528,7.391620198595446,26.439999349029108
7.955774217189667,9.63997588483209,7.955164977504065,7.336059786824673,9.20979565942822,7.424450323355086,26.389367452646724
7.57993102967073,9.890567463341522,8.015747740727655,7.3587039054769825,9.179449716290621,7.458336846065654,26.343009129440443
7.232435324440154,10.139422083864384,8.081083652107216,7.380497889575911,9.149691912946196,7.4932708448863306,26.301415135496043
6.913419936691031,10.385653731657241,8.150730089073152,7.401285899243381,9.120575431192995,7.529226400849149,26.26505198471573
6.622902377402481,10.628415936933605,8.224227874489477,7.420916035259616,9.09216095566778,7.566164386209887,26.234356369754874
6.360798949527491,10.866894668678713,8.301103840460225,7.439243808234138,9.064518782761164,7.6040368456085154,26.20972556095895
6.126976279351467,11.10030392900746,8.380877279900913,7.456132468478454,9.037728518849208,7.642788815547788,26.191502147692642
5.921346284721283,11.327884044562607,8.46307124007402,7.47145266152914,9.011876531471959,7.682357353546809,26.17995813453996
5.7439581189676145,11.548901928006563,8.547222840567505,7.485082756402784,8.987052818838615,7.722669131109941,26.175281838327226
5.595032207727954,11.762652679913176,8.632886791915643,7.496912015622337,8.96334921173005,7.763637724726083,26.17756860607291
5.474935363234285,11.96846199052247,8.719633030192542,7.506848727434435,8.940859094051516,7.805161133587036,26.186818026161255
5.3841317458825015,12.165689288321337,8.807042977401293,7.514830599975797,8.919676195371137,7.847119278244049,26.20294092098348
5.3231340668488265,12.353732927466584,8.894707865894784,7.520831100148782,8.899890883097427,7.88937196038401,26.225773886461845
5.292461992876673,12.532039642289021,8.982229866803927,7.5248597598595826,8.881585698143263,7.931758888485212,26.25509493942213
5.292607123838986,12.70011702013475,9.069223867441092,7.526959815426036,8.864833064680548,7.974102230382386,26.29063890835087
5.324001785479654,12.857542218655688,9.155317177916569,7.5272051640485556,8.849696175556685,8.016210261890686,26.332112120233095
5.386990302880051,13.003962673690602,9.24014715063546,7.525695699256456,8.836230835159432,8.0578803794269,26.37919857296459
5.481803551493097,13.139092099436727,9.323359717013965,7.52255069926766,8.82448494192581,8.098900613412438,26.431553263361117
5.608537410128063,13.262705644811334,9.404612089837775,7.517901667960643,8.81449470620924,8.139049911470313,26.488788717311003
5.767135584898761,13.374634129152016,9.48357949654952,7.511886464583101,8.806279906823933,8.178098245479438,26.550461285171963
5.957380923095071,13.474757044763503,9.55996155712496,7.504645255990911,8.799841036526072,8.215807406249484,26.616060009077703
6.1789008772000695,13.562995858827927,9.633484455145751,7.4963176156543625,8.795158872724956,8.251932501188023,26.685001810374764
6.431182821116682,13.639308730198174,9.703900839509881,7.48704087707958,8.79219497382284,8.286223882923744,26.756641228182577
6.713584154619524,13.70368658273779,9.770992731901886,7.476950079252544,8.790891455102864,8.318429548016532,26.830299665398133
7.0253291887817255,13.756151413334601,9.834578031606242,7.466178126809746,8.791169662538826,8.348298162115015,26.90530129156223
7.365499384720548,13.796757511142154,9.89451480119745,7.454854089682302,8.792929891543444,8.375583636558197,26.980994670952725
7.733025695091193,13.825593377874323,9.950700515355878,7.443099337854415,8.796056050269971,8.400052925216757,27.056757208994657
8.1266857952309,13.842782529235912,10.003072589903908,7.431023742671668,8.80042591946874,8.421496170446476,27.13199510167851
8.545105423117237,13.848483875483133,10.051615320155202,7.41872444565049,8.8059216090642,8.439734507867211,27.20614515926492
8.98676339363904,13.842891444162902,10.09636673194372,7.406287025556239,8.81243457187055,8.454622276518512,27.278675411022274
9.450002033543388,13.82623299152828,10.137416381724808,7.3937869866873385,8.819864454590093,8.466045407781818,27.349082258129723
9.933043818228569,13.798768641233485,10.174895075639624,7.381290272401443,8.828114288683699,8.47391913384909,27.416885259682083
10.434009986926233,13.760789260783133,10.208963950938934,7.368852981833602,8.837085758830659,8.47818664492026,27.481622785884475
10.950934932682088,13.712613261808704,10.239808068489532,7.356520991477963,8.84667733229184,8.478819060325426,27.542852925452067
11.481775160310619,13.654582677345145,10.267634446614473,7.344329921413141,8.856784628850775,8.475815362604221,27.60015771696446
12.024418823032649,13.58706017577642,10.2926708813358,7.33230661122319,8.867301266383777,8.469201056365902,27.65314216155522
12.576703432652511,13.510428215535425,10.315161879987205,7.320473298273032,8.878120762475584,8.459026459665498,27.701427501925096
13.136441009999016,13.425092366660088,10.335361744311971,7.3088523054049075,8.889140891818336,8.445365240701436,27.744651991641685
13.701440308632916,13.331488612515336,10.353529086581906,7.297467810151936,8.900268750077457,8.428312072006353,27.782489266819272
14.269519035916689,13.230088713342417,10.369925577155836,7.286344926441623,8.911422642013466,8.407978905469422,27.814675043388526
14.838509939822584,13.121397882151282,10.384815718056464,7.275508096232261,8.9225298463497,8.384491250562622,27.841023695630046
15.406267677451842,13.005946040740572,10.398463113687475,7.264979623292498,8.933522809089135,8.357985587189226,27.86142672901724
15.970678839601295,12.884277604238116,10.411123535321467,7.254778892012897,8.944336556673607,8.328607194150095,27.875839001140026
16.52967294079712,12.756942921697764,10.423039282714804,7.244922161491913,8.954908775473102,8.29650807160238,27.884266092577352
17.081230798054854,12.624492144356921,10.434437959406207,7.235422835269187,8.965181253481196,8.261846725247647,27.886760371234015
17.62338917649968,12.487470760314695,10.445533119347056,7.226294687892031,8.975099157682415,8.22479189741651,27.88341754052359
18.154243284046665,12.34641560772414,10.456523999502155,7.217559203667048,8.984607339419645,8.18552984019674,27.874364800372813
18.671948847428762,12.201851204920755,10.467598714170236,7.2092523386032505,8.993646991407847,8.144270666985992,27.859745996790583
19.174724781280506,12.054286940781898,10.47894387419995,7.201426069591899,9.002155230699627,8.101248930562802,27.83971390086187
19.6608568548329,11.904214879783174,10.490752365783042,7.194145911857461,9.01006667858322,8.056718631235759,27.814431545652592
20.128703880644586,11.752107431750403,10.50322107998984,7.1874882855290405,9.017314617582006,8.010946445257014,27.784075637864827
20.576710186080927,11.598415903831036,10.516542228959255,7.18154036184917,9.023831110814005,7.964205763980903,27.748836168603983
21.003423787246543,11.443572375116851,10.530896484197228,7.176401918860887,9.02954830749738,7.916772431064122,27.708913045999427
21.407511274179015,11.287994387439884,10.546450572078712,7.172185265173999,9.03440218492398,7.868923687399954,27.664511154823572
21.787762921393774,11.132088193745727,10.56335706855907,7.169010185490301,9.038336044709215,7.820941092426963,27.61583624133576
22.143092777528476,10.976248059053427,10.581755594145378,7.166995712900685,9.041301033617502,7.773114048613277,27.563097088327662
22.47254094733664,10.820853431754268,10.601776219570983,7.1662522974889775,9.043254627225947,7.725739672509376,27.506512909668817
22.77527822093751,10.666266728576902,10.62354204594243,7.16687579720704,9.044159098389601,7.679118446769231,27.446318626541764
23.05061095861161,10.512833016209118,10.647167005468201,7.168943210925929,9.043980404231064,7.633546896541037,27.382765588009562
23.29798613278799,10.36088179093507,10.672751565111856,7.172509521002,9.04268770377163,7.589308772911715,27.31611799316993
23.516993726067515,10.210730033646072,10.700381407208987,7.177604707516952,9.040253938951679,7.546667073215174,27.24664611792197
23.707363968172398,10.06268408337821,10.730127762233494,7.184231117594983,9.036656729435862,7.505858658480256,27.17462516062867
23.868962185171306,9.917037802815237,10.76204462902326,7.192362555187889,9.03187896265928,7.4670919170131285,27.10034449732469
24.001783161196073,9.774068020977682,10.796162438118884,7.201945770602636,9.02591033833745,7.4305480596643445,27.024114409856846
24.10594440736085,9.63403135995384,10.832481657532849,7.212903777474707,9.018750875603963,7.396385781694016,26.946262339260933
24.181679083826186,9.49716455796558,10.870968799910752,7.2251400884722905,9.010415270798486,7.36474576157435,26.86713619047645
24.22932838064604,9.363686295366406,10.91155449944386,7.238542701764931,9.000936094909925,7.335751303168892,26.787125743957443
24.249331858820433,9.233798191656694,10.954132542254758,7.252986480029642,8.990363800349913,7.309505966513744,26.706679579316518
24.242216331178433,9.107685250495214,10.998559872260035,7.26833419415535,8.978762478654136,7.28609137086851,26.62629615604321
24.208586632690302,8.985517206765806,11.044658657188334,7.284438372030104,8.966203157893682,7.265566144123763,26.54649998003076
24.149121662255872,8.867451809505011,11.092223833147685,7.301144735505661,8.95275885780263,7.247965712130376,26.467825466822536
24.06457430078123,8.753639492546792,11.141041111290408,7.318295396346495,8.938504276675665,7.233304152562355,26.39081464961829
23.955770203745484,8.644226519423079,11.19091199584432,7.335731672950792,8.923518176221167,7.221578397341872,26.31601536525014
23.82360384066784,8.53936020391526,11.241671338829466,7.353301426176219,8.907884398633536,7.2127713149096815,26.24396819179954
23.66903375186344,8.439215070278362,11.29319020045562,7.370873738218956,8.891690386970394,7.206851130064434,26.175188486256964
23.4930771574924,8.34404843950977,11.345374210135528,7.388353209198157,8.875024228975544,7.203769640550475,26.110154496012807
23.296801878093586,8.254254685765767,11.398167994172349,7.405683767763797,8.8579705454234,7.203462479594022,26.04930282459147
23.08131544464795,8.170381249424484,11.451561454058991,7.422842325890032,8.840606187290865,7.205851332443246,25.993029463114986
22.84775393043518,8.093106591344252,11.50558832266555,7.439829503559972,8.822999243827892,7.210845964699482,25.941694150886182
22.597272857000423,8.023201923338613,11.560316363991669,7.4566620285614675,8.805213077941449,7.218344316170842,25.89562103352977
22.331041252485484,7.961491480881287,11.615835761694091,7.473367975361413,8.787310874714532,7.228230624204673,25.85509143737656
22.050238336801755,7.908816823761319,11.67225027000662,7.489984528256531,8.769355922463708,7.240372938933488,25.820332808772473
21.756050058853663,7.866007170778495,11.729670217012977,7.506556208976973,8.751408674343807,7.2546212921396664,25.791508153431
21.44966309156055,7.833856111408382,11.788204426356256,7.523131745865494,8.733523808005259,7.270806999092935,25.7687077594611
21.13225708940771,7.8131031265872775,11.847950992697939,7.539760290424447,8.715748964961083,7.2887426537539195,25.751948284518452
20.80499752863485,7.804417627445607,11.908988784356099,7.556488114502053,8.698125024472587,7.3082219057477715,25.74118214079736
20.46903020835646,7.80838470001011,11.971369710361133,7.573355625301607,8.680686006326953,7.329019363142688,25.736307062277305
20.125476779808267,7.825493099704372,12.035110966361115,7.5903945631962415,8.66345759599156,7.350892118609605,25.73716447593185
19.77543145051599,7.856125780697646,12.100188659000999,7.607625949041737,8.6464555277918,7.37358287282263,25.743531403585926
19.419963161107656,7.900553567802044,12.166534882218073,7.625059638582037,8.62968443320442,7.39682297819337,25.75511989520233
19.060126234164244,7.958934993006547,12.234038120794597,7.642695614269061,8.613136966345154,7.420334845353854,25.771590007302397
18.69697203288395,8.031323979259653,12.302546414739467,7.6605260056841775,8.596794132461028,7.443834484860737,25.792567848962438
18.3315514483613,8.117679696305002,12.371873041293101,7.678537406256548,8.580626876575199,7.467034403661176,25.817656118950065
17.96490873150936,8.217870934202566,12.441802165145335,7.696713802453535,8.56459692479364,7.489646755507823,25.8464367412989
17.598074155744836,8.331674531169847,12.512092236949963,7.715039411840557,8.548656606551504,7.511387196496269,25.878479900790463
17.232059888814483,8.45877286933844,12.582478344332145,7.733500448343238,8.532751515133738,7.531979120181442,25.913371022734164
16.86785758559016,8.598754824248203,12.65267532756524,7.752085843049067,8.516828964544997,7.551157453553324,25.950745950055207
16.506433752463924,8.751121928355811,12.722383122384612,7.770786961672211,8.500848045948826,7.568674191159217,25.990315212380466
16.148722954566786,8.915299599130085,12.791294395164345,7.789595829313246,8.484784029104414,7.5843080823594855,26.031872791300167
15.795625196500728,9.090650773272264,12.859100278850963,7.808501627563161,8.468626022626424,7.59787440053956,26.07529280111834
15.448012299684201,9.276486474205452,12.925490276354338,7.8274858489593955,8.452373220859545,7.609229022360416,26.12051398184608
15.106737433601044,9.47207065295508,12.990148641296733,7.846517265096835,8.436035873428688,7.618267346698331,26.167516756998648
14.772636740367156,9.676622104972317,13.052752301989289,7.865548473547782,8.419642784565307,7.624921149814421,26.216302170898345
14.44652039410817,9.889315938559857,13.11297159530924,7.884514763311345,8.403250057904641,7.629154318885184,26.266876640949192
14.12915938303307,10.109285541464827,13.170471544949635,7.903334509170569,8.386945252537812,7.630958121074028,26.31924104649156
13.821274050446885,10.33562662136648,13.224912907294978,7.92191096464003,8.37084673263972,7.63034723359763,26.37338112259156
13.52352619020123,10.567403483694305,13.275954790591783,7.940135726548151,8.355098931396483,7.627356712388529,26.429258026212292
13.236513807570422,10.80365722873039,13.3232604250365,7.957892301157621,8.339864195427683,7.622038811777104,26.48680370785595
12.960767374062614,11.043417190288944,13.36650595427663,7.975058349923885,8.325315748139003,7.614459585225507,26.545926953970607
12.696747005931217,11.285714730020853,13.405389371068305,7.9915079123673225,8.311635462301451,7.6046971117929525,26.606526025807394
12.44484009024636,11.529595629647108,13.439635341276047,8.007115068937448,8.299013683980068,7.592841878173983,26.668495369757792
12.205359508780711,11.77413046249952,13.468995624298925,8.021757906796452,8.287646789968393,7.5789974079011095,26.731721557103153
11.978543659157713,12.018424088184156,13.493249395987153,8.035321038673109,8.277732652792379,7.563279980629122,26.79607891211423
11.764570184288614,12.26162114820357,13.512206446756633,8.047696623447214,8.269466092745844,7.545817596133344,26.86143756924952
11.563618445395417,12.502904538852347,13.525711969726098,8.058784548984647,8.263034530444708,7.52674791742905,26.927680047167115
11.375993215483941,12.741489529382996,13.533649689257023,8.068492330912136,8.258613744878048,7.506215131897702,26.99470889930246
11.202242869205941,12.976618223237478,13.535940973878821,8.076735590127662,8.256364068653319,7.484366785934878,27.06243799364524
11.043194301845263,13.207557924497392,13.532540248607772,8.083439937088377,8.256426205363443,7.461351999495334,27.130778025952562
10.899909025028006,13.433605164153823,13.52342960580215,8.088543827894913,8.258916016312664,7.437321372930041,27.199632348156776
10.773611412051727,13.654092379542893,13.508616217565917,8.092000391916164,8.263920070150288,7.412427321623067,27.268910639278904
10.665619759811854,13.868391624355125,13.488133952075684,8.093778103395868,8.2714965239426,7.386823527624977,27.33855038828144
10.577287619350718,14.075914694330054,13.462046334323816,8.093864272421845,8.281685373094561,7.360663402441988,27.408528634648377
10.509955804584544,14.276112749073945,13.430446864939489,8.092273189912175,8.294525500078885,7.334098306133662,27.478860630879556
10.464913108199239,14.468475651240192,13.393456332380437,8.089053562364944,8.310072087177714,7.307276001799838,27.549592820896986
10.443362380209619,14.652531614197446,13.351218907068745,8.084289373528797,8.32841317548587,7.280338786567693,27.62079072862975
10.4463893193621,14.827850340676479,13.303897825570488,8.078094648123399,8.349687213700069,7.253421392451572,27.69251964007365
10.474933700147243,14.99404879770098,13.251671335524566,8.070605732896066,8.374098459599818,7.226650634665845,27.76482232323512
10.529764562508596,15.15079467908376,13.19473066561259,8.061973285614952,8.401923226918365,7.200147713366646,27.83770017105119
10.611461385403,15.297805312790096,13.133283184347881,8.052355096397378,8.433503445164073,7.174031015587878,27.911103479803653
10.720403761465393,15.434845136919867,13.067561877453509,8.041910786758978,8.469231515179388,7.148416565525407,27.984933071434295
10.856770004295955,15.561726891415587,12.997834631281926,8.03079853448011,8.50953543111659,7.123415326875792,28.05904578948774
11.020539340377448,15.678316865499491,12.92440488682168,8.01917296473135,8.554870416071443,7.099130150961248,28.133253774190205
11.211491368557972,15.784538577371151,12.847603972151605,8.007183352017387,8.605714615585631,7.075657367014127,28.207320221959858
11.429203646243518,15.880370589992566,12.767781341702173,7.9949712960925785,8.66256934633588,7.053093757891944,28.280965816802155
11.673054103898377,15.96583993560213,12.685296093060872,7.982667066041354,8.72598059656313,7.031542926257404,28.353891527808926
11.942231645411638,16.04101487138418,12.600508978847698,7.970385607624966,8.79658605855946,7.011116162930875,28.425803828258427
12.235750214933324,16.10599907480761,12.513773733516652,7.958225067027433,8.875154126089058,6.991929340122795,28.496425878329184
12.552459837893098,16.160928571948016,12.4254293456102,7.946268356515043,8.962584313884014,6.974099718562232,28.565496505046667
12.891053584541357,16.205972406502216,12.335797439839384,7.934584751255326,9.059879107650003,6.957744764222125,28.632769523936815
13.250073867270292,16.2413356363165,12.245186859892183,7.923230006081157,9.168117878883837,6.942982754859692,28.698016459972646
13.627921680129656,16.26726061502078,12.1539017448268,7.912246492940037,9.288448646564595,6.929933339806087,28.76102603030717
14.02286909756079,16.28402355867995,12.062246618344261,7.901665124946301,9.422082773187109,6.918715877803547,28.8215977380483
14.433072112484393,16.291928096959406,11.970524874898443,7.891511015240759,9.570271173296806,6.9094461206495295,28.87953280568371
14.85658304129554,16.291299827286036,11.879031757777895,7.881812356549234,9.734266296108725,6.902235934964014,28.934624870510955
15.291366466872118,16.2824829724123,11.788045943214096,7.872606620148981,9.915288274852525,6.897198347595692,28.98665175734566
15.735321342172252,16.265837973857685,11.697823528734828,7.863939706046185,10.114500605399867,6.894452504737012,29.035370204396177
16.18630490199368,16.241739594600155,11.60859518839286,7.855861104175588,10.332987677050319,6.894122366653819,29.08051394393364
16.64215152744292,16.210575174848877,11.52056503394475,7.848420076858625,10.571730050780754,6.896329895412646,29.121792972153123
17.10068483157078,16.172742207245246,11.433910502592488,7.84166382391752,10.831581921960915,6.901187250343632,29.15889316904486
17.55972613078356,16.1286464601537,11.348783511459043,7.83563567450018,11.113253702087254,6.908790348981701,29.191479909547382
18.017102483554115,16.078704079021204,11.265312104193088,7.8303721172948,11.417297580797095,6.919214617866829,29.219208697308947
18.47065567493446,16.02334673536652,11.183601541816893,7.825899483468447,11.744095780468264,6.932514654486663,29.2417383894793
18.918252433681662,15.963023182841129,11.103735887154263,7.82223136326672,12.093854894255035,6.948727511302174,29.258738327486345
19.357795947606192,15.898195517949851,11.025784989132394,7.819366545822761,12.466608572180986,6.9678753727942535,29.269886990454044
19.78723910038165,15.829335757358164,10.949822253850336,7.817286897962284,12.862227414542884,6.9899645893214055,29.274868772041273
20.20459905198062,15.756924195647983,10.875948179730974,7.815955656884062,13.28043568402009,7.0149823120505275,29.273377687720878
20.607970376566954,15.681444752237642,10.804304193572527,7.815318008133822,13.720834925010319,7.042893281022372,29.26513290360149
20.99553354663589,15.603376163733142,10.735069064667544,7.81530651733769,14.18292724382781,7.073638173996976,29.249900913357937
21.365558922300394,15.523184398712155,10.668445446362739,7.815851523401617,14.66612717901526,7.107133286077041,29.22751038596358
21.71640942715505,15.441319992364424,10.6046473639531,7.816891742995777,15.169758333280088,7.14327051784919,29.19785312908393
22.046544118825924,15.358217954238809,10.543893548570493,7.818379705521746,15.693042483466376,7.181917239494764,29.160879058860452
22.354521996876265,15.274298693978016,10.486404967703272,7.820281639514717,16.23509763326644,7.222915816856736,29.116592673810864
22.639004958625883,15.18997084217758,10.432401885012652,7.822574849222514,16.794953687766625,7.26608249740974,29.0650476519556
22.89876105261843,15.105632720127291,10.38209868266086,7.825244567551741,17.371575312476967,7.311206506489468,29.006334414370635
23.13266976720003,15.021668479193787,10.335699110888001,7.828281242116637,17.96387870675699,7.358051264225483,28.940563624339898
23.339728965842458,14.93844050069558,10.293397114396669,7.831679842045709,18.570742925787275,7.406359108274468,28.867851925443688
23.519062162967156,14.856281461321863,10.255387335740217,7.835442309675357,19.191024883018585,7.455860043537908,28.78831219518135
23.669924919897067,14.775488317258453,10.221880063441203,7.839581713701116,19.82357809502487,7.5062831027670756,28.702047529745382
23.79170788002919,14.696322319523247,10.193107460609433,7.844125265983507,20.46726186903443,7.557365448756818,28.609147312119617
23.883935012216103,14.619020067565296,10.169316436705314,7.849117015571838,21.12093443968926,7.6088552754075405,28.50968479811834
23.946259496618545,14.543813114591169,10.150755860155302,7.854623863096561,21.783439265935886,7.660510541887107,28.403719659495245
23.97846022859813,14.470944174745547,10.137665321637574,7.860742522317291,22.453594174993253,7.71209771245276,28.291309010209762
23.980438920066142,14.40067049454756,10.13026766193929,7.867600593992594,23.1301862133306,7.763391742500646,28.172525161024105
23.952218851235926,14.33325584747251,10.12876538767624,7.875351827567824,23.811974307805002,7.814176947064783,28.047474061899006
23.89395218795218,14.268958917326021,10.133339791819758,7.884170748906153,24.497702258213348,7.864248573067116,27.916306355762483
23.80593781929267,14.208025838862053,10.144152037108183,7.894247377250297,25.1861164752392,7.9134145086811625,27.77921741471052
23.688635935817416,14.150690190672865,10.161344748922302,7.905779783065497,25.875977440147327,7.961495985986214,27.636441173488038
23.54266651568144,14.0971769044441,10.185040350042994,7.918964729126195,26.5660654656471,8.00832622526373,27.488242889147493
23.368795607455404,14.047704288209344,10.215334613378078,7.9339883970990135,27.2551870115778,8.053747825233078,27.33491151935548
23.167918902227967,14.002481761624583,10.252288073477954,7.951018436650822,27.94217500250002,8.097612693522553,27.176751486615697
22.94104634192108,13.961704265719076,10.295918855005308,7.970198061496168,28.62587844968051,8.139787431869463,27.01407487595949
22.68928770127062,13.925548665429273,10.346199129171945,7.99164343067781,29.305159944524863,8.180160764850926,26.84719640986552
22.413839221005333,13.894188091590474,10.403054912636884,8.015444458037729,29.978923883542443,8.218646528448746,26.676432391165264
22.115972429299383,13.867840682510774,10.466366887705819,8.041667751267621,30.646168587614582,8.255181334538806,26.50210113123318
21.79702550651621,13.846836108810214,10.535969655845655,8.070362068607675,31.306031611192193,8.289721160129206,26.324520915233467
21.45839581849064,13.831653034955657,10.611649644823418,8.101566152818632,31.95780880275291,8.322239132828111,26.144004630034452
21.10153180332902,13.822906685445473,10.693146479573107,8.135313769121662,32.60094726579158,8.352723774818521,25.960853249763556
20.72792315404038,13.821311163367469,10.78016073239748,8.1716317709737,33.235017553402784,8.381176690386265,25.77535392296728
20.339089961414295,13.827645789527336,10.872363407338005,8.210534952066068,33.85968054186859,8.407609557591886,25.587794845987332
19.936573282338806,13.842732795529487,10.969401703857116,8.252023928486247,34.47468052749115,8.43204140853028,25.39849910043491
19.52192939829183,13.86741985639544,11.070901542987846,8.296086628142945,35.079873440146216,8.45449659296895,25.207853405953575
19.09672684292238,13.902560859291064,11.176470419891183,8.342699055296833,35.67525101555118,8.475002654517686,25.01630978553988
18.662542827099422,13.948995392005262,11.285702129630687,8.39182262006403,36.260931720761434,8.493588306140326,24.824370147548326
18.220960518697726,14.007531181346812,11.398180800743035,8.443399135370958,36.837136890807884,8.510282334506208,24.63257688757482
17.773574712691776,14.078930328969383,11.513480798753896,8.497345241780769,37.40417446509478,8.525113147093464,24.441514457389804
17.322005519485344,14.163896871644994,11.631164642103881,8.553547714507044,37.96242965769997,8.53810804080472,24.251807735801385
16.86790580080422,14.263062286783773,11.750786131206397,8.611861236034438,38.51234999026011,8.549292122937613,24.064111249056367
16.412951757913504,14.37696678343426,11.871900409113248,8.672108667790074,39.05441833470907,8.55868805365081,23.87910729545995
15.958821737853992,14.506039724757795,11.994073287548044,8.734082856814348,39.589128380238485,8.566317278748757,23.69752592137849
15.507173175607472,14.650587097188831,12.116884938832708,8.797550515754715,40.11697711108996,8.572201646194955,23.52016928441373
15.059623929623271,14.810789669951426,12.239932579357083,8.862258168861056,40.63846424422901,8.576364223923523,23.347922659162037
14.617743735074624,14.986706376646309,12.362835798527303,8.927937273023785,41.15408069101898,8.578829450235611,23.181754883231893
14.18305607759617,15.1782776871589,12.485239881575108,8.994306435630266,41.664281769332554,8.579623141741749,23.02270692337076
13.757039582493038,15.385332010440118,12.606812009081125,9.061071926326372,42.16945646714629,8.578772654363618,22.87186324263498
13.341120029075269,15.607597552141511,12.727233056981566,9.127928708600251,42.66991318500908,8.576307570810531,22.730316314557488
12.936656742252419,15.844715272233492,12.846192450826788,9.194564068332964,43.16588697865943,8.572260938125595,22.599138031889762
12.544930872630632,16.096249358745908,12.963389806132296,9.260664401030356,43.65754696807802,8.566670792344434,22.479358985126616
12.167138156852397,16.36169463087363,13.07853991435818,9.325922168222025,44.14500151828398,8.55958283116773,22.371949386404356
11.804383736775662,16.64047854883097,13.1913760352077,9.390039354755027,44.6283406862548,8.551054642259702,22.27780074860832
11.457676221277046,16.931956846187433,13.301651334273174,9.452727335049124,45.107729709616336,8.541158808950868,22.19771707621145
11.127922911786644,17.235409278329904,13.409141884604477,9.513705438986008,45.5835006795068,8.529982318090774,22.132419035116115
10.815929641756195,17.550046340985528,13.513652500491899,9.57269984098517,46.05618985087294,8.517623077613088,22.082547589487742
10.522404582426564,17.87503087617599,13.615021372103683,9.62944314506906,46.52652276457246,8.504185611811087,22.048655817944034
10.247964195990141,18.20950461432658,13.713118467338726,9.683674010608476,46.99537683982578,8.489778317793704,22.031194135242828
9.99314062182956,18.55260586621848,13.807837902274455,9.735136148349364,47.463746622016686,8.474515555830594,22.03049589550395
9.758388528607382,18.903475647291422,13.899088215400733,9.783577370217914,47.93272274812097,8.45852431177171,22.04676502355771
9.544091049942093,19.261258746067625,13.9867835344148,9.828749927417103,48.403470961358444,8.441948901637762,22.080068354084794
9.350565587128264,19.625104464493077,14.070836714672037,9.870412579121526,48.87718961993996,8.424948960722627,22.13033438845883
9.178065786077653,19.99416561572248,14.15115760259285,9.908333365602735,49.355050605560415,8.407693589423927,22.19735704922454
9.026776474251538,20.3675923578469,14.227665808233503,9.942290879043888,49.83814342995164,8.390356105112819,22.28080277882013
8.896812468783079,20.74452250370013,14.300320359370778,9.972074286874145,50.32742868784059,8.373110453895498,22.380219029415603
8.788253640858885,21.124072969111168,14.369146855478283,9.99748680377694,50.82370643795557,8.35612822134593,22.49504211503981
8.701238312778925,21.50533236545858,14.434243476349446,10.018355565477759,51.327613176027164,8.339575639661199,22.624602913958743
8.636074997314898,21.887352701034597,14.495772521974155,10.034543419366754,51.83964369616948,8.323612945059542,22.76812936062349
8.593300135766365,22.26914288887975,14.553951049570905,10.04595567488987,52.360180138986635,8.308397829014877,22.924749388220256
8.573660381435728,22.649669622977388,14.609040333752619,10.052539737417376,52.88951984910167,8.294088644052442,23.09350231009772
8.578052290251113,23.027867728832963,14.661329491350731,10.05428011886239,53.42789019277516,8.280842606035762,23.273359854746076
8.607452884661246,23.40265705996798,14.71111554699928,10.051192300592191,53.9754376413368,8.268810616315942,23.46324668888354
8.662855510664231,23.772960437403732,14.75868756702512,10.043317769614616,54.53220384456103,8.25813253157754,23.662050228380107
8.745214609327256,24.13771620890111,14.804324142457038,10.030720481094244,55.098111388416264,8.248934243098324,23.868622425972372
8.855399282192995,24.495883788909318,14.848305871351332,10.013484118798294,55.672978413246305,8.241326429593332,24.08178697298249
8.994155042286964,24.84644989456447,14.890930502962208,9.991710981710115,56.25657950554238,8.235404303144323,24.30035722697989
9.162073018744262,25.188441347314864,14.932518986331791,9.965525038142605,56.848727326904516,8.231246963850426,24.5231522056652
9.359566735802233,25.520937186140333,14.973412188689679,9.935078975688313,57.4493086083795,8.228915512715579,24.748998575405743
9.586859032455816,25.843069839946963,15.013961105763945,9.900559476586901,58.05825361482294,8.228450742813749,24.976722298971364
9.84397983810825,26.154016526569023,15.05451367165541,9.862186034507795,58.67547848236424,8.22987176563426,25.20513867911057
10.130769382997643,26.45299067771422,15.095404840319688,9.820205020669956,59.30082907842444,8.233175988702506,25.433044314762615
10.446881514262122,26.739238822903744,15.136954793766188,9.774882514265348,59.9340284183569,8.23833981318676,25.659211785888274
10.791786155367285,27.012039149596223,15.179473139204363,9.726497576719835,60.57463850161075,8.24531898216686,25.882387826785536
11.164769333074947,27.270698487970343,15.223262365783926,9.67534342887817,61.222057806415386,8.254048255235743,26.101294737044153
11.564930215598574,27.514553624345076,15.26861467349949,9.62175586989901,61.87555422160783,8.264441782322248,26.314633684760352
11.991181135106089,27.742986146009404,15.315802095384065,9.566171333503815,62.53430130061319,8.276395826200428,26.52109025692166
12.44225596498991,27.955448860805316,15.36506688384765,9.509174923625048,63.19738558169074,8.289793916881791,26.719345614037568
12.916722556363094,28.151487472213653,15.41662110433817,9.451503077084416,63.863787865237455,8.304513373907247,26.908093980891383
13.412991995803273,28.330745469567812,15.470657425941551,9.394012470369537,64.5323733790455,8.320432025920477,27.086060170066418
13.929324788377665,28.492955153785054,15.52736345083502,9.337642206841215,65.20191174729042,8.337434025914668,27.252012244909892
14.463838844361996,28.63792149918345,15.58693068223178,9.283382167544746,65.87110321478765,8.355413060920245,27.40477419854422
15.014521186637554,28.765503922564488,15.649555014936851,9.232257552942123,66.53858324692352,8.374271746558147,27.54324301806929
15.57924094531861,28.87560177772635,15.71543028331642,9.185340361178396,67.20291129572212,8.393918589605478,27.666403583591137
16.15576175840973,28.968147322779014,15.784738011355515,9.143777932617917,67.86255891099809,8.414264506494526,27.77333553521775
16.741755294828327,29.043106247216635,15.85763574090587,9.108806071990275,68.51590162828306,8.435219313815342,27.863215981055617
17.334817541466446,29.100485284677656,15.934245240184083,9.08172902362817,69.16121481282538,8.456688670256929,27.93532208721316
17.932486424238462,29.140344897104406,16.014641942599418,9.063879928253167,69.79667178563935,8.478571856736904,27.989033053332033
18.532259150906743,29.162810406118332,16.098849551116665,9.056579908916827,70.42034811045065,8.500759344680223,28.023830126148084
19.131609979596544,29.168076449671933,16.18684848252374,9.061101868030166,71.03024172735863,8.523129708705126,28.039293583030766
19.728009233505745,29.15640556917969,16.278599422731062,9.078639854806761,71.62430367549915,8.545547026275514,28.035097221603877
20.318942159712556,29.128122906846134,16.37406527310266,9.110284369748523,72.2004606820952,8.567859556166493,28.011001923105038
20.90192647109116,29.083610055318196,16.473219337627317,9.157003287947745,72.75662650991367,8.589900050365198,27.96684837108729
21.47453047075209,29.02330083209805,16.576049834610203,9.219635915045068,73.29071365948141,8.611488636309451,27.902548876855892
22.034392330454516,28.947675253596586,16.68256848046302,9.298923538353371,73.80064688614482,8.6324392555042,27.81807978294457
22.57923539701863,28.857247082203685,16.792812737192534,9.395580499200058,74.2843710153278,8.652569444507636,27.713475775804497
23.106874990999177,28.752548336944397,16.906835236312123,9.51035656124517,74.7398509426001,8.671710370099918,27.58882770445066
23.61522044877907,28.63411807150601,17.02468980971864,9.64404724521334,75.1650690031556,8.68971187573048,27.444287580296674
24.102281234413443,28.502497795311477,17.146422305792267,9.79747318827577,75.55802954143681,8.706440510453769,27.280080370521283
24.566180044724174,28.35822899979023,17.27206263814312,9.971467811492534,75.9167781617265,8.72177483290325,27.096512926289115
25.00516567511001,28.201848374581484,17.401614208194154,10.166885994748677,76.23942902556877,8.73560438913187,26.89397342048139
25.41762000092328,28.033882435824374,17.535046545451138,10.38463100834697,76.52418472554554,8.74783427186519,26.672929049241816
25.802064441543436,27.85484691307599,17.672297103420046,10.625680988072187,76.7693454241108,8.758391026888678,26.433930655438758
26.157172178435253,27.66525625464348,17.81327701079384,10.891087343269133,76.97331840534889,8.767224795557436,26.177617941575836
26.481781782968277,27.465642423060512,17.957872397670066,11.181943238959843,77.13463792643563,8.774306700355295,25.90471507668721
26.77490311340718,27.25657034024648,18.105940357842567,11.499345569744712,77.25199293764689,8.779623728706756,25.61602073238655
27.035713427185826,27.0386379500248,18.257304568070484,11.844363333016087,77.32424859844045,8.783173276317791,25.31240352740078
27.263548974097038,26.81246516033677,18.411755350719734,12.218003772120113,77.35045478936476,8.784958178154591,24.994802404905997
27.45789645196095,26.578686452728867,18.569055164491083,12.621168651950413,77.32985198802749,8.784984117290257,24.664222122927082
27.618384522686735,26.337954835530677,18.728949546967424,13.054608606096084,77.2618792134505,8.783263620330679,24.32172026555559
27.744775958745443,26.090949524658868,18.891182064861106,13.518890922739642,77.14617577822632,8.779826701508618,23.968390587372202
27.83696534281567,25.838376052285643,19.05550496718936,14.014393650397201,76.98257832956256,8.774729952950974,23.60534697121779
27.894985557035433,25.580957432190196,19.221678153887225,14.541321456211195,76.77112204639346,8.768057540064989,23.23370946697629
27.919016733447066,25.319421117461435,19.389465937002473,15.09971596382159,76.51204326332498,8.759916893483306,22.85459345041468
27.909387839155425,25.054485163558983,19.55865290436834,15.689442878163835,76.2057784145346,8.75043472310136,22.469101622198544
27.866568686707918,24.786845870152725,19.729080752295527,16.310174518244985,75.85296763960773,8.73975523559239,22.078316816561905
27.791157373888563,24.517169691626883,19.900680255515727,16.96140295768859,75.45447233132269,8.728039480461593,21.683294226808393
27.68386840967482,24.246090271941313,20.073481133638715,17.642490281271808,75.01139496830737,8.715465197577377,21.285054096066855
27.545523780968583,23.97420620621664,20.247604942052316,18.352716968443378,74.52507987140922,8.702227186024098,20.88457789455609
27.377046179838825,23.702075119073307,20.42324521233116,19.091293054628206,73.9970907782542,8.688537523022813,20.48280971396678
27.17945141719769,23.43020662593632,20.600637051186112,19.85736303151641,73.42917490605153,8.67462711667354,20.080660947861816
26.95383774975018,23.159063338351615,20.780027832277973,20.65008209927867,72.82322464622432,8.660749776265432,19.679014723540103
26.70137330601771,22.889083197852784,20.961661870048854,21.468768612614944,72.1812494451192,8.647184436700739,19.278727336546744
26.42328465350502,22.62072910132682,21.145783672794245,22.313036591096868,71.50536172977469,8.634233494771458,18.880626121952467
26.120847759852023,22.354545365836564,21.332652900489286,23.18287335904355,70.79776435482262,8.62222093978512,18.485506886785686
25.795379897815476,22.091186018355142,21.522553278932765,24.078707642405202,70.06072743731882,8.61148949869891,18.09413562988017
25.44823075850957,21.831406570823404,21.71578216867209,25.001433188812396,69.29655761367312,8.60239279610509,17.707254402070657
25.080773543769126,21.576041831565817,21.91262680679865,25.952329849316474,68.50756967074376,8.595283829755124,17.325584474274567
24.694399246113402,21.325987345374436,22.113344986536823,26.932941826102287,67.69606879369516,8.590503609069335,16.949821960469354
24.290516410372845,21.082183747169456,22.318163800891032,27.944996942831988,66.86434795248124,8.588372564845193,16.580628844347476
23.870553681873407,20.845598265211745,22.527299395121855,28.990364058130623,66.01469342335064,8.58918830716268,16.21862475208478
23.4359588265787,20.617201312356944,22.740986059783552,30.07102924661414,65.14938296672348,8.593231185173376,15.864381932993176
22.988191298825445,20.397941604901014,22.95949248971079,31.189106014088427,64.27067011926961,8.60077110927735,15.518422834650789
22.528711236519705,20.18872578312975,23.183118018561096,32.34686376085298,63.380764146108525,8.612069863260533,15.18121837614377
22.058969474836953,19.9904050501925,23.412184303497522,33.54671698709435,62.48182288150557,8.627385237273186,14.853186175181015
21.5804008279214,19.803767389150348,23.64703801942613,34.79115663930915,61.57596295309084,8.646986846369508,14.534689209277163
21.094419309319225,19.62953301023856,23.888073265686252,36.0826832954789,60.665268130573594,8.67118712302181,14.22603570457043
20.602413364447614,19.468353091401177,24.13576740982726,37.42379121112452,59.75177861955697,8.700380274103944,13.927481421163307
20.10574225464797,19.320815867708568,24.390700464930408,38.81694772529449,58.83747078155643,8.735069458831724,13.639237410156667
19.605735994614584,19.187458369251356,24.653543885800648,40.26450051575048,57.924244281221206,8.775873156759666,13.361490517441242
19.103697626192066,19.068771885715247,24.92505099950756,41.768552545235586,57.01391742305579,8.82352659199385,13.094437174722394
18.600903272023366,18.96519708739048,25.20607898819292,43.33089518955921,56.10822439197459,8.878896249434403,12.83831209891381
18.09859886255463,18.87711812662909,25.49761832738129,44.95301625696528,55.20881735939821,8.943009895185003,12.593394660486567
17.597998922958148,18.80486010728502,25.80079238457099,46.63610477825831,54.31728363239646,9.017083176165709,12.359998601365996
17.10029218563358,18.748685867886813,26.116835714341033,48.380999173595484,53.4351759808349,9.102516282000249,12.138458574982888
16.60665115580583,18.70879041293485,26.447078042857356,50.18811617224513,52.56403364216257,9.200874484205436,11.929116994843959
16.11823833166988,18.685294662245806,26.792931517374488,52.05741646709308,51.70538214905568,9.313917857246519,11.73231039109717
15.636204935945738,18.678242068849926,27.155863223761983,53.988452583106664,50.860727049446496,9.443704925994664,11.548357082130055
15.161684057324248,18.68760542372675,27.537356444893508,55.98050314761086,50.03154892539345,9.592693415201124,11.37754857364137
14.695782160387195,18.713305028555876,27.93888390371755,58.032693370824624,49.219290443774845,9.763780475499177,11.22014727343859
14.239569526847708,18.755223413110176,28.36190053717805,60.14400765358146,48.425337103724935,9.96032747184321,11.076390628476712
13.794069035549564,18.813202519564058,28.80784158325825,62.31323561417631,47.651001431805376,10.186210005563069,10.946494478360822
13.36024757826268,18.88702775250204,29.27812727707289,64.53894185509526,46.89750906577708,10.445891172084568,10.83064799743882
12.939016423066084,18.97641654640058,29.774192545490855,66.81948677195176,46.16598273239658,10.744516566924238,10.729001197671096
12.531239018819974,19.08103404352456,30.2975267150812,69.15307684486731,45.4574313400635,11.087992344734017,10.641650943324
12.137737155296827,19.200545285356043,30.849683574251372,71.5378182528723,44.77275162610299,11.482991930716851,10.568629701780573
11.759292014024295,19.334677849234655,31.432263782981764,73.97174626129389,44.112736836392344,11.936904131773247,10.509898142719164
11.396645088889196,19.483255803487303,32.046894239112255,76.45280384670839,43.47808076070958,12.45775497213177,10.465340946431809
11.05049992909947,19.646195320079073,32.69519248393093,78.97877308129789,42.869373227908696,13.054084958251893,10.434764708415738
10.721519646756635,19.823477898981075,33.378703485206266,81.54721018813889,42.28709203040941,13.734797939264453,10.417897135507701
10.410318578757325,20.01512169276812,34.09883151909785,84.15544396340643,41.73159595267447,14.509055908633707,10.414388346800656
10.117452048608369,20.22117745860234,34.85679005711309,86.80063358092599,41.203120545627115,15.386265062462543,10.42381653103652
9.843411555706437,20.441758701510505,35.65358538011962,89.47981481363564,40.70178011236487,16.376210763382694,10.44569755073736
9.588640212515013,20.677069985819124,36.49004305124723,92.18987747290515,40.22757916461869,17.489342674175774,10.47949347831027
9.353590019341075,20.927396303840684,37.36685439764769,94.92749200856333,39.780427033384065,18.7370249079551,10.524616526087653
9.13881544019429,21.193062097354304,38.28461528509694,97.68905045851555,39.36014323764329,20.131592295136308,10.580430437013295
8.945046838434887,21.474384456169275,39.243860788245726,100.47065595177165,38.96645259364782,21.686238616412584,10.64625228749345
8.773195149031256,21.771629566307336,40.24511077820494,103.26814181018511,38.59898526406788,23.414826380287554,10.721355479979184
8.624304829667022,22.084973713221686,41.28892801521655,106.07709815014503,38.25729244027082,25.331703389608286,10.804973996071324
8.499507602284309,22.41447068256918,42.375974590292685,108.89291256644171,37.94086551577804,27.45154387281052,10.896307130705525
8.400017565732613,22.760035784777113,43.507048630046384,111.7108228086293,37.64914307763073,29.789124051162876,10.99452338293619
8.32717203003701,23.12146959254307,44.68308938786994,114.52593969149905,37.381513441966455,32.358990337174895,11.098763382878198
8.282479870996191,23.49852135595312,45.905146326830156,117.33321480908943,37.137327644783376,35.17512112973012,11.208143531986229
8.26763074152072,23.89094337113257,47.17433554416349,120.12740318042323,36.91591766597036,38.25065576450808,11.321763063338688
8.284450623618687,24.29849854193593,48.49184671222066,122.90309746983749,36.71660495584228,41.59765015302524,11.438714767481471
8.334822663922235,24.72093812218842,49.85901164090031,125.65482746692429,36.53869766866891,45.22686530148776,11.558095176160048
8.420607598361908,25.15797786986658,51.27734325923978,128.37714016464338,36.381488231365914,49.14768074072098,11.679010634200896
8.543600787088785,25.609283933116025,52.748513573721496,131.0646412854833,36.24425721505426,53.36816849844717,11.800580609984095
8.705537455435021,26.074469291784503,54.27433714686123,133.71205785081423,36.12627418715726,57.895239256334435,11.921941016904242
8.908106952679221,26.553089738889863,55.85676815693198,136.31432896370873,36.0267877214538,62.734713681583465,12.042247638821797
9.1529288512182,27.04463354198086,57.49789665996897,138.86670215913398,35.945010842833625,67.8912802751218,12.160680270830325
9.441492491913516,27.548514883452608,59.19996548813797,141.3648365173057,35.88011389641897,73.36844418470777,12.276452657443409
9.775097342368285,28.064074526567097,60.96537899520411,143.80486697933756,35.83123693644618,79.16855992437252,12.38882941604493
10.154831214323671,28.590577670688447,62.796656874047514,146.18338545210597,35.79752301901411,85.29296264879589,12.49713980575381
10.581593451063354,29.127203028839006,64.6963520813577,148.49739721724671,35.77815024139998,91.74210086323907,12.600779971831127
11.056125559712886,29.673030614466796,66.66700300282088,150.7443357875628,35.772338479236325,98.51550538500287,12.69920759568714
11.57901038578558,30.227043185437388,68.71114566247715,152.9221166201111,35.77933560165629,105.61160531687902,12.791935005353862
12.15064046656172,30.788146532037654,70.83129400879366,155.0291374014448,35.79840910467965,113.02759514843213,12.878521660814908
12.771176037386136,31.3551950235972,73.02981180366963,157.06421578037967,35.82885855664789,120.75942571202366,12.958566237110704
13.440517085539687,31.92700444096069,75.30874588006053,159.0265473368219,35.87003666514619,128.80177099991653,13.031699990606139
14.158314559032096,32.50234752725816,77.66971554134226,160.91569768454983,35.921355573961826,137.14789812040897,13.09758263145248
14.92401763557445,33.07993994826361,80.11386906002672,162.73157026858598,35.98227079408101,145.7895276926209,13.155900440521602
15.736925815593361,33.65842448487141,82.64187609479782,164.4743478344632,36.052252690948905,154.7167293903186,13.206365565825664
16.596223866252227,34.236358541705016,85.25391223283992,166.144462205926,36.1307569944136,163.9178668921354,13.24871560794949
17.500988730616847,34.81221205665745,87.94960944308549,167.74260276557266,36.217200627227186,173.37961801106587,13.282712897558067
18.45016692702112,35.38437924622323,90.72799667801986,169.26969696517963,36.3109475165641,183.0870013636482,13.30814325406513
19.4425504922416,35.95119671569643,93.58746326034719,170.72682819636074,36.41130681471293,193.0233411935502,13.324814604638918
20.476777804320317,36.51096603695895,96.5257687719427,172.11516775098355,36.51754095822875,203.1702216277849,13.332556317549606
21.55134500934358,37.061997547333924,99.5401412509538,173.4359799141105,36.628878305966246,213.50750975995044,13.331220475040574
22.664609980898028,37.602678186565676,102.62745092402277,174.69063010486576,36.744523127295025,224.01347543774435,13.320685100669415
23.81479409852874,38.13152753440304,105.78432990218317,175.8805140421493,36.863656674558705,234.66496591074423,13.300856741923807
24.99997876064696,38.64720983953305,109.0071539469155,177.006929803236,36.98543291485768,245.4375689607481,13.271670159483483
26.21808583169714,39.14851145188765,112.29199117336569,178.07095835541878,37.10898006174914,256.30575822567135,13.233086452499272
27.46685112601476,39.63430957940008,115.6346489991299,179.07338278573297,37.23341039652936,267.2430419346487,13.185092628583808
28.743806641981628,40.10354761977957,119.03080340865225,180.01464485199068,37.357828477002094,278.22210351368494,13.127703693400223
30.046274361980903,40.555225899538236,122.47610740036745,180.89483535994728,37.48133495284218,289.21492374683606,13.06096565170412
31.371378190560783,40.988410561550296,125.96619688744343,181.71373143838872,37.603037192446656,300.19292599473187,12.984957274324913
32.71610355780928,41.402253565137364,129.4966064931487,182.47088901195383,37.722069368712056,311.1271775324465,12.899790117220201
34.07742041585,41.79601377053005,133.06270510834176,183.1657433706048,37.837609218403294,321.988580891888,12.805607621379306
35.452415677610155,42.16907737330985,136.65971744495033,183.79765505896714,37.9488828420241,332.7479875901691,12.702584121301701
36.838353265244855,42.52099669217817,140.28280827339654,184.36592131143715,38.05515977679327,343.37625751345354,12.590924438709196
38.2326471176333,42.85155742575053,143.9272545690159,184.86980655577267,38.155746164254225,353.84429863781816,12.470864601952316
39.63279499806611,43.16083222876687,147.58873288818825,185.30857248701219,38.24998378924894,364.1231135562367,12.342673297326488
41.036316847548726,43.44917881068606,151.26362220818757,185.6814870396862,38.33725256840561,374.18388724724605,12.206652767076024
42.440721728992,43.717199653520126,154.9492098596788,185.98786762376506,38.41696673164541,383.99811845400694,12.063138518625344
43.843508294876735,43.965694133527386,158.64373741140327,186.22717403380338,38.48856456709742,393.53779676193386,11.912498564593777
45.24217486110945,44.19561075557204,162.34624158274545,186.39906759183432,38.55150487841511,402.7756395868639,11.755132788330272
46.63421221536878,44.40800177490073,166.0562629446361,186.50339753061957,38.60527860041329,411.6853311022255,11.591471698956717
48.01708218703193,44.60398788418461,169.7735861160451,186.54017236095498,38.64942715419588,420.24168069718536,11.421973580089782
49.38820733472951,44.78474192620452,173.4980904818127,186.50954983416332,38.68355565560525,428.42073011201273,11.247120062344534
50.744987383776575,44.95148643415312,177.22968448776643,186.41182644545606,38.70733812057118,436.1998718369132,11.067410852940446
52.08483058015138,45.10549252249411,180.96826923052342,186.24742041722155,38.72051802153011,443.55794204181484,10.8833586467591
53.40517931036413,45.24809225049922,184.71367546222086,186.01686418922623,38.72290904256626,450.4752505263722,10.695485056129968
54.70352052034817,45.380714629180524,188.46555914855574,185.72084138300744,38.7143952448633,456.93361043757034,10.504316874513986
55.97738226907179,45.50491831597012,192.22328695970626,185.3602803549401,38.694927435337235,462.91641319160266,10.310381571429726
57.22433332533406,45.62240876175799,195.98580731014727,184.93642741586928,38.6645260479376,468.40868849604146,10.114203573360431
58.44201064745868,45.73505511706744,199.75148850472553,184.4508192221924,38.62330220882416,473.39709908310004,9.91630394221097
59.62816944107174,45.84489040287796,203.51796279799112,183.90518049534677,38.57148382183586,477.8699110939768,9.717202408168193
60.78071364609746,45.954069736517226,207.28202099253852,183.30131669643214,38.50942403347106,481.8169899034595,9.517418289132937
61.89768563237863,46.064804734788666,211.03955858860556,182.64103012240233,38.437587169328765,485.229813315657,9.317469651044249
62.97724373534618,46.17930535196704,214.78555818850356,181.92605823178422,38.35652452498368,488.1014863565828,9.117872244621308
64.01765583777919,46.29973929486014,218.51409399951254,181.1580641568946,38.266860066189,490.4268031435189,8.919137987733492
65.01730317146915,46.428204838244035,222.21835166651957,180.33877057912773,38.16929330371198,492.20238288141167,8.721772002757884
65.97467897120488,46.56671233904769,225.8906699716087,179.47023945798074,38.06460005180423,493.42679248990623,8.526269053940164
66.88837711119406,46.717181169388766,229.52261867360224,178.55509827519919,37.953614550741115,494.10060505503975,8.333111307167876
67.75707682051593,46.88145186506909,233.105129928608,177.5965692295966,37.83720378198626,494.22646246267317,8.142768282841157
68.57953652251554,47.06128407517104,236.62866287790106,176.5984025159458,37.716249340653555,493.8091348220512,7.955697778124082
69.3546087703469,47.25832171552785,240.083326608209,175.56484725758907,37.59163575149461,492.8554800042469,7.77234633556572
70.08127928485982,47.47404989911903,243.45892707669208,174.50065242853344,37.46423704258603,491.37431237367565,7.593150270035795
70.75871108567803,47.70976876971774,246.74499274119538,173.41101001247506,37.33490252223596,489.3762656048695,7.418538203818921
71.38626777003631,47.96657524010808,249.9308401810029,172.30141034534182,37.20445487659622,486.87366205237527,7.248932742074758
71.9635270498463,48.24534179430955,253.0056852235959,171.1774963378084,37.0737051163259,483.88036712293,7.08474896418383
72.49030689210021,48.54671174331596,255.95877472233764,170.04500630428754,36.943466091982465,480.41166203435046,6.9263901942503185
72.96668013938731,48.871128908489254,258.77953280475464,168.90980236014582,36.81454967168817,476.4841921151796,6.774242024347781
73.3929486342411,49.21888719532831,261.45772031776653,167.7779309189285,36.687755203968074,472.11598961269465,6.628665423787328
73.769599156508,49.590177365006625,263.9835652708876,166.65564541970298,36.563860799236146,467.32649279291456,6.489990180785158
74.09727463462866,49.98511411335402,266.34783548806246,165.5493327510411,36.4436204394476,462.13648326625,6.358513891277961
74.37675885691323,50.40373474126559,268.54190468147254,164.46535859586484,36.32776277378605,456.5679176117898,6.234520666279001
74.60895662600296,50.845991649632985,270.5578553855384,163.40990056798668,36.21698480851435,450.643678033653,6.118324923977556
74.79486446524135,51.31176274389825,272.3885717825516,162.38881208148175,36.111944522578945,444.38731074337943,6.010314502165287
74.93554026492073,51.80085955159728,274.02778224915454,161.4075254790505,36.01326249415192,437.82281197198944,5.9109630960015025
75.03208268723158,52.31300835310129,275.4700821993248,160.4709969991368,35.92152720560971,430.9744810036578,5.820814473003132
75.08562142294653,52.847820142154795,276.71095123803144,159.5836852637352,35.83729121348586,423.86687080472564,5.740458043291845
75.09731629710454,53.404784487592835,277.7467455245594,158.7495407774597,35.76106305593527,416.5248356315726,5.670505716790485
75.0683910353276,53.983304802191185,278.57466750413175,157.97199669855792,35.693308705294456,408.9735900393541,5.611571115473079
75.00022154101843,54.582747782676364,279.19272681696236,157.25397824895379,35.63445985551867,401.2387502910198,5.564251180420196
74.89442246593107,55.202464728208696,279.59970544668374,156.59794880124525,35.58491641579155,393.3463950920665,5.529110589702204
74.75285675624536,55.841794696796875,279.79513566584865,156.00600517415688,35.545038557370624,385.32307530937015,5.506668752829433
74.57757358897598,56.50007906462263,279.7792804699007,155.48002082110236,35.515134325201856,377.1956901624083,5.497388348180537
74.3707351484303,57.17667011407688,279.5531064084755,155.0217714823198,35.49546067241309,368.99127253219064,5.501664682447999
74.13458225228328,57.87092579738059,279.11826507590735,154.63296031736866,35.48624751054482,360.7367408859181,5.519816230888798
73.87146001697381,58.582236491645446,278.4771157147785,154.31514318320913,35.487721845706844,352.45864719578856,5.552076914215246
73.58388603170144,59.31009737763679,277.63278646130016,154.06961672188768,35.50010744234311,344.18295654191473,5.598590275806319
73.27460703922941,60.0541646571066,276.5892090222913,153.89731375766183,35.52360951551742,335.93485715589566,5.659406345472688
72.94659518369065,60.814239190761405,275.3510727589254,153.79870983596328,35.55840765052934,327.73858143114455,5.734481925613636
72.60298435965035,61.59019320616193,273.9237203923004,153.7737407069227,35.60466031171189,319.61726764059864,5.823682947388723
72.24698302576307,62.381902404833276,272.31303748519497,153.82174350311675,35.66250438764099,311.59289933844326,5.926786539390015
71.88179015486807,63.18921982622805,270.5253619547437,153.9414230179852,35.73204285325806,303.68629338873626,6.043482380782043
71.51052204540571,64.01197087841385,268.5674155358918,154.13083626643126,35.81333110248183,295.9170911003268,6.173374899863235
71.1361541542837,64.84994153138989,266.44625923088773,154.3874050435143,35.90636667977294,288.30375645331725,6.31598825472887
70.76148493214605,65.70285658450157,264.16927115799945,154.7079916609349,36.01108107896449,280.86358539021126,6.470775353597385
70.38912470423801,66.57034190588007,261.74412791618187,155.089047906641,36.12733493348228,273.61270068432486,6.637129154572819
70.02149702904617,67.45186979182496,259.1787905050806,155.5267700598363,36.25491180641962,266.56602569689045,6.8143916450512405
69.66083637425358,68.3467282663278,256.48150787731606,156.0172028539824,36.393506165353465,259.737252181536,7.001858541492813
69.30918429160182,69.25406374911503,253.66080203143412,156.55630601762087,36.542713159586114,253.1388190225114,7.1987821103440774
68.96838848033278,70.17297447840008,250.72540444464374,157.13998280979342,36.70202694063411,246.78190716539217,7.404373967209266
68.64009176636817,71.10256619492367,247.6841767069987,157.76405679763934,36.870841781192276,240.6764166260554,7.617807068724591
68.32570264445282,72.0419248896424,244.54603860908702,158.42422857844065,37.048449227995285,234.83090165881376,7.838216676964501
68.02636354435386,72.99004786746512,241.31989484921957,159.11603968330124,37.23403464561243,229.25252529496439,8.064702301984978
