HandOpen,HandClose,Wrist Flexion,Wrist Extension,Supination,Pronation,Rest
47.67944021912759,52.478918154692366,67.6489270078572,69.92860429553313,31.44774499675709,134.4620258449537,14.30072412615934
48.200459726251836,52.76818101932689,67.461791392167,70.44537885908079,31.470418910589622,133.74172643653858,14.371402031170728
48.72637258840679,53.08426417522865,67.2943030729814,70.96800327353645,31.49022082392141,133.00048940413296,14.445222700321471
49.25454579750719,53.426761373953475,67.14711663949059,71.4958659118612,31.5066794170766,132.2421984360048,14.521748084674016
49.78239991055947,53.79504267512781,67.0206453632413,72.0284095200564,31.519324486820654,131.47078214662207,14.600498206597129
50.30741737450011,54.18822393722134,66.91504583603223,72.56512306106418,31.52774781433756,130.69016064043942,14.6809692055889
50.827140552208654,54.60515690297364,66.83022667117746,73.10556350599688,31.531642741074304,129.9041695028975,14.762654466251654
51.33915980257253,55.044448100536,66.76586991080427,73.64936005971542,31.53080160286376,129.1164749354016,14.845060188996422
51.841099810105725,55.50449027217902,66.72144344797668,74.1961749477019,31.525089551920637,128.33051124575576,14.927710196191798
52.33061996637963,55.98347993176149,66.6961978846691,74.74564473589518,31.514422926530887,127.5494666466309,15.010145116507578
52.805452269500734,56.47942045759334,66.68916102284203,75.29733935133754,31.49876304157265,126.77630737339538,15.091922682227459
53.26347716666184,56.990135135685065,66.6991483956449,75.85076060542414,31.478119111317923,126.01382205388114,15.172618794849491
53.702791166803955,57.51330515373144,66.72481390418851,76.40537077397023,31.452555137624543,125.26468376156912,15.251827302865665
54.121722116307645,58.046519262850694,66.76475197795008,76.96060884845903,31.422201066590635,124.53151535944205,15.329159814416725
54.5188010522638,58.58731480468023,66.81760837543489,77.51586725189092,31.387265526036494,123.8169363776517,15.404245811262774
54.89272605516556,59.13321138047449,66.88213254767963,78.0704520884804,31.348058459877585,123.12357232742605,15.476731786786528
55.24233486886292,59.68174642205337,66.95716005050946,78.6235632859121,31.305034295366344,122.45401329489651,15.54628230861199
55.56658305581778,60.230506749403666,67.04156520809305,79.174297169873,31.258833580151084,121.81074262949993,15.612586418715921
55.86452713583245,60.777149701323324,67.13421566464086,79.72164539636624,31.21029084834661,121.19606930526001,15.675365690550342
56.13532043827211,61.319414453673396,67.23394247781363,80.26448108281589,31.160409255798644,120.61206931064798,15.734378328379224
56.37821976154776,61.85511931818943,67.33954016826011,80.80156159300641,31.110332955906706,120.06052816845092,15.789419935539513
56.592590791987405,62.3821483404007,67.44980009773555,81.33156765186689,31.061350131339314,119.54288144428043,15.840324362974274
56.77791531985161,62.898445810912165,67.5635530330195,81.85314718749406,31.01491941127108,119.06015336960601,15.886963899053367
56.933810399697094,63.40202873356339,67.67969218393394,82.36492972570136,30.972673085958895,118.61289935141228,15.929245907193533
57.06004624427853,63.89100372251493,67.79717255972196,82.86552159269621,30.93637723981087,118.20116291239918,15.967107000226724
57.15654327191823,64.36356825629525,67.91499680793758,83.35350161146802,30.907873593760662,117.82446061768486,16.000508126007134
57.22335259861179,64.81799426458274,68.0321993372097,83.82741548956962,30.88902462513714,117.48180531236831,16.02943114046371
57.260637461059645,65.25261100259158,68.14784286792077,84.28576515982452,30.881668061075118,117.17175658611563,16.053876096299188
57.26866388339241,65.66580365032367,68.26102506185669,84.72700799390564,30.887583841419758,116.89246899794968,16.073859012847755
57.2477954350783,66.05602601363228,68.37087593624213,85.14959575212968,30.90846560454943,116.64172403717818,16.089408440193434
57.198489156139026,66.42181192741972,68.47654686252389,85.55205522189681,30.945887457854457,116.41695414189769,16.10055906023621
57.121306211821185,66.76178295340362,68.57720996671671,85.93305404439722,31.001276891224673,116.21526637634771,16.107343658016333
57.01694684109343,67.07466535012324,68.67206523372005,86.29140162030609,31.075907354806752,116.0334750785977,16.10978634920529
56.88628768531582,67.3593154814996,68.76033983918246,86.62600356891475,31.17090183949511,115.86815387016344,16.10789899785588
56.7303935076724,67.61473669293628,68.84128454394983,86.935813854033,31.28723248093204,115.7156937286627,16.10168289068
56.550504453780306,67.84007718487166,68.91417791984115,87.21980726949549,31.42571716974478,115.57234325130628,16.091138610517184
56.348010255401135,68.03461380861005,68.97833473140673,87.47697814812445,31.58702445456992,115.43423140457305,16.076282696508063
56.12441336030524,68.1977364917983,69.03311836618192,87.7063536361709,31.77169417367169,115.29739130046778,16.057161946703232
55.88128446637138,68.32894678477483,69.0779628206391,87.90699631335009,31.980166317074335,115.15779535361048,16.033859009425527
55.62021659402193,68.42788019493527,69.11239202459545,88.07799092606281,32.21279666617232,115.01139419457881,16.006496273257184
55.34278521420138,68.4943522921916,69.13602006204272,88.21844388172983,32.469848697531255,114.85414922128795,15.975247318714965
55.05053092094359,68.52840142088448,69.14854262659924,88.32751621349152,32.7514726970469,114.6820672594979,15.940350887231265
54.744972030544105,68.53029489396869,69.14974915342079,88.40446593950811,33.05768344180051,114.49125012337588,15.902115608317597
54.427622530549044,68.50050097541228,69.13956748529613,88.44866262751277,33.38834049618023,114.27794861617484,15.860914033021473
54.09998803356766,68.43965258691955,69.11811112718793,88.4595681200391,33.74313805999719,114.03860173541155,15.817173376840143
53.76354489138954,68.34851637147753,69.08568627590667,88.43670185502938,34.12161420619087,113.76986333371536,15.771367997535462
53.41972324459471,68.22796409438662,69.04275593450362,88.37960844092679,34.52317662510054,113.4686299013508,15.724012405140162
53.06990170583626,68.07894498523544,68.98989518359839,88.28783458286199,34.947124472582445,113.13206378080827,15.675652600812535
52.715404056201265,67.9024660110558,68.92776250445492,88.16091586495659,35.39265784503219,112.75759382040016,15.626856556138488
52.35748574238848,67.69958498299218,68.85709110026566,87.99837472071782,35.85888645260218,112.34289325790901,15.57820357266416
51.997312050224416,67.47141377284197,68.77869780142828,87.79973129093759,36.344835574239454,111.88585011434157,15.530270581321371
51.635942384453685,67.21912286627531,68.69349277134484,87.56452357393013,36.849436274825486,111.38454313347192,15.483617252270074
51.27433044552331,66.94393735439807,68.60246397229564,87.29233063040085,37.371504989706246,110.83723233529012,15.438776352021423
50.91333312153425,66.6471205029387,68.506638484503,86.98280084265369,37.909731885998895,110.24236428489534,15.396255328688415
50.55371246222143,66.32995132748577,68.40704585305996,86.63568916954046,38.46269505245464,109.59857848243622,15.356545951824636
50.19613001446084,65.99371129616499,68.30469304650333,86.25089422386634,39.02889812018437,108.9047042878402,15.32012924624384
49.84115568033633,65.63968869290613,68.20055122195852,85.82848290554006,39.60680169381461,108.15975236025339,15.28746985313443
49.48930458045646,65.26919157937417,68.09556210684637,85.36869913182622,40.19482639804481,107.36290734490126,15.259007409440159
49.14107759689079,64.88355583419477,67.9906567452914,84.87195884935853,40.79135609090111,106.51352321984965,15.2351509333867
48.79697440182027,64.48414340394824,67.88675744003847,84.3388363340496,41.39480391859664,105.6111274125932,15.216274017778488
48.45749148853684,64.07233373930387,67.78474845754924,83.77004602960827,42.00375054075968,104.655449463012,15.2027087586115
48.12316535822214,63.64951435693447,67.68543016806075,83.16642646494337,42.617077033495654,103.6464722750261,15.194739465865467
47.79469852121987,63.2170713396221,67.5894755786307,82.52893291473757,43.23402538290503,102.58446977771783,15.192597023607789
47.473102658830726,62.7763777415314,67.4973993260228,81.85863434110777,43.854185428831464,101.47000450705067,15.196453791750287
47.15975197184972,62.328788169327666,67.40954174632193,81.15670845933727,44.477429907848624,100.30389912497088,15.206419095326321
46.85633202638849,61.87564875293857,67.32606111230757,80.42443426799544,45.1038411628854,99.08720422593085,15.222537771816873
46.564750373505994,61.41831241089636,67.24692420978803,79.66317641134718,45.733700479959985,97.82116858077306,15.244798072054854
46.287058526953345,60.9581415850747,67.17189337197338,78.87435680372444,46.36755108041453,96.50721153783905,15.273150357209959
46.025388822781764,60.496495219361584,67.10051542707096,78.05942006014419,47.00624274607743,95.14689801264888,15.307524832765512
45.78189313391456,60.03470915266582,67.03212051677517,77.21980214675325,47.65089029436388,93.74191639163334,15.347837504737807
45.55868299270627,59.5740780917334,66.96583508162378,76.35690760791616,48.30278597357314,92.29406066334552,15.393989950695868
45.35777851267471,59.11583864648451,66.90060291921752,75.47209893479051,48.96331915803637,90.80521792152403,15.445871912631505
45.18106540974086,58.66114840591073,66.83520566308796,74.56669793492799,49.633906117958404,89.27735910749064,15.50336494060818
45.030262029422296,58.211061385177906,66.768281301734,73.64199295067833,50.31592931587543,87.71252957412638,15.56634358938271
44.90690429330944,57.76650711275702,66.69834017487251,72.69924922848753,51.01070760234744,86.11283858603524,15.634674605224594
44.812346059757544,57.32828615300746,66.62377883414844,71.73972463467484,51.719497850813205,84.4804493605018,15.708212873527328
44.747764868000736,56.89709005193138,66.54290172228421,70.76468495061083,52.44348770898129,82.81757149703215,15.78679602992247
44.7141668134866,56.4735291627511,66.45395660233937,69.7754102410995,53.18375390814712,81.12645550518766,15.870248115189504
44.712385740379744,56.05814006541745,66.35517381165783,68.77319335709693,53.941211692224364,79.40938726356133,15.958397870172773
44.743070903892644,55.65137070456166,66.24480491954779,67.75933361109716,54.716595395029934,77.66868172811618,16.051100929343036
44.806664786840514,55.253568393808195,66.12116784018778,66.73512670893179,55.510491737251385,75.906677380903,16.14825231494013
44.903385107530646,54.86498521776128,65.98269640669845,65.70185893772464,56.323414309150166,74.12573208421003,16.249792641065852
45.03321944979826,54.48578828260872,65.8279843834997,64.66081477294382,57.1558685359612,72.32821923510988,16.35572647775515
45.195921859726155,54.11606407379072,65.65581470109205,63.61329105407021,58.00836679978837,70.51652345016194,16.466158348058556
45.39099958059587,53.75583316212654,65.46517013938761,62.56060009318964,58.88140568065069,68.69303773383733,16.581321227817575
45.617694824460834,53.40509629429529,65.25523095152363,61.5040563178862,59.77543568395696,66.86016654050417,16.701573621536966
45.874980857320864,53.063898098455184,65.02536184012811,60.444959542510716,60.69083798490282,65.0203348321336,16.82737183519542
46.16159465188876,52.73236456773546,64.77508612359937,59.38459442828427,61.6279104750225,63.17599510862846,16.95923306829983
46.476102467141864,52.41069305492641,64.504053025804,58.3242520560837,62.58685968364511,61.32962616017712,17.097696593615204
46.8169569646144,52.09911672772528,64.21200782358785,57.26525284758638,63.56779527824112,59.48372576187927,17.243291062455697
47.18251800258802,51.797879082875454,63.898770743084484,56.20894626024236,64.57072834246156,57.640800861251066,17.396514284872033
47.57105520954784,51.50724578848806,63.564226296595734,55.156694418085735,65.59557624254693,55.80335577375187,17.557822208174425
47.98075298855344,51.22754740115055,63.20831803538379,54.109873708407505,66.64218938199967,53.97387925999741,17.727620072158615
48.409718519755565,50.95920418120685,62.831040057672254,53.06990879102159,67.71040906318058,52.15483285486741,17.90625160795412
48.85600033817642,50.70270188815552,62.43242300766449,52.038308091248986,68.8001135477631,50.348641424749296,18.09398552935661
49.31762562651401,50.45854861519972,62.01251986925617,51.01666558819237,69.91121042713218,48.55768523063663,18.29100080110313
49.792642186626004,50.22726329420004,61.57139657750549,50.00663056169164,71.04359988894973,46.784294242572685,18.49737234398696
50.27914755042583,50.00940441435225,61.10913038659087,49.00986526512753,72.19714223206142,45.03074690350454,18.713058950016602
50.775298020071126,49.80559427792922,60.62581798225365,48.02800302144138,73.37162662714456,43.29927275652681,18.93789550995216
51.279294542616945,49.61650252339616,60.12158827831633,47.062612107520174,74.56673449383926,41.59205378329966,19.171590257630157
51.78935185501553,49.44280879383058,59.59660835935455,46.115176102741486,75.78201442329663,39.91122054223093,19.413725899963932
52.303664068498016,49.28517634666183,59.05107841306577,45.187112536944134,77.01690772738584,38.25884515636072,19.66376364390132
52.82037619056476,49.14423545036667,58.48522234351312,44.279828807152235,78.27084067655318,36.636933836724985,19.921051563010813
53.33756601537089,49.02057140857505,57.899280695356325,43.39476925887892,79.54332755562847,35.047418444114754,20.18483839838419
53.85323631658031,48.91472254116666,57.29350774564886,42.53342078799146,80.83401413757376,33.49214765947738,20.45428884151537
54.36531752211474,48.82717551359452,56.66817258108968,41.69729329172698,82.14265888182389,31.972880006682054,20.728495139849244
54.87168164127348,48.758341149944926,56.023563261147,40.887894587304274,83.46907814126934,30.491278505261704,21.006484391268497
55.370162715181806,48.708525636830615,55.35999137666729,40.10671106174974,84.81306562759816,29.048905262288844,21.287223113997012
55.85857925275034,48.6779288900305,54.677793712394525,39.355214664558304,86.1743076429124,27.64721585197356,21.56961989293202
56.334759762604826,48.66667197560886,53.977332436665705,38.63489308823083,87.55233819462399,26.287553643721363,21.852527738728053
56.79657003833867,48.67482236628967,53.25899825260597,37.94726491998702,88.94658664960835,24.97114422092972,22.134749936809072
57.24193481394117,48.702408758967714,52.52321804033041,37.29386006568236,90.35650841902914,23.699091098058545,22.415051183834958
57.66885230762607,48.7494460774991,51.77047004083657,36.67618236566074,91.78168099744643,22.472373165713464,22.69217009486767
58.0754150363323,48.81596562443009,51.00130932035893,36.09567033269117,93.22178811896448,21.291842160660593,22.964831337203695
58.459843485633286,48.90202611503089,50.216392674573,35.55365934678922,94.67655934119767,20.15822202632464,23.231763405790517
58.82051296741071,49.00770033506482,49.41648814932929,35.051353596304196,96.14573939554013,19.072122889971492,23.49172290231197
59.15595702798121,49.133049150571345,48.60247358453802,34.58981655434482,97.62907221300195,18.034078411402113,23.74351464349574
59.46485725263298,49.278097976590686,47.775339880936635,34.16997303864752,99.12625959212,17.044587200573353,23.986000428967568
59.74603316651142,49.44281948945362,46.93620169070875,33.79261223881863,100.63689104102467,16.104129983831626,24.218101232919782
59.99843488943333,49.62711123447384,46.08630377905658,33.45839142336462,102.16037505027425,15.21316351337671,24.4388010174067
60.2211383660685,49.830763185676844,45.227011771725536,33.16783561467985,103.6958919441476,14.372112489477715,24.647155437635252
60.413342167768704,50.053429446580125,44.35978729884559,32.9213239174998,105.24236006395523,13.58136931851941,24.842302729071076
60.57436163417125,50.294623753042806,43.48615786331212,32.7190661256323,106.79841919012613,12.841296860540238,25.02347180356976
60.7036164104009,50.55373829716178,42.60769161062692,32.561079676507816,108.36244466660705,12.152226095546943,25.189984752925294
60.80061316307509,50.830058381585964,41.72597915093215,32.44717506296301,109.93256963361505,11.514443436897182,25.341254546054714
60.86493450680248,51.12275770944481,40.84261974793762,32.37696106383144,111.50668987106044,10.92816954837021,25.476779865522932
60.896250753621,51.430898947858196,39.959212866214884,32.349869370534314,113.08245986528709,10.393536503062105,25.596138319380653
60.89435475388083,51.753458089946946,39.07735850352406,32.3651735341652,114.6572835138257,9.910566893556819,25.69897920615815
60.85919130047156,52.089348572582736,38.19866555997538,32.42198307917698,116.22829628563925,9.479154448396878,25.785016130857848
60.790857200089754,52.43742388848795,37.32476287535711,32.51922211413627,117.79235591706372,9.099046874814892,25.85401918210169
60.68958267482218,52.79647516104185,36.457302671547964,32.65560794576571,119.34604827887745,8.769834072218016,25.905807937059155
60.555716816650985,53.16524425464798,35.59794761548804,32.82963494018092,120.88570314190764,8.490944340936549,25.940246589225318
60.38972217565083,53.54244699099534,34.74834492937108,33.0395670326007,122.40744675306587,8.261646670249236,25.957241002998522
60.1921690650762,53.926789653888335,33.91009791518529,33.2834450429926,123.90730340015396,8.081052565330705,25.956737231074108
59.96372339437423,54.31697639710719,33.08474140251728,33.55910841448916,125.38128047627188,7.948115473671364,25.938720412835767
59.70513393274493,54.711712397685304,32.27372517108087,33.86421874239844,126.82538110675773,7.861636565650758,25.903212486973832
59.41722884726924,55.109696901352045,31.47841380848148,34.19627419584649,128.2355797073014,7.820282139715097,25.850268544950953
59.100918688553215,55.509609019655,30.70011110035044,34.55261773622247,129.60781372028137,7.822601978501997,25.77997252305768
58.757193242599186,55.91010648986174,29.94009736101907,34.93044662175511,130.93799464113076,7.867037614308908,25.692432411906033
58.38711373164352,56.309839042331966,29.19964994033604,35.32682603628984,132.22202116434258,7.951923041698025,25.58777541295381
57.991815466583404,56.707451726266996,28.48003318541376,35.73870812907068,133.4557897272538,8.075484150240023,25.4661443453815
57.572524687192185,57.101569763490346,27.782474697577097,36.16295659169308,134.63520675751676,8.235839454924056,25.32769634738626
57.13057774180754,57.49078966666789,27.108153269280965,36.596371746529066,135.75620596092463,8.431003397534203,25.172603464964745
56.667428673164565,57.87369589334966,26.45820724368131,37.03571133714941,136.8147660912264,8.658892402042508,25.001053677813644
56.184641479318785,58.24888837294908,25.83374691036827,37.47770978669353,137.80692180123555,8.917332835509976,24.813251845581867
55.683875653183804,58.61500005334564,25.23584949485978,37.91910008570386,138.72877017643705,9.204069603201635,24.609422182214754
55.16687120607098,58.97070818237295,24.665535129991554,38.35663581647993,139.57648109972243,9.516775136959604,24.38981394472152
54.63542973399263,59.31474800431981,24.123735859113495,38.787108412428104,140.3463144967805,9.85306168082419,24.15470934574408
54.09138867219818,59.64592141313211,23.611266585247446,39.207359239494735,141.03464233973082,10.210498091999337,23.90443053003252
53.53659941445307,59.96309983413496,23.128801452704067,39.614299370623506,141.63797099304617,10.586626776470483,23.63934277279223
52.97293460698027,60.26523342512096,22.67685654530661,40.00496769317992,142.15296770735037,10.978978384488627,23.359853267453467
52.40232930214732,60.55136266676709,22.255778045654683,40.376633047199036,142.57650751953258,11.385086008785853,23.06640723116778
51.82681568906458,60.820617166897996,21.865735078944276,40.72688322384748,142.9057408107244,11.802497731420603,22.759483601197395
51.24851589567353,61.072199540109864,21.506721275225686,41.053649698532666,143.13815041162496,12.228787136114711,22.43959205207419
50.66960295141322,61.30536197109632,21.17857495623392,41.35519043345971,143.27157663605647,12.661567454023528,22.10727272269102
50.09226054806697,61.519385210694914,20.881017962837547,41.63007098757539,143.30422183116667,13.09851117976816,21.76309865357812
49.518667610501396,61.713572539896816,20.613693272312272,41.877144192015486,143.23465115361708,13.537367061527958,21.40767939210263
48.951008845408374,61.88726365825434,20.376187085531058,42.09551672979464,143.06180001095547,13.975968291881292,21.041664615079906
48.39148236954668,62.039855111568905,20.168041145730758,42.284510691384405,142.78498977513252,14.41223499501418,20.66574668791431
47.84229400584294,62.17081105078641,19.988758802391086,42.443636155817984,142.40393503157875,14.844174852762931,20.280660344853338
47.3056615295388,62.279666820278315,19.837803059236325,42.57257770225798,141.91873533109356,15.269881517153605,19.887179141665303
46.783833600098035,62.3660378222548,19.714594521655822,42.67118276800159,141.32986641395325,15.687531238378046,19.486110080276283
46.27910137469755,62.4296353142218,19.61851841539202,42.73944494253706,140.6381741914769,16.095380934265116,19.078287043031516
45.7937913245433,62.47028222416192,19.54894068244829,42.777492226162074,139.84486327893973,16.49177314961809,18.66456304263483
45.33024674308712,62.487926700997676,19.505225128629398,42.785585917476034,138.95147929780097,16.87515641364927,18.24580213330349
44.890810099260854,62.482651558147325,19.486737999044465,42.76411750251531,137.95988456087784,17.24412113681035,17.822872363753962
44.4778035691921,62.45467193947834,19.492834501306728,42.71359571157502,136.8722270922229,17.59743148282383,17.396641428028815
44.09349168532197,62.40432314307463,19.522837763801228,42.634631206959945,135.69090795547038,17.93403484635716,16.967976050043074
43.74002730332454,62.332053766316115,19.57602206195159,42.52792166339284,134.41855425129523,18.253054499423055,16.537744255445393
43.41940199100899,62.23842670740757,19.651603010420978,42.394233139297775,133.05800708881196,18.553779454638715,16.10681937844265
43.13341195112623,62.1241153271724,19.748731126947245,42.23438665633296,131.61232427516185,18.835653725628053,15.676084149668181
42.88363166351928,61.989890317096304,19.866484160787408,42.04927274422691,130.0847838347947,19.09826109641123,15.246430530967721
42.67138430252095,61.83660044871146,20.00385757425049,41.83989548272968,128.47888497861595,19.34130624449685,14.818752648597622
42.49770835646869,61.665150735514686,20.15975705767627,41.60740758978882,126.79835340585365,19.56459637252235,14.393936209108368
42.36332808441881,61.47648664095388,20.33299689735062,41.35310461926775,125.04714021734696,19.768025392555018,13.972848993982971
42.26863415255763,61.27158559899882,20.522303559922634,41.078389488003026,123.22940092351892,19.95155986290946,13.556333467912099
42.2136789361607,61.051446605713416,20.726320767840274,40.78473194541219,121.34946594830485,20.115225870194294,13.145201097592155
42.19818705999999,60.81708459553534,20.943614621983663,40.47363427078073,119.41181873925692,20.259097410870595,12.740229381501065
42.221571356909756,60.569542577071985,21.1726802980575,40.14660772850912,117.42108381439593,20.383287655686075,12.342163038701594
42.28294572351467,60.30990958359341,21.41195180143612,39.805159518579984,115.38202538795544,20.487945128889084,11.951718567700121
42.381144486289344,60.03933402155919,21.659813899629313,39.4507815760775,113.29955107921363,20.57325529112279,11.569588488695784
42.51476682211713,59.759041439781356,21.91461262235382,39.084933601865444,111.17870082057107,20.63944389882865,11.196441585725664
42.68224287342142,59.47034733106952,22.174663024768904,38.70902262275629,109.02461069441988,20.686778330516052,10.832918516354836
42.881889667163485,59.17464397848083,22.438258335745683,38.32438496821776,106.84246356301294,20.715566781861646,10.479624798463613
43.111938657587174,58.87337014331913,22.70368341557416,37.93227436318064,104.63743957328344,20.726155287088453,10.13712368233554
43.37054910141725,58.567986542697824,22.969229134052938,37.53386082018158,102.41467212231419,20.718921760690122,9.805930695523319
43.65581951191584,58.259960199014714,23.233202435942676,37.130242336514904,100.17921473689132,20.694268761478753,9.486510349223774
43.96579651967963,57.95074798734716,23.493930597944807,36.72245969281084,97.93601950179062,20.65261761558733,9.17927401804701
44.29847941477646,57.64177652653965,23.749762617588537,36.31150040927707,95.68992033265323,20.59440670732106,8.884578305353921
44.6518170093631,57.33441969265083,23.99907410881038,35.89829055445864,93.4456198856775,20.520097508423564,8.602728199984552
45.02370072104058,57.029971484452496,24.24028313771569,35.4836856172732,91.20768610635709,20.430187456856434,8.333996433983236
45.41196580135134,56.729619001614694,24.47187648691494,35.06847043167722,88.98055854484784,20.325222864509676,8.078663165131628
45.814399468403394,56.43443460937694,24.692433936840974,34.65336721168381,86.76855921713685,20.20580572932892,7.837056064596152
46.228747357576005,56.1453958875833,24.900642201421324,34.23904211276835,84.57590568864066,20.072592396107115,7.609565839482259
46.65272890434744,55.86340886629638,25.095302689025203,33.826105768496305,82.40672443025291,19.92628551200438,7.396636727298837
47.084073256617955,55.5893071670617,25.27533496718931,33.415115431680256,80.26506094142387,19.767623020622864,7.198746391108586
47.52055499591686,55.32383424381297,25.43977252635117,33.00658559243489,78.15488044380677,19.597367313389938,7.016382871188345
47.96000243787535,55.06762899760214,25.587753211761726,32.60100074286875,76.08005980799214,19.41629857936666,6.850020858725962
48.400281275172986,54.82121380990186,25.718509608273468,32.19881979274219,74.04440065387529,19.22522112946449,6.700100668069194
48.83927495885733,54.58497593421937,25.83136085644282,31.80047062077261,72.05168116105156,19.02498406347357,6.567012097348817
49.27488098291605,54.35915205177278,25.925706409742325,31.406340342234003,70.10569368875554,18.81649843483764,6.451082053915113
49.705026518338876,54.14383789815489,26.00102292970355,31.01676688392393,68.21021875454522,18.600735174560256,6.35256484071273
50.127687165290006,53.93902440846182,26.056864697936316,30.632034386425442,66.36897063282535,18.378709549060947,6.2716364692305415
50.54089550092831,53.74463127248031,26.092867110345274,30.252371315226846,64.58556381444417,18.151464160010793,6.2083931028108825
50.94274347759975,53.56051510772087,26.10875080582455,29.877948699421196,62.86349117835446,17.920054779339686,6.16285053275843
51.33138763631663,53.38646252550252,26.10432251782641,29.50887882975034,61.20608998496952,17.685538425740088,6.13494322778283
51.70505924997783,53.22219069837064,26.079472218423863,29.145218877614834,59.61649987251112,17.44896114013908,6.124524484969029
52.06207208730312,53.06736981883926,26.034171683743423,28.786980819466677,58.09762160909495,17.211343674980508,6.131367830192897
52.400825113611795,52.92166320862152,25.968480262049887,28.434140688234987,56.65207431033415,16.9736668074659,6.1551688208742075
52.71981683581375,52.784755946496695,25.882555789696237,28.086642272956244,55.282151234616954,16.736859591135527,6.195548584207076
53.017680634227794,52.65635288484534,25.77666237228083,27.744402345305037,53.98977934293001,16.501791452440894,6.252059470212254
53.293217965486015,52.536164969625716,25.65117494684562,27.407323833429178,52.77648576493119,16.26926624195335,6.324189298616291
53.54540975731949,52.42390845703349,25.506586964926456,27.07531106199163,51.64337217528263,16.040019783828654,6.411361756495211
53.773415754923455,52.31932427578732,25.343518043488835,26.748282746271176,50.59110010359701,15.814729297366119,6.512934950449547
53.97657094178832,52.222209393802025,25.16271304224195,26.426185066393693,49.61989151233018,15.594036021839056,6.628200869534646
54.154375025810104,52.13243204397019,24.965030349104172,26.10899912379059,48.72954765063261,15.378565762642232,6.756386912972264
54.30647374459461,52.049914881946,24.751423586025712,25.79673538042016,47.91948289173601,15.16893449763037,6.8966599827140325
54.432635331641144,51.97461278819526,24.522925043641468,25.48942065160984,47.18875907212611,14.965741940640989,7.048133095228475
54.53272944511657,51.90650872027263,24.280637065938006,25.18708816631659,46.536109160948236,14.769559711688203,7.209873613348676
54.60671598068948,51.84561147503967,24.02572806768398,24.8897750338916,45.9599544533103,14.580917350856996,7.380911787354119
54.654639233262266,51.79194134550758,23.759425387169784,24.5975255191463,45.45841976986138,14.400289550160089,7.5602485229338985
54.676617117022886,51.74551831937502,23.483004492668798,24.310396411693354,45.029346564643944,14.228088298355837,7.746862041599371
54.67282445317318,51.706360948932826,23.19777882591094,24.028460331736646,44.670311206682356,14.064660981387926,7.93971385176753
54.64348087316084,51.67447932765176,22.90508944412842,23.75180307118959,44.3786550752281,13.910292073403705,8.137754649841717
54.58886053322902,51.64985202008835,22.606296225422646,23.480514468612114,44.15151690030739,13.765205747438186,8.339930517325673
54.50932454169822,51.63240279669506,22.302781259520376,23.214676054569058,43.9858536560772,13.62956842719799,8.545189024766316
54.40534471470666,51.621992305666225,21.99596379726356,22.95434926382323,43.8784541858711,13.503491023377178,8.752484243948128
54.27749277055373,51.61841511799701,21.687306801262263,22.6995682633449,43.82595924523046,13.387030786032861,8.960780409606713
54.12640722075689,51.621391679693666,21.378305179579286,22.450339678335446,43.82488952804957,13.280192859670395,9.169054852329905
53.95276314924748,51.63057082488881,21.070470146220217,22.206645406445652,43.871673853184696,13.182931888337722,9.376301126125355
53.757256753727134,51.645560574814056,20.76532130933891,21.968442511488,43.96267326620654,13.095153953674707,9.581534430614191
53.540607996633526,51.665972450430424,20.464379039382855,21.735659137128327,44.094201840491394,13.016718123489433,9.783800587585395
53.30358024571491,51.69145003383646,20.16914820018505,21.508189172702338,44.26254580650956,12.947437028892171,9.98218519417721
53.047002395243275,51.721672225461575,19.88109520835519,21.285887660110742,44.46398153964357,12.887077367596746,10.175818558070164
52.77177343545155,51.75634063662353,19.601625314440167,21.068568423011026,44.694794873339156,12.835361068828295,10.363876552370165
52.47884683095625,51.79516994737485,19.332065347881517,20.85601077524568,44.95130316615794,12.79196852084904,10.545580145494961
52.16920646795973,51.83789384463309,19.073651660005336,20.647986417137865,45.22987187761201,12.756548754663617,10.720195877568543
51.84384231970669,51.88427597419824,18.82752080523391,20.444301655289237,45.526918194836135,12.728737734464865,10.887037899782126
51.50372953414309,51.93411176714349,18.59470687225608,20.244828185011517,45.83890857712792,12.708174835848462,11.045469746985093
51.14981893476376,51.98722032094941,18.376149490496953,20.04950591141566,46.162359724891274,12.694509973862477,11.194904216360765
50.78305229647259,52.04343316294843,18.17270693615727,19.85833121602802,46.49384728453615,12.687408653765907,11.334802628556496
50.40440498357711,52.10259879843461,17.985168330479258,19.671354198230805,46.83002849982347,12.68656185784984,11.46467682373498
50.014933561041865,52.164609920353385,17.81426355202489,19.488692425819888,47.1676771024303,12.691693588692544,11.584095897809576
49.615802383233,52.22941987941717,17.660666116642453,19.310546995730363,47.50371322212623,12.702559701841825,11.692694347539764
49.20828453302014,52.297027558660965,17.52498392499549,19.13720465378403,47.835218784385866,12.718945982329673,11.790176026951189
48.79374191323304,52.36746794842063,17.40774044461862,18.96902446220609,48.15944615079983,12.740673865000662,11.876312934847737
48.37359245784073,52.440837136138384,17.309354708838917,18.806415922498026,48.473826032053836,12.767607514680542,11.950941238396267
47.949285575816866,52.51731751232004,17.23012810329047,18.64981531436114,48.775976614965444,12.799651149636016,12.013955735084453
47.52229738269153,52.59716753708305,17.17024014556786,18.499664336081267,49.063714501969805,12.83673678278358,12.065302954164848
47.09412826787055,52.68068686929998,17.129749897494992,18.35639273779738,49.33506343335306,12.878810152513925,12.10497390387641
46.666288921375305,52.768178606707295,17.108598951544703,18.2204087111878,49.58826930078508,12.925818255650773,12.132998380851246
46.24028212534599,52.859917410552754,17.10661251782273,18.09209916544521,49.821832586277175,12.97769813951155,12.149441975834476
45.817581766377195,52.95612451431451,17.123498793031224,17.971831704782744,50.03453609394816,13.034368152146163,12.154405030048949
45.39960248165004,53.05694302987667,17.158855593239707,17.85994834842004,50.22543886030329,13.095722595414157,12.14802276263066
44.987668031805654,53.162414427699744,17.212189956915317,17.756752362084434,50.393840837618924,13.161628061302316,12.130466586646756
44.582997922306625,53.27247843360457,17.28293834079354,17.66249500784224,50.539238086687156,13.231919481990511,12.10194538522778
44.18671625209727,53.38700608746264,17.370472136396376,17.577364537047774,50.66128127898905,13.306396598429906,12.06270466020153
43.79987777745343,53.50583335800136,17.47409024773384,17.50147672650697,50.759745091276265,13.38482277395595,12.013022970106134
43.42354424868299,53.62876473720943,17.593009870263323,17.43486853788081,50.83450882810351,13.466927550271075,11.9532067218386
43.058933612242335,53.75555583284991,17.726362037182557,17.37750060954101,50.885542811446854,13.552416723646482,11.883585165875251
42.70755724751089,53.88589300573156,17.87319234213818,17.329272268030245,50.912899642274596,13.640990983008086,11.804506834568386
42.37124277433657,54.01937687275506,18.03246478154051,17.29004154159315,50.91671155152671,13.732362281042898,11.71633705832813
42.05205626363118,54.15551478827053,18.203067793825106,17.25963621648879,50.89718836237063,13.826256688609082,11.619456785232513
41.75219563446308,54.2937213185827,18.383824001118658,17.237850786832404,50.85461103998416,13.92240697404827,11.51426435342996
41.473891575079776,54.433318592446795,18.57350467226154,17.22444092007193,50.78932344466227,14.020545866836756,11.401179204919892
41.219324228228515,54.5735418198147,18.770846527488988,17.219138507767813,50.70172649142335,14.120405289732318,11.280643426798095
40.99056054952266,54.71356976489473,18.974566448270195,17.221693963471655,50.59227715860036,14.221717508966927,11.15311982930501
40.789510224390874,54.852577971430364,19.18337076624345,17.231916152073886,50.46149492545027,14.32421215496085,11.019088954398148
40.61788731056609,54.9897794510569,19.395959889880878,17.24968023178005,50.30997543361702,14.427608994051784,10.879046177630942
40.477171276638444,55.12442692648507,19.611032757845525,17.274909501392834,50.13840645355405,14.531610770158624,10.733498363987945
40.368581147006275,55.255787714101885,19.827293427947712,17.307552276914848,49.94758410767498,14.635900189677866,10.582960189805338
40.29307658465964,55.38311800194485,20.043457039242888,17.34756714310967,49.73843035705998,14.740141866869854,10.42795104366073
40.25137411894753,55.50565149457196,20.25825262777932,17.394924627617147,49.51200142708654,14.843985881015392,10.268993649458094
40.24395359127375,55.62260140363905,20.470424448427554,17.449621414476947,49.26947226389775,14.94706923327884,10.106613960981871
40.27104778595872,55.73317010719456,20.678733718476817,17.511687579690758,49.012101271696935,15.049014647590223,9.941339771313748
40.33262607455032,55.83656061406843,20.881959765598864,17.58117388181766,48.74119340085051,15.14943226712887,9.773697869923014
40.42838064186507,55.93198513912496,21.078901248421147,17.658127171312184,48.45807342256579,15.247944285947797,9.604213294049696
40.557719424655204,56.018685000969576,21.268382864407315,17.74257035010389,48.16406887691775,15.344253701828215,9.43341204220748
40.71977187502228,56.09598390132149,21.449269420234266,17.834496982422912,47.86049318628198,15.43823475726353,9.261823563029361
40.91340960351351,56.163358355655845,21.62047944219568,17.93387649650928,47.54862254476359,15.529984579116066,9.089978658459781
41.13727626094733,56.22048375666104,21.78099152922464,18.04065564087868,47.22967598983116,15.619810435351155,8.918402711027483
41.38981875360368,56.26724246705428,21.929848580397486,18.154749165563583,46.90482091344718,15.70818203145183,8.747607907634483
41.66931031457111,56.303706653078606,22.066169123383577,18.27602827404112,46.57520817508768,15.795681248304705,8.578087348250234
41.97385999409368,56.33010737610635,22.189164061209972,18.40432212962104,46.242002962029794,15.882959077279875,8.41031079798959
42.30141479712468,56.34679596304356,22.298147194040215,18.539435719414893,45.90638340686498,15.970699643016657,8.244720507826607
42.64976280258755,56.3542026108613,22.392534578189625,18.681166426834316,45.569519622595024,16.059589510741123,8.081726635276501
43.01653999285881,56.352798662316744,22.47184080137486,18.82930423994546,45.232552524888014,16.150290203642395,7.921703114082322
43.399245660382725,56.343068861858214,22.53568058192626,18.983621457217076,44.8965752829084,16.243413564297533,7.764985204826886
43.79527114546514,56.325493311273085,22.58377324759678,19.143861613047708,44.562618744401654,16.33950072209348,7.611870923391115
44.20193563834262,56.30053062079066,22.615941406581623,19.309729494568096,44.23164390933907,16.43900497878675,7.462629828701916
44.61652079171887,56.2685950435942,22.63210101962687,19.480885664930355,43.904537347820956,16.542279360048386,7.31751889100719
45.03630226729358,56.23003145382892,22.632249284556526,19.656953755173962,43.58210440825762,16.649570188848102,7.176797353452956
45.45857210647049,56.18509747784972,22.616458456393786,19.83754039748645,43.265066481380984,16.761017419011242,7.0407325004577705
45.88064654112666,56.13395377355964,22.58487630820572,20.022251611877458,42.95406831262576,16.876663025111572,6.9095967940258305
46.29986661057229,56.07665650588511,22.53772515786219,20.210691671395086,42.64968558472386,16.99646659587813,6.783661514711273
46.71360029749311,56.01315173626891,22.47529289543986,20.402450413619448,42.35242437485805,17.120320524225452,6.663190221686673
47.11924717361863,55.9432756678177,22.397918519956313,20.59709708443074,42.06271728933114,17.2480576327664,6.5484339352205625
47.51424468974844,55.86675993641798,22.30597813499652,20.7941910310948,41.7809193149759,17.37945228927472,6.439630651828586
47.89607509704568,55.78324132992431,22.199874504161475,20.993299618212703,41.507304120882544,17.51422005193932,6.337013274382295
48.2622721539286,55.692279539796,22.080030612417307,21.19400548132203,41.24206546833111,17.652019174715928,6.240832645408845
48.61042841336655,55.59337976990859,21.946886042108964,21.395898858759427,40.985322566954395,17.79245435703657,6.151393532442144
48.93820277258734,55.486008027722136,21.800895820239536,21.598564932398283,40.737122806057265,17.93508260324938,6.069080826505298
49.243332071502046,55.369592799576395,21.642535066180404,21.8015746564055,40.497441283448865,18.07942103959297,5.9943572724892995
49.52366137993421,55.243520397689146,21.472309879371796,22.004478227103203,40.26618078215881,18.224953274466515,5.92774209144126
49.77719561203582,55.107137896883835,21.290765495988666,22.206798433746133,40.0431747628617,18.371130725223654,5.869788784898991
50.002146157167715,54.95977203735221,21.098483755826358,22.408028145156553,39.82819663046543,18.51737027980816,5.821068963625858
50.19695623095091,54.80075613874452,20.89607278218663,22.60763736378531,39.6209744291162,18.66305205213629,5.78215984254737
50.360319334016594,54.62944658566655,20.68415545435172,22.805088009488863,39.421200824959605,18.807520166088526,5.7536309886315635
50.49119602123545,54.4452218571281,20.463359503843687,22.99984922899405,39.22853153137386,18.95008863863859,5.73602972621995
50.588815363851744,54.247473839747094,20.234310713667497,23.19140434878078,39.04257763070587,19.090051653893678,5.729868138488907
50.65265797127045,54.03560155170512,19.997633491128912,23.37924534433731,38.86289880042099,19.226693635885393,5.735612561163923
50.68242959094961,53.80900941457656,19.753963382158158,23.562860216587243,38.688999772615404,19.359295095687738,5.753673832065685
50.6780364900197,53.56710957141004,19.503966632368584,23.741720930280255,38.52033079289385,19.487134287745146,5.784397420345574
50.63957499519425,53.3093297959563,19.248352228611957,23.915277488444378,38.35629168624894,19.60948694397607,5.828054766382901
50.56733407491333,53.03512990250963,18.987868580048506,24.082964212171962,38.196239142594315,19.72562678461948,5.884839345227194
50.46179072334353,52.744025338304205,18.72329103546652,24.24421821447844,38.039500360399494,19.83483210681148,5.95486888884366
50.323589065327354,52.43560995757646,18.45540858412502,24.39849844979109,37.885397510570044,19.93640685449762,6.038188331553907
50.15352301394623,52.109571976067414,18.18501319654114,24.545293931618072,37.73327764218812,20.029714620243265,6.134767947447539
49.95253996406116,51.765704265312614,17.91289553626946,24.68412092814159,37.58253457671881,20.114206176133006,6.244498754860363
49.72175341131794,51.40391231983026,17.639849840547384,24.81451662580555,37.43262032244907,20.18942559628456,6.367190187411499
49.462448340497154,51.02422481050649,17.36668168976966,24.936039367860673,37.283053372554,20.255001293975305,6.502571234461006
49.17608390941746,50.62680850375482,17.094208065850676,25.048280753007948,37.13342587979702,20.310633773425224,6.650292453538036
48.864294587350514,50.21197617520645,16.823247955150013,25.15088190321247,36.983408095518044,20.35608384067468,6.809926720990575
48.52887596006214,49.780175914561816,16.55461023829554,25.243541980701732,36.832747716015504,20.391161895514,6.980969306228461
48.17175113791851,49.33196866546636,16.28908321308626,25.326015446132203,36.68126622756045,20.415720697079816,7.1628383045903306
47.79492701314535,48.86800712577571,16.027424272069734,25.398101219574556,36.528870116233,20.429653363588134,7.354875864348818
47.400448409355135,48.38901764557084,15.770348538005612,25.459628375960374,36.37558663402375,20.432894023831807,7.556351228048841
46.99035569018534,47.895782090604,15.518518896897755,25.510442638067158,36.221595675745334,20.425416120792125,7.766467064853587
46.56665427765689,47.38912222208206,15.272539948303889,25.550398905121558,36.067228493576614,20.40722730779036,7.984370912352841
46.13130901937444,46.8698904031238,15.032955295556249,25.579366967248255,35.91294825703536,20.37836406317702,8.209171756027663
45.68626377491314,46.33896733415761,14.800245619572149,25.59725003969089,35.75933804083631,20.33888912549861,8.439956382141975
45.233459518819764,45.7972646921612,14.574826794003755,25.604002707027085,35.60708883963025,20.288895584133012,8.675799355097148
44.77482619910857,45.245727327087586,14.35704974057603,25.59963637618001,35.456970616429864,20.228518598045916,8.915766714700561
44.31225420783869,44.685332821262634,14.147202028721027,25.584213165267585,35.30979044765604,20.15794834567556,9.158916694671051
43.84756945535463,44.11709411049426,13.94550889137136,25.557834747450453,35.16635123795911,20.07743989392298,9.404299398542449
43.38253361882126,43.54206650808598,13.752132445855153,25.520630218129863,35.02741838044596,19.987319892589724,9.650957439280521
42.91886762935955,42.96134795582238,13.567169656394118,25.472744305284923,34.893696621393005,19.88798532775816,9.897929974700379
42.458269846092,42.37606526151288,13.39065004520519,25.41432673548462,34.76581786877382,19.77989221056424,10.144259486835391
42.002413544018715,41.787357463321335,13.222534931313323,25.34552435661881,34.64433928336217,19.66354281055001,10.388997062749974
41.55293617918891,41.1963741415337,13.062721384320486,25.26647701204466,34.52974578892909,19.539480120763997,10.631204225297807
41.11142670239571,40.604289280143675,12.911052324235142,25.177316020034674,34.42244929497845,19.408289208191178,10.86995465417982
40.67941026977129,40.012310570594444,12.76732880762437,25.078164413425384,34.32278842145915,19.270599895595467,11.104339335264847
40.25835018413196,39.421672285731105,12.631319728929034,24.969141195257144,34.23104087888211,19.127085942550767,11.333474303233336
39.84968185540867,38.833621151227106,12.502768870561715,24.850370967579256,34.147445323462335,18.97845792714389,11.556507533569226
39.45484935855628,38.249402777441944,12.38140131900281,24.721994789668013,34.07221365759496,18.82545010070852,11.772622992651323
39.07530749979697,37.67024616584317,12.266929815559806,24.584176548428694,34.005527745952016,18.668806296773347,11.981042161814802
38.71249236298024,37.09734553160041,12.159059605984663,24.43710322610481,33.94753066544075,18.50926988430949,12.181025501500113
38.36778176995283,36.53184200578165,12.057490098357869,24.280985164555965,33.89831693119768,18.34757609059756,12.37187870809412
38.04245714805783,35.974808551021184,11.961914442200234,24.116069150697694,33.85792278370351,18.184442586039427,12.552965191817457
37.73767309098135,35.42724198987779,11.872019734957592,23.94266614821532,33.82632230675138,18.020559487340797,12.723718098482182
37.454440183253254,34.89006656347421,11.787491000270355,23.761173347339067,33.80342992581125,17.8565838050514,12.883645065488798
37.193620952264666,34.36415079054222,11.70802467926889,23.572072936563636,33.789106506874184,17.69314033320995,13.032325962884478
36.955929948028796,33.85032879840918,11.633351395174312,23.375913821603955,33.78316888308923,17.530824404451703,13.1694070635967
36.741932568078674,33.34941259253586,11.563253120159818,23.173291576650378,33.78539772560779,17.370200304050414,13.294594386490479
36.55204976872324,32.86219438676136,11.497562690005434,22.96483333303181,33.79553828014692,17.211797261719177,13.407648200463212
36.38657018851206,32.389446981449794,11.436152388403093,22.751185694277623,33.813296937062226,17.056113432901704,13.508380024231409
36.24566429067905,31.931922110806852,11.378923249675166,22.533002722307184,33.83834033319113,16.903630803711746,13.596652490265033
36.1294194885941,31.490340373500743,11.325797681027433,22.31093497796131,33.870304438250415,16.754827636177005,13.672380289668913
36.03793215309911,31.0653714897652,11.27671409082216,22.08562122299567,33.90881356301699,16.61017702222007,13.735529231436098
35.97144460127846,30.657612178553624,11.231625668081866,21.857680943400545,33.95349374526535,16.4701385760244,13.7861127877165
35.93044979683852,30.267575661474062,11.19050525987167,21.627706592400514,34.003969676210836,16.335158607889888,13.824187960336543
35.91570360293832,29.895702809111633,11.153351863565934,21.396259269983325,34.059858550244336,16.205681807668103,13.84985143974559
35.928161024231024,29.542389031869654,11.120192331607772,21.163871221314608,34.120780888543145,16.08215990551232,13.86323562806399
35.96888579921601,29.208010691658778,11.09107639606985,20.931051833824455,34.186384619438826,15.965044819574302,13.86450499397135
36.038961478568055,28.892938316977258,11.066066977508235,20.698290023547763,34.256357325854886,15.854770867643758,13.853853678961375
36.13941145611819,28.59753323490953,11.045230318796477,20.466050114754225,34.33041558882062,15.75173676265383,13.83150373050851
36.27113438098254,28.322130845042054,11.028629933807615,20.234764521633842,34.40828623167395,15.656292375472228,13.797702900485527
36.434864596575316,28.067016405899057,11.016323639759854,20.004830465080158,34.48969469019072,15.568729931163883,13.752722234195947
36.63115560185828,27.832400860457366,11.008361129639924,19.776620212299637,34.57436253124537,15.489276862287086,13.696854451144677
36.86036705042082,27.61840205995656,11.004781355778675,19.550505693966464,34.66201032994138,15.418089252408764,13.630413785372529
37.12264516664814,27.42503122048915,11.005609407273429,19.326882479976284,34.75236000593505,15.355249059005379,13.553736855469511
37.417913101652545,27.252183996514415,11.010853312288923,19.10618030050535,34.84513045931818,15.30076697924437,13.46718297458156
37.74588752909762,27.099640742982604,11.02050234064936,18.888861525512436,34.940026207920546,15.25458655764222,13.371132341076285
38.10610817774146,26.96707967029548,11.034526443822147,18.67541181577893,35.03672785515172,15.216585514370585,13.265982094650957
38.497951187068125,26.854094573853757,11.052874216454601,18.466325451580076,35.134898338226044,15.186576613436765,13.152141756138429
38.920621085483646,26.760203214661697,11.075468222400959,18.262089661392597,35.23420819840102,15.164310514896583,13.030029711272933
39.3731428591913,26.684845167937098,11.102199501980298,18.063173543288293,35.33436171007356,15.1494786446762,12.900071265456983
39.85436460814968,26.6273812280571,11.132923442072103,17.870026342829078,35.43510412979676,15.141717183402212,12.762697183989436
40.362959815621046,26.587105157478874,11.167457823550585,17.683082311624133,35.536209989429345,15.140621441462155,12.61834141821544
40.897422185176325,26.563267822893224,11.20558421657441,17.502762855197812,35.63746450098257,15.145773784601566,12.467438462639356
41.45606124924314,26.55510213694638,11.247054159727037,17.32947574340158,35.73864901287437,15.156769010905258,12.310422339378952
42.03700571483688,26.561834983273254,11.291597954688706,17.16361869589837,35.83953641023923,15.173220812009484,12.147729216247603
42.63820791617592,26.582687114004568,11.338930597056951,17.005583617838877,35.93989378526922,15.194753485326357,11.979804008287767
43.25744340722697,26.61687923293289,11.388752448355536,16.855751527779127,36.0394835654702,15.220991370269944,11.807108325833068
43.89232068193157,26.663653729699163,11.440747662360153,16.71447902342924,36.13806134967584,15.251550555758415,11.630125146947831
44.54032876518177,26.722295526492925,11.494584491822597,16.58208891839972,36.23537693554725,15.286033019774356,11.449357984019574
45.19892008486532,26.792137856857103,11.549918778993957,16.458882737725194,36.33118065800423,15.324026408318122,11.265327154637177
45.865579364302874,26.872568060208128,11.606399467416168,16.345177456992726,36.42522949226766,15.365111563934535,11.078566424688116
46.537843252383915,26.963049480528753,11.66367690345074,16.241338041128166,36.517284197877345,15.408871798880961,10.889619979591968
47.213293791670615,27.063142640119313,11.721416524880851,16.1477785502197,36.60709542292689,15.454896264604216,10.6990384662529
47.88955791176463,27.172502739039878,11.779314799925482,16.06493762916191,36.69439000818519,15.502777234502796,10.507374588884472
48.564310548694515,27.290864819495777,11.837108572110116,15.993247692282015,36.77886775820656,15.552106000800439,10.315179612743668
49.235274897381935,27.41804110644044,11.894573678699931,15.933107213471951,36.86020415148187,15.602472063434476,10.123000785062294
49.900229707709016,27.553932711115042,11.951517108440575,15.88485849886701,36.938049501717074,15.653467610423947,9.931378584093757
50.55702764997783,27.698543400749074,12.007769010694012,15.848772674298404,37.01202352621835,15.704693813286855,9.74084291365278
51.20362131612956,27.851985072333274,12.063178228689399,15.825042784121962,37.081712139073076,15.755762542170032,9.551908087678248
51.83809171931802,28.014479470935814,12.117611181624861,15.813781943196561,37.14667335068452,15.80629147578665,9.365068806411278
52.45866107929305,28.186370880334877,12.170950373924567,15.815020306598147,37.206452170235366,15.85589649241784,9.18080161426312
53.06367611019089,28.368140202306098,12.223090179320813,15.828701752172714,37.260598699127264,15.90418551867315,8.99957323727911
53.65157520204046,28.560399023880205,12.2739316879616,15.854693875574736,37.30868554220798,15.950755060033485,8.821850310914451
54.22086225235982,28.7638748572766,12.32337796293207,15.89281700318835,37.35032421037963,15.995190503470248,8.648103275783404
54.77009533884479,28.979405511001325,12.371329043447135,15.942872279030304,37.38517916396859,16.037076021207497,8.47880297940439
55.297882179153625,29.20793069155275,12.417677923692768,16.004648207362713,37.41297638965657,16.076020541902313,8.314413392495918
55.80287352179944,29.450469555510377,12.462310392036725,16.077909104381604,37.43350744572587,16.111691211243325,8.1553832996515
56.2837560826272,29.708089357545212,12.505108173174547,16.16237890413799,37.4466326551314,16.143832550983145,8.00213837887608
56.73924784867533,29.981862820128462,12.545950930644999,16.257729905494635,37.452280638477596,16.172262701617147,7.855075232709012
57.16809273619627,30.27281159164159,12.584715147242536,16.363582855173252,37.45043789966025,16.196858269986368,7.714559024389527
57.56905270313928,30.581850742529088,12.621272519023478,16.47951607434875,37.44113015461037,16.21753916331935,7.580928713280292
57.94089920459568,30.909761973582288,12.655491107174416,16.60507333101145,37.42440534196621,16.23425526909216,7.454519501867502
58.28240663705194,31.257221692902522,12.687240761346095,16.73976694303269,37.40032411258603,16.24697431293842,7.335704045836914
58.59235017338456,31.624869908726446,12.716401124077224,16.88308104232838,37.368952929488465,16.255671829975096,7.224930298416409
58.86950892513735,32.01335649986625,12.742868074242681,17.03447468771547,37.33035630720942,16.26032398548969,7.122732398328281
59.11267631505837,32.42332523006839,12.766556197393435,17.19337970044686,37.28459282590406,16.26090204267322,7.029716123435571
59.32068771560951,32.85535939167319,12.787397142496888,17.35919319942646,37.23171539088546,16.25736693166083,6.946533888100365
59.4924728077714,33.30993016830988,12.805334908788247,17.53126857782096,37.17176927810791,16.249664693349892,6.873859826405267
59.627112925493975,33.78737395063152,12.820321410787725,17.70890936847672,37.104785173382574,16.237724501779496,6.812368310512507
59.7238723706806,34.287899759766375,12.832315729734596,17.8913725618138,37.03077057471152,16.221459258329443,6.762714673906034
59.78220317950375,34.81159739937531,12.841286112321267,18.077883988402622,36.94970667806486,16.20076843510019,6.725517117743153
59.80174260124628,35.35842667702556,12.847210785400465,18.26765710798139,36.86155700328194,16.175543131586267,6.70134072597309
59.78230600626775,35.928202193160885,12.850075752215782,18.459903321701084,36.76628411788882,16.145672052030708,6.690684867559126
59.72387007968633,36.520585496690494,12.849871242752496,18.65383156178705,36.66386211881736,16.111048002143125,6.693975390214125
59.6265527122446,37.13507828365686,12.846590376523054,18.848645536148172,36.55427648911314,16.07157510220281,6.711562676489071
59.490599497426345,37.7710202719373,12.840233037918596,19.043550382260708,36.43751811557462,16.02717333716132,6.743723763707156
59.31638034414321,38.427616430099285,12.830813388435677,19.237770565675838,36.313592815217625,15.977777458065152,6.790663468568643
59.10439089868371,39.10400123206404,12.81836464777348,19.430564733549247,36.182555377639574,15.923334532771102,6.852510678702179
58.855249073434095,39.79929728003529,12.802937073520111,19.62122684806704,36.04454494446537,15.863810040298121,6.929310969942832
58.569685212545636,40.51262391676206,12.784591897461805,19.809082999193716,35.89979895517907,15.799208119261026,7.021021039364349
58.248535642464496,41.24306517158079,12.763396796525878,19.993495707449476,35.74865045331165,15.72959686954858,7.127511982449934
57.89274885522205,41.98963034144982,12.739427156185235,20.173871408590323,35.59151919000525,15.65512236162103,7.248584147394568
57.50340269700951,42.751221299729096,12.71277500517582,20.349663883393244,35.42889893432575,15.576006726841046,7.383985558856068
57.08172221202231,43.52660387839538,12.683562944779228,20.52037889261507,35.261342629675866,15.492537125851793,7.533420933566271
56.62908640862447,44.314383153437745,12.651956856208162,20.685584686273067,35.08944813997826,15.405051315826388,7.6965481687374195
56.147015506382566,45.11299369252727,12.618172319328709,20.84491894935898,34.91385129321636,15.313922394745578,7.872970141341141
55.63713985030358,45.9207108311397,12.582472471967932,20.998082100904714,34.73523224560664,15.219544450677105,8.062228581631139
55.1011615651161,46.73566886612113,12.545159266039919,21.144820068315987,34.55432737967642,15.12232011858357,8.263800640197475
54.54081964359643,47.555869913190264,12.506563362877953,21.28490578865025,34.3719305217726,15.02265246542519,8.47709658230663
53.957864597746216,48.379181835817064,12.467034679320946,21.418125946313573,34.18887855713687,14.920945409833704,8.701459211803465
53.35404630909917,49.20333457467367,12.42693224637426,21.544276419130348,34.006032744478915,14.817612299126568,8.936168060187534
52.73111159308151,50.02593213981055,12.386614206345675,21.663164647017744,33.8242668086541,14.713083922375544,9.180448835581533
52.09080006848488,50.84448743019596,12.34642957820149,21.77461327773452,33.64445923750268,14.607808843176343,9.433483425109957
51.434831086741426,51.65645889052693,12.306710662376078,21.878465597883707,33.46748409550053,14.502251209425893,9.694416050323088
50.764887082273454,52.45926720659584,12.267765026095493,21.974595289867437,33.29420116338919,14.39689381404412,9.962355839518791
50.0826065989073,53.25029746970495,12.229869199904412,22.06291288880279,33.12544446329894,14.292242229648044,10.23637839725032
49.38959398721484,54.0269027385061,12.193266883879687,22.14336249705629,32.962007091260304,14.188821711347517,10.515528630508209
48.68743465710832,54.786414797328064,12.158173462582653,22.215916534845626,32.80462480650265,14.08716766670629,10.798825433529146
47.977698306579256,55.526157365805936,12.124787501726995,22.280581545445333,32.65395960716008,13.987814260542434,11.085266655497373
47.26192776976461,56.24345877855667,12.093304223528461,22.337419650200584,32.51058309922731,13.8912816799922,11.37383278579628
46.541624149351904,56.935677262767435,12.063921955361458,22.386572717550592,32.37496304578983,13.798062527391714,11.663489453584402
45.818235667056705,57.60025035256222,12.036839736512297,22.42826873145289,32.24745812263936,13.708610325739054,11.953189652882738
45.093150018983295,58.234747453022116,12.012251666451913,22.4628081408578,32.128325655186096,13.623331736280983,12.241876575959198
44.367688655178945,58.836894504958394,11.990341398068004,22.490546753821178,32.01774057994251,13.542581706692792,12.52848722116617
43.643103155575254,59.404570382923374,11.971277526913864,22.511884981658934,31.915811119372485,13.466660325169677,12.811956623256036
42.9205729989288,59.93579391362322,11.955211967449747,22.527257254460014,31.822581133308944,13.395810355924128,13.091223514455434
42.201204942226376,60.428713723126606,11.9422835121015,22.537115355277898,31.73802743844215,13.33021528953207,13.365237502968519
41.486036597717614,60.88160555282877,11.932625425451956,22.541909089331877,31.662061665367908,13.269999391528374,13.632965503847368
40.776042180751105,61.29287582194933,11.92637131892799,22.54206917564561,31.594537072449924,13.21523119658325,13.893395851085236
40.07214224929406,61.66106517509436,11.923653822735561,22.537993216056957,31.535259481149573,13.165929129316652,14.145541823515972
39.375245499358,61.984847303273625,11.92459685535878,22.530034588421525,31.48400170176857,13.122066373539848,14.388446816661242
38.68634827100061,62.263022524013515,11.929306463944492,22.518499242802335,31.440519909481946,13.083573598833551,14.621189968466373
38.00665307263987,62.494508099159795,11.937864330627457,22.50366501661448,31.404571879049776,13.050339935695515,14.842889220921094
37.33762926844322,62.67832927131482,11.950325892990891,22.485826846287516,31.375934919355373,13.02221322772213,15.052701426975561
36.68099207572125,62.8136152077686,11.966721610689936,22.46533790134614,31.35441401684374,12.999000144143992,15.249821807770834
36.03864158128922,62.899600745804115,11.987056333779185,22.442616523370152,31.33983315197435,12.980466091765372,15.433485193748787
35.41260308970943,62.9356332043566,12.011303910803193,22.418126264603814,31.332017624036734,12.966334882343402,15.602970188585333
34.80497318288131,62.921184911674864,12.03940020835503,22.392353214509914,31.33077937402282,12.956289073744172,15.757605367030502
34.21786161918615,62.85586820235035,12.071238927851905,22.36579108684475,31.33590625536712,12.94997388902683,15.896775923859844
33.65333062876974,62.7394446184219,12.106671318240489,22.338930172963604,31.347151774157727,12.947006745221067,16.0199301414195
33.11334070499932,62.571826395086795,12.145508582932894,22.312246519852685,31.364229502559898,12.946988525590026,16.126584882659046
32.599707827848775,62.35307651017044,12.187524868168929,22.286195407077212,31.386816601908624,12.949511232107582,16.216329200678054
32.11407030873684,62.083409598283275,12.23245896140459,22.261211023767515,31.41455989387365,12.95416433076434,16.288826432950952
31.657862025069527,61.76319030565367,12.280014549271115,22.237706071617794,31.447077585573382,12.960544400355284,16.34381496741335
31.23229257763483,61.392929445602384,12.32986015794155,22.21606617681419,31.48396152208557,12.968265145000037,16.381107311931725
30.838334982381134,60.97328207491833,12.381630105779736,22.19663950262684,31.524790428288888,12.976964270663602,16.40058922512892
30.476717087310224,60.505047565625794,12.434927265176762,22.179723741664734,31.569155155724108,12.986309696200012,16.402221828397526
30.14791342328897,59.9891685769747,12.489327437686793,22.165553277269407,31.616680141978303,12.99600576549644,16.386046450618846
29.852139551966093,59.426728581272485,12.544385014690356,22.15428880422956,31.667028104185825,13.00579620697378,16.352188425647338
29.589352461354977,58.818949983347586,12.599640304439916,22.146009894524934,31.71989689066855,13.015462592852298,16.30085636307957
29.359260349039587,58.1671931288873,12.654629746131924,22.140711674967932,31.775020518127096,13.024819121282578,16.232336568065318
29.161346378414816,57.472953713640834,12.708898725773944,22.138312185769568,31.832169920338668,13.033704870209869,16.14698487205331
28.994902572071602,56.73785794122326,12.762012774890724,22.138678153123607,31.891145294673723,13.04197627332786,16.045218449526363
28.859057372344868,55.96365723695903,12.813563590313839,22.141661051023593,31.951761570154382,13.049503825484443,15.927509186998234
28.752787446136693,55.152220480906216,12.863171250251082,22.14712022125753,32.01383203487978,13.056174319395502,15.794378505526428
28.67492459462869,54.30552025026782,12.910485302904782,22.15492269426788,32.077152661681055,13.061894700659508,15.646392450373897
28.624174432102084,53.425616685587684,12.955185440976935,22.164930492720536,32.14148826234401,13.066592554358776,15.484157025316689
28.599146941421328,52.51464875212271,12.996981537833049,22.17698824628562,32.20656151215564,13.070212055791934,15.308314563752322
28.598380885999404,51.57483816881378,13.035614496777688,22.190918617368038,32.27204904059632,13.0727073607513,15.119540548144217
28.620350710333746,50.60850059424998,13.070861787574792,22.206527326900336,32.33759086785365,13.074036454007691,14.918539849707209
28.663467131191805,49.61805341445798,13.102547626192193,22.223609452863624,32.40281007615094,13.07415859432955,14.70604237424543
28.726091775109964,48.60601202560228,13.130549815104292,22.24194787647521,32.46732806166213,13.073035824569418,14.482798116570349
28.806570024734214,47.57497645783684,13.15479745765765,22.261306048146906,32.530764690744505,13.070634523083545,14.249571640229242
28.90326101674985,46.52761882738828,13.175264057765418,22.281425348288966,32.59272791444084,13.066923033892733,14.007137500162951
29.014545056455955,45.46667461912134,13.191962617439428,22.302035212778435,32.65280799326456,13.061866140471984,13.75627810425242
29.138814264690463,44.39492922275317,13.204942952812488,22.32287256834528,32.71058604880067,13.055419642213364,13.497783026308035
29.27446261502568,43.31519485072144,13.214287851250955,22.343698094964314,32.76565147499378,13.04752675025298,13.232448532234724
29.419881126161382,42.230282990796965,13.22010642013295,22.3643037690251,32.817617207307315,13.03811591585136,12.961077657955832
29.573455113270914,41.14297941443354,13.222525639165372,22.38451556514711,32.86612605869163,13.027099076255993,12.684480292288542
29.733560939316423,40.05602460846327,13.221681795081583,22.40419145160028,32.910846794648535,13.014371108969197,12.403472005398655
29.89856317010898,38.972098780837534,13.217713179889795,22.423211221773578,32.95146676738238,12.999814502638749,12.118871836274598
30.066813545097588,37.893809869769285,13.210755029484991,22.441462671506116,32.98769283400871,12.983310792061573,11.83149909853461
30.236652344999072,36.82368404666669,13.200936111508502,22.458835462291464,33.019267132422826,12.964752441475898,11.542168190976447
30.406413128768232,35.7641581286209,13.18837591293684,22.475226242647953,33.04599304652522,12.94404932398563,11.251682386618738
30.574430892160112,34.717573940815726,13.17318278161079,22.490544470124565,33.06775664392826,12.92113377298391,10.96083080337177
30.73905064343477,33.68617598827587,13.155452889951057,22.504708810843606,33.084530684461285,12.895972205608734,10.670391931698045
30.898634063751235,32.67211064924149,13.135268546769309,22.517636451320254,33.09636302393476,12.868582539832843,10.381140666559299
31.051567113501825,31.677420805968218,13.112695886590098,22.529231563556422,33.10336066754122,12.839045816602564,10.093851138169265
31.196271164584573,30.704032799203322,13.08778386966716,22.53937479700893,33.10567590838188,12.80750387799812,9.809292374279467
31.331213461971377,29.75374293137778,13.060565200906764,22.54791504999476,33.10349301151477,12.774147530948468,9.528220597004966
31.45491294854752,28.828219050068295,13.031058275557813,22.554673579301458,33.097014326152326,12.739202918931385,9.251371732929922
31.56594614269589,27.92902257706989,12.999270486164836,22.559479255368156,33.08645278852516,12.702918795147943,8.979455166871018
31.662958916206968,27.05763399273851,12.96520327113457,22.562231029359523,33.07203490003354,12.665554861851586,8.713148888476084
31.74468002539992,26.215463627496653,12.928857012978899,22.562944995691176,33.05400162127087,12.627371709338357,8.45309559309328
31.80992768399968,25.403847147063004,12.890233698370595,22.56175528601814,33.03259534565834,12.588622907367215,8.199899502490066
31.857609357711773,24.624032281979186,12.849336891821338,22.558884174188794,33.0080411542807,12.549550211398492,7.954123705856325
31.886724114568924,23.87716151099854,12.806169653220177,22.554609550791298,32.980535800815055,12.510382618219799,7.7162873118259085
31.89637374199004,23.1642543670983,12.760732171100594,22.549244299921778,32.95024580082019,12.47133641875397,7.486862517556587
31.88577737354544,22.486191579121392,12.7130205653909,22.543129363099894,32.91730868325465,12.432611602331956,7.266273176508365
31.85427902598434,21.84370243883615,12.6630259962584,22.53663128458172,32.881833716009126,12.394385087612626,7.054901003642688
31.80134438454366,21.237357301321147,12.610732828905384,22.53013515786225,32.84390316575105,12.356807729786613,6.853111049771324
31.726551079197062,20.667566426809753,12.556116342365211,22.52403296213847,32.80357643591844,12.32001152276618,6.661294867604189
31.629577662072755,20.134582794987757,12.499141068464668,22.518709676255114,32.76089677421641,12.284123515868524,6.479904810575253
31.510195975259947,19.63850458964434,12.439760232211116,22.51452741492114,32.715899161660694,12.249274671196522,6.309458182485003
31.368270543224313,19.17927872511331,12.377915847370883,22.511808924035154,32.668621197922675,12.215598872538168,6.1505195822214604
31.203762817440023,18.756713689991546,12.313540445000086,22.510823316966633,32.61911975034361,12.18322972505556,6.0036796265505386
31.016733125732195,18.37050408843951,12.24656661493417,22.511774892315472,32.56748832803368,12.152301152108986,5.869536991336291
30.80733723570712,18.020254512545606,12.176948032704294,22.514797573114745,32.51386508065567,12.12294741813691,5.7486822210916655
30.57582079140558,17.705489396511602,12.104681473330198,22.519966961937858,32.45842902284954,12.095297667823612,5.6416817574368965
30.322513646527003,17.425651875267718,12.029815516860474,22.527334732220428,32.401391403567025,12.069468253486361,5.549062966778301
30.04782547882094,17.180104197681445,11.95244547195297,22.536963187334926,32.34299310496454,12.04555814099931,5.471301074657284
29.75225028917099,16.968133143964504,11.872703722110492,22.548936577956933,32.283512514038875,12.02364746585814,5.408807917340296
29.436382436148815,16.78895396674689,11.79075133810931,22.563351595092335,32.22327362354464,12.00379653650631,5.361922555229127
29.10092949119245,16.641712601263915,11.706771650000183,22.580299413218363,32.16264436418408,11.986044020599358,5.330903899588072
28.74670832091442,16.525496525455036,11.620966721061606,22.599845765099484,32.10202747170319,11.970405194960673,5.315925180711521
28.374629305746016,16.43935648496196,11.533558525703233,22.62201304301474,32.041848077589194,11.956871656402997,5.317071447117517
27.985679289122405,16.382323755085764,11.444794184097505,22.646766994753918,31.982537723998842,11.945412119748479,5.334341153504552
27.5809067972596,16.353411036877144,11.354954374004565,22.674010585735797,31.92451423483034,11.935973301928048,5.367648974578141
27.161409412733292,16.35160232324455,11.264363727308693,22.703592418599516,31.8681614080477,11.928481156380947,5.416827081094406
26.72832480262392,16.375840497783045,11.173396233724358,22.73533181674895,31.813815039983364,11.922841989940794,5.481626983861548
26.2828269729398,16.425015679075404,11.082470310671923,22.76904409816804,31.761755760515193,11.918941728994527,5.561723790683541
25.826124472756934,16.49795650111774,10.992040468812613,22.80454796445678,31.712203814183262,11.916644256646888,5.656720141590329
25.359454590633383,16.59342770177019,10.902594273927088,22.841657759040174,31.665313955982594,11.915793517409586,5.766147325223049
24.88407268357015,16.710136527639563,10.814651325105237,22.88017395146538,31.621172086626686,11.916220986745165,5.88946524610161
24.401242260566043,16.846745372974475,10.728756528310894,22.919876835840405,31.57979330435992,11.917754696655248,6.026063441718361
23.91223081026729,17.001881925424886,10.64546769980571,22.960520561636727,31.541118112196045,11.92023330254287,6.175262897265689
23.41830911813362,17.174141763949418,10.5653419738434,23.001825959474512,31.50500605528116,11.923536047505122,6.336318574680018
22.9207475684535,17.362087405366665,10.4889230782362,23.04347418702884,31.47123153192393,11.92762159576089,6.508424064441412
22.420807429199428,17.564248482074266,10.416732649045219,23.085104059858075,31.439485888890864,11.932549357253533,6.690718521778446
21.919730999412618,17.779124147208393,10.349272981114417,23.126319132471068,31.409384847571538,11.938471270793434,6.882293943160507
21.418733951664656,18.005189102701152,10.287041491513774,23.166713897279738,31.38047943445291,11.945606826685104,7.0822015912227405
20.918999580573377,18.240904589535763,10.230542548084893,23.20591513749274,31.352270341528858,11.954217635095118,7.28945836571776
20.42167415255799,18.484731678729087,10.180285395234211,23.243613630096327,31.324223820953257,11.964589873303334,7.503054173479204
19.927865663327005,18.735141658729734,10.136773716676887,23.27956785534347,31.295783869402264,11.97702655062338,7.721960184954374
19.438649314152475,18.99062120904957,10.10049557845965,23.313588116024633,31.26637715432862,11.991846130907483,7.945136102602273
18.95507673267107,19.24967367697536,10.071913989465212,23.345520744635653,31.235414410287063,12.009381462063399,8.171535057897687
18.478179937243816,19.510819496268972,10.051456107828662,23.375244680847405,31.20229966624005,12.02997447616468,8.400108700826655
18.008966444953998,19.77260040845852,10.039502364400017,23.402678175354193,31.166457234568707,12.053966559066886,8.629815107024998
17.548412631150242,20.033589727698505,10.036376691322102,23.42778155192243,31.12737081454083,12.081689468029648,8.859626984019647
17.097462127435865,20.292404672643652,10.042337329748692,23.45054718610031,31.084615897261227,12.113461319873112,9.088536889096181
16.657025098685438,20.547716250476395,10.057569143399677,23.47098299007749,31.037872096872096,12.14958732832365,9.315559531176643
16.227971066066196,20.798255612341094,10.08218020856365,23.489099407986277,30.98691945535285,12.190362776455045,9.53973221321811
15.811116320453001,21.042817271519144,10.116202976334925,23.50490235197193,30.931637470853044,12.236074505131622,9.760114716259524
15.407211628893611,21.280262803081946,10.15959610766933,23.518388549411572,30.872016683277103,12.286996284116947,9.975790644209196
15.016933138870879,21.50952918093992,10.212243788466655,23.529539571182998,30.808166912750305,12.343377920171585,10.185871442681153
14.640876640307994,21.729640446321074,10.273953893871104,23.538314641255205,30.740308948672343,12.405432711155349,10.389502404499812
14.279564872997193,21.939718317558608,10.344459528768052,23.54464585925643,30.668759926388866,12.473326646561548,10.585868704152078
13.933501661379267,22.138986809292504,10.42342960898059,23.548437273660074,30.593921141674137,12.54716994635966,10.774200126008376
13.603290465479013,22.32676774824903,10.510489143365191,23.549565122003052,30.51626525866507,12.627010578677865,10.953774631851331
13.289759886515904,22.50247036045652,10.605239544605269,23.547879328942788,30.43632396758675,12.712829707849767,11.123921037307243
12.994016617358167,22.665581290286152,10.707269024381507,23.543211184976855,30.354679798875445,12.804543066337931,11.284020081312718
12.717416604301205,22.81565794109653,10.816153111991584,23.535386637118552,30.2719588241433,12.902016545804623,11.43350414263046
12.46149629536088,22.952324598116803,10.93144997354068,23.524235543989736,30.188818994507773,13.005093841954823,11.571861111642916
12.227897717834201,23.075273010089898,11.052694042795048,23.50959246908648,30.105932359023075,13.113616950699342,11.698650348941541
12.018305770911388,23.184269796160184,11.179390326595872,23.491299356635572,30.023962024384875,13.227426660101564,11.813527218997743
11.834405544606742,23.27916530130933,11.311010496868358,23.469222012127922,29.943538333665227,13.34635063876555,11.91625947796809
11.677851512901512,23.359896089980232,11.446990838620557,23.443274418244535,29.86523944841756,13.4701905688158,12.006726055979849
11.550233513508674,23.42648388068982,11.586731539986166,23.413431634121938,29.789576177805596,13.598711878835335,12.084905581689618
11.453035150446185,23.4790400371016,11.729596883557637,23.379723742875317,29.716977757280603,13.73163610220814,12.150866387751034
11.38759166681443,23.517774553223454,11.874916370963538,23.342221015765283,29.647779136178553,13.86863652153446,12.204764037462274
11.355054860168126,23.54299666062669,12.021987196710215,23.30102052355024,29.582214146166987,14.009338262666242,12.246843449955882
11.356369243867457,23.555100896065465,12.170078926884317,23.25623549332649,29.520416399389017,14.153321950218258,12.277436653338787
11.392259197160802,23.55454673327067,12.318440225510075,23.207985319086628,29.462425904888647,14.300128374225578,12.296952848194948
11.463220764034274,23.54184082838012,12.466305291878616,23.15638546553797,29.408198978413466,14.44926382481776,12.30586647634737
11.569512185610991,23.517525850038954,12.612897695462115,23.101538011385568,29.357618317156046,14.600206340082288,12.30470785276498
11.711144202599167,23.482176319048676,12.757431794690287,23.043523981887144,29.31049986370999,14.752410203330877,12.294054898359583
11.887873976903169,23.43639545479694,12.89911355884114,22.982398115334167,29.2665980888652,14.905306409026487,12.274523413967772
12.099205049262746,23.380805948567787,13.037142965130249,22.918186417075493,29.225615243861153,15.058300558339953,12.246755872020154
12.34439615468907,23.31603563697119,13.170722013718347,22.85088620180412,29.18721903147085,15.210771592352382,12.211410503797888
12.622479685920808,23.242703578695618,13.29907209049135,22.78046657673698,29.151073644451333,15.362073996417854,12.1691525446846
12.932283092363368,23.161408868034727,13.421456224048315,22.706868229147098,29.116879812563404,15.511544207530001,12.120648179665377
13.272444692707346,23.072721887333724,13.537195450664388,22.630005664942765,29.08440155131218,15.658510927863606,12.06656023550605
13.641422859809998,22.97717826309117,13.645674902815394,22.549773878892353,29.05346743792906,15.802307667482033,12.007544678971037
14.037502448377138,22.87527556530483,13.746344611244075,22.46605421918864,29.023960485514195,15.942282575020753,11.944247277941846
14.458802081611562,22.7674734142848,13.83872094407659,22.378721406740514,28.99581007191944,16.077801562417843,11.877298954033487
14.903286992070898,22.654199641628637,13.922389440826594,22.287674662665463,28.96898685903049,16.20824834904505,11.807309196461171
15.368792359369413,22.53586103076084,13.997005433231248,22.192901591977964,28.943500874350317,16.333029310886722,11.734859231165187
15.853054473021482,22.412851114031255,14.062291440079374,22.09453519788977,28.919402973596025,16.451584198339408,11.660498370317367
16.353738031932483,22.28555136849854,14.11803611681658,21.9928645741395,28.896783572778713,16.563394403878466,11.58474912640139
16.868452117368648,22.1543286280219,14.164096871905539,21.888309179024144,28.87576046403463,16.66798256667911,11.508121964963221
17.394760309212003,22.019531759239015,14.20040076373964,21.78138494278081,28.856456689296497,16.764907261800765,11.431128444241164
17.930195462168104,21.881492135727274,14.226939580880334,21.672674345405316,28.838978809282846,16.85376445161433,11.354282356383349
18.472281535804314,21.740531541350602,14.24376114837931,21.562801124374868,28.82340550960774,16.93420956863738,11.2780926561227
19.018553590731507,21.59697125502365,14.250959279366647,21.4524071154004,28.809787716466623,17.005997071151704,11.203055888577296
19.566568440455335,21.451133938984626,14.248663161701131,21.342130122274575,28.79815230991095,17.069009763209483,11.129649283880642
20.113908379534905,21.303340283501946,14.23702779199981,21.232584356953875,28.78850426368107,17.123258664337435,11.058323708309151
20.658182792113205,21.15390561876924,14.216227033868867,21.124343736114444,28.780829515102965,17.168862502546613,10.989497310666142
21.197030109692598,21.0031360136393,14.186449463639237,21.01792701815325,28.775097181097237,17.206022065223802,10.92355013799522
21.728125372907467,20.851322129778186,14.147896684229693,20.913785290312813,28.77125594121691,17.23499600273985,10.860819392805015
22.249202311983186,20.698732849755977,14.100783532297259,20.81229368460341,28.76922737431324,17.25608062227478,10.801595871631335
22.75808948824032,20.545613586100323,14.045338726984717,20.713748655909086,28.768904405858596,17.269594743675633,10.746121874505997
23.252743585611295,20.39219332857466,13.981804766167645,20.618369650502697,28.770156425138197,17.27586946870997,10.694589445946116
23.73126538667685,20.2386973493128,13.910437326751374,20.526303453950568,28.772836264546587,17.275241581470986,10.64713828644875
24.191900318496245,20.085355627520276,13.831505063865821,20.437633831808824,28.776784941872336,17.268048392113098,10.603855106268586
24.633031470595032,19.932403282553697,13.745290125326173,20.352398491506005,28.781831668615332,17.254623571365734,10.564776926721267
25.053171131560106,19.780081363489334,13.65208881313308,20.270605532882364,28.78779096259149,17.235295623135634,10.529898270175925
25.450955810004068,19.6286434459074,13.55221124739698,20.19223919894372,28.79446559388657,17.210388398591316,10.499179001416652
25.825146429411873,19.47836086696661,13.44597911627635,20.117256004260906,28.801658859930527,17.180220691301916,10.472549212387847
26.174630105173808,19.329520090171847,13.333722153896368,20.045584209297363,28.80918546163365,17.145105086128886,10.449910015031401
26.498419049144186,19.182415424155813,13.21577497910491,19.977143118322992,28.816872104129803,17.105348112242616,10.43113236774679
26.795649240672617,19.037340900896545,13.092476029951758,19.911881867993888,28.82455538002608,17.061249560245457,10.416058144221987
27.06558778499177,18.89458078872815,12.964172272903363,19.8498110531291,28.832087890151797,17.013098015168243,10.404505485154246
27.30765065406864,18.754398618346045,12.83123108949629,19.791005938402176,28.8393521815621,16.961164874759724,10.396275414183764
27.521418851734577,18.617027369067664,12.694052491092302,19.73558864794978,28.846275234720366,16.905699957565638,10.39115587211347
27.70664108355204,18.48266459063211,12.553074562651892,19.683705236627052,28.852837405728,16.8469278276089,10.388922916169854
27.863223048164564,18.351473157927355,12.408772141207923,19.63550627151901,28.859073104255426,16.78504343860102,10.38934055237437
27.991210865582417,18.223583118921248,12.261651156335187,19.59113643380748,28.865063570769383,16.72020827672402,10.392160153974666
28.09077692350285,18.09909091092956,12.112240696406202,19.55073410226022,28.870923552226902,16.652549314023535,10.3971244477171
28.162211887995525,17.978059587008623,11.961084262653428,19.514435026584778,28.876784550992333,16.582161528005848,10.403990060806416
28.20591851942916,17.860526254892438,11.80873034484171,19.48237385153821,28.882780428279496,16.50911223722507,10.412574812279392
28.222403570317834,17.746514749645186,11.655722991287492,19.454679791287454,28.889042894852338,16.43344605874999,10.422805600059386
28.212269908373635,17.636043696907915,11.502593744617666,19.43146476348457,28.895707312862513,16.35519125654385,10.434735200108246
28.17620790704493,17.52912566354704,11.349855370083011,19.412807490905774,28.90291840520783,16.274366452622917,10.44852715823498
28.114981686638192,17.425765279584763,11.19799729368508,19.39873977334898,28.910825754015463,16.19098535967532,10.46442913107667
28.029411172764263,17.32596562753346,11.047482522041898,19.389236856664667,28.919571712781185,16.10506009134675,10.482748138894255
27.920356267046138,17.229740854426403,10.898745158623948,19.38420989176532,28.92928200956328,16.016604473455086,10.503830856602004
27.788709055670445,17.137125226077845,10.7521885988011,19.383502067330273,28.940064277214066,15.925638242975095,10.528047092431832
27.63539428593596,17.04817516217927,10.608186762337795,19.386896551310347,28.952013769901125,15.832196085268706,10.555772603111034
27.461371108766578,16.962968047560363,10.467088879162493,19.394137381281226,28.965220382697655,15.73634314584412,10.587370569924584
27.267629805088074,16.881598945312497,10.329223985045322,19.404948008570454,28.979766999710623,15.638188877726861,10.62317474839548
27.055186040890163,16.804174682541912,10.194902262529517,19.419034767794017,28.995717551549035,15.537890565768867,10.663475927633908
26.825079919311687,16.730807231211184,10.064413517123873,19.436080448406756,29.013103540807887,15.435647221970752,10.708511232001696
26.57838080077239,16.661606619364303,9.938023350334124,19.455743747995328,29.03191446753007,15.331689063439304,10.758456523145924
26.316190722081153,16.596673851898846,9.815969293963894,19.47768292718201,29.052093416405864,15.226265968569594,10.813422067928851
26.039641125151416,16.536100329898808,9.698460654142668,19.501603940035114,29.073539154828314,15.119635953334116,10.873450608526102
25.749884250513272,16.479977187354187,9.585681809811346,19.52730069031648,29.096111529098078,15.01205466522621,10.938518986149678
25.448083112499756,16.428404694179825,9.47779503805451,19.554659757173738,29.119635984632563,14.90376737879428,11.00854500665568
25.135403829029357,16.381490833008662,9.374941562290973,19.583639595892492,29.14390922985774,14.795006291550886,11.083395818319511
24.81301118413398,16.33934145619607,9.27724303906705,19.614247882660877,29.168708748771632,14.686000859952573,11.162892152624481
24.482064160645496,16.30205051087499,9.184804199932254,19.64652635920575,29.193804365353387,14.577002506230935,11.24680849212568
24.143708650332467,16.26969334359661,9.097713826496282,19.680539323338056,29.21896871997776,14.468305546117277,11.334872270804166
23.79906850492093,16.242320622501826,9.01604178579117,19.71636013058749,29.243982479783742,14.360248081554806,11.426763172977273
23.44923903009938,16.219950323444664,8.9398349480904,19.754056979098074,29.268630827848952,14.253199035415326,11.52211299606183
23.095286368432987,16.20255871925447,8.869117699107585,19.79368296965852,29.292693716412273,14.147543940458633,11.620507802556196
22.73825060540246,16.190073875221138,8.80389756458601,19.8352695765893,29.315934201774134,14.043673180159711,11.721494133572536
22.37914629467615,16.18237393204792,8.74416936983361,19.878818710827087,29.338086267560257,13.94197120095259,11.824588892334681
22.018958823794478,16.17928951926565,8.689913672224444,19.924294080328764,29.35884777464326,13.84280521172182,11.929290201566424
21.658641637106754,16.18060819904917,8.641093403058091,19.97161867259925,29.377891716555567,13.746514753277427,12.035086735538076
21.299117585772606,16.186079322451825,8.597654403791825,20.020681115386093,29.394897259147548,13.65340732296551,12.141463776087104
20.941282260563746,16.195419184754858,8.559529553202674,20.071343660132218,29.40957701799831,13.563762151782264,12.247904887884815
20.586006300538042,16.208317054605345,8.526641432196339,20.1234443421687,29.421681531653174,13.477834897894573,12.353890554833594
20.234134646278584,16.22444171270541,8.4989010508859,20.176797225325323,29.43099232449362,13.395856924997986,12.458896147722
19.886481272127764,16.243447375439054,8.476205292724853,20.23120302236781,29.437322136910165,13.318033842738544,12.562390089563598
19.543820861356405,16.264977685190082,8.458436486767004,20.286473966960596,29.440522599299676,13.244548089001844,12.663834007519728
19.20688152661181,16.28866658767014,8.44546482411434,20.342456866618885,29.440490498534995,13.175560717803906,12.762689002335126
18.876341643099863,16.314136813807053,8.437151577939316,20.399036221745316,29.43717206214414,13.111207106373879,12.858428446645686
18.552831198164192,16.34099984559265,8.43335022632924,20.456119360574153,29.430570233382397,13.051588609117971,12.950550071775746
18.23693641622352,16.3688609113734,8.433905042847986,20.51361661991153,29.42075121640556,12.996765145243602,13.038580486329899
17.929205906597655,16.397327476874096,8.438649960415095,20.571424879906086,29.407842792515073,12.94675169972883,13.122073700059591
17.630155788239897,16.42601896047963,8.447410130073509,20.629421867341925,29.39203048106926,12.90151839739022,13.200609106331585
17.34027172764507,16.454579439889102,8.460006205909039,20.687482367677422,29.373561548887608,12.860991373642635,13.273790407042632
17.06000788449874,16.482691204126134,8.476259703779156,20.745513247134383,29.35274985960164,12.825052569054698,13.341243832224308
16.789792562678787,16.51008046588919,8.495995759560657,20.803480015057776,29.329970136315666,12.79353991853648,13.402616353896853
16.53007198169782,16.53651139398408,8.519040874104777,20.861404961056127,29.30564793672485,12.766250618696406,13.457577308461964
16.281407452680465,16.561773398385615,8.545219182823114,20.91934558509388,29.28025936354773,12.742947169629485,13.505825607997778
16.044571305758488,16.585668399756095,8.574351656616512,20.977369069401348,29.25433986473367,12.723363045992384,13.547100149191198
15.82057319452613,16.608001560754786,8.606256500098722,21.035530194412953,29.228488291843924,12.707205974157299,13.58118652553656
15.610622428415038,16.628575557713827,8.64074700968413,21.093859784454224,29.203358932939853,12.694159100263224,13.607915286665452
15.416072464411037,16.647187858076062,8.677628085973264,21.152371859532924,29.179647439008562,12.683881808477906,13.627154377760837
15.238366361680354,16.663630516390615,8.71669646386391,21.211085668821262,29.158080199069996,12.676012849775793,13.638801267886729
15.078981258937551,16.677690287034086,8.757746694978156,21.270043492007296,29.13941179563452,12.670176013178061,13.642777651652219
14.939375240949584,16.6891483342184,8.800578477308747,21.32930975025059,29.124424024562348,12.66598536462465,13.639027818202006
14.820942875963123,16.697783967551985,8.8450010282314,21.38895607216033,29.113913013467,12.663050876718446,13.627521785305666
14.724979978611,16.703384721651442,8.890837127314647,21.449044631523467,29.10866152890138,12.660990656740136,13.608261296684866
14.652653190082484,16.705756019274883,8.937931138302162,21.50961498553341,29.10940684804181,12.659450238706885,13.581282469387702
14.604971136310729,16.704723950237028,8.986157813416282,21.570672948562514,29.11681399721806,12.658118748354761,13.546652107512632
14.582758726379526,16.70013318196519,9.035424238824607,21.632180553943346,29.131459449420333,12.656732850090076,13.504462131715606
14.586637875372627,16.691843225121804,9.085663678913615,21.694049301470812,29.153825208222667,12.65506979881581,13.454826741692418
14.61701710998798,16.67972368806159,9.136826954170978,21.75613843431341,29.18429573327906,12.652936022341049,13.397881971823972
14.674092328716638,16.66365041392445,9.188875192255221,21.818255927458235,29.22315556686725,12.65015562304902,13.333785830114564
14.75785645198579,16.643504033865902,9.241774496855424,21.880158353914616,29.270598630123008,12.646560769734291,13.262718343757815
14.868108508208374,16.619170792164017,9.295494709107674,21.941549094672265,29.32675007180872,12.641984616904615,13.18488055369983
15.004456615467175,16.590547377875943,9.350013286574658,22.002077333281456,29.391686525051025,12.636256286553579,13.100491560536033
15.166321957278958,16.5575502880821,9.40531935483863,22.061339681044878,29.465461643468213,12.62919723094442,13.009784550894018
15.35295237284287,16.520123291094958,9.461413617870322,22.118884268316656,29.548154715183042,12.620619347248985,12.913003531917994
15.563442264774729,16.478236683770383,9.518305824387259,22.174221722168713,29.63991986421962,12.610326741588977,12.810401361725578
15.796749238140293,16.431880653740375,9.576011492489044,22.226858681950908,29.740996170924184,12.598121540583914,12.702238180341714
16.05170416201984,16.38105812886169,9.634546727179288,22.276357381873627,29.851677755830003,12.583811559648463,12.588778827714407
16.327016940109555,16.325778951221558,9.69392170885492,22.32238845252723,29.972269787348825,12.567221245986431,12.47028919899067
16.621279527837263,16.26605658653133,9.754135656781175,22.364744242222056,30.103049329067392,12.548207657666767,12.347034090779626
16.932967503495238,16.20191102113987,9.815174046373805,22.40332131629328,30.244237622504514,12.526672790916491,12.219280898040699
17.260445215811558,16.13337922246182,9.877005972095128,22.438099531282855,30.395981570564242,12.502563051581964,12.087310037128569
17.60198314314599,16.060527775229943,9.939579801489739,22.469128753471537,30.558337989608514,12.475860636553321,11.951425096395367
17.955788591322914,15.983461483048789,10.002818079947565,22.4965173764593,30.73125860122911,12.446576011265986,11.811955236528382
18.320035626651645,15.902326718482085,10.066614519704967,22.520417033862415,30.91457817634415,12.414742741085316,11.66925050641304
18.69288095988018,15.81731132484172,10.130834404851612,22.541007544465288,31.108005596568102,12.380412823097604,11.523674945478332
19.072468442906025,15.728645984886972,10.195318355408821,22.558488778861697,31.311116927473858,12.34365519651691,11.375599870099961
19.45693132025191,15.636610224915191,10.259891370101041,22.57307815716861,31.523352449222774,12.304560913647752,11.225397409390892
19.84439621663155,15.541536343957517,10.324376849864926,22.585005452141836,31.744018087533735,12.263251324438087,11.073434887428293
20.232988421327878,15.443804875852987,10.388607403908978,22.594500594044607,31.972290043018628,12.219881226236094,10.920070935983668
20.620837135879125,15.343835320884548,10.452425388635737,22.60177854917011,32.2072236113577,12.174636046079423,10.765653084918721
21.00608094649469,15.242076102098617,10.515676814692911,22.60702628914635,32.44776895440336,12.12773201277109,10.61051687072955
21.386876026120785,15.138993884699683,10.57820712871308,22.610392810179896,32.692794718220036,12.07942467709323,10.454986740665623
21.761408240253747,15.035065235779568,10.639862533910533,22.611981047813604,32.94111356903925,12.030017268474989,10.2993771861407
22.127906241150793,14.930773696563913,10.700493106439867,22.611849383131183,33.19150123051372,11.979857873993362,10.143992416119612
22.484652461897934,14.826608859267917,10.759952722505613,22.610047657534107,33.4427087493675,11.929325858379777,9.989124978351683
22.82999628148174,14.72306165452383,10.818097605635108,22.606692205162876,33.69347139641118,11.878814706451555,9.835054358798729
23.16237955685517,14.620615255004157,10.874791087113373,22.602029467044193,33.94251338172585,11.828715877763944,9.682045860981791
23.48037230088426,14.519735124468312,10.929916326543916,22.59644256023712,34.18855103402385,11.77940552365538,9.53035000803338
23.782697383574984,14.420860713105577,10.983387161494615,22.590416829238844,34.43030339880327,11.731234998542572,9.380203063192972
24.068230975656313,14.324399602162536,11.035149220022268,22.584500429007143,34.666511326773765,11.684524515282211,9.231828728428807
24.335988359836193,14.230725799005592,11.085176148395874,22.579272569952884,34.89595384247078,11.639558824032695,9.085440505653448
24.585108652884088,14.140183498592485,11.133470147532675,22.57531704034404,35.117453894054165,11.596584781778878,8.941244150128473
24.81484559711264,14.053092275624879,11.180069503308879,22.573197369968124,35.329876561742374,11.555810132749961,8.799438799023523
25.02457029382573,13.96974700006589,11.225056774385656,22.573432967377755,35.53212575709923,11.517401843390768,8.660215777041646
25.213783003288242,13.890413595437243,11.268559196088074,22.576478674001997,35.7231426063453,11.481485223250647,8.523756608938495
25.38211889624733,13.815331513640283,11.310740234700146,22.582711181064795,35.901905116568074,11.448149696955035,8.39023258677635
25.52933931025909,13.744728156877144,11.351787680682259,22.59242582721999,36.06742836793147,11.417463316279862,8.259806697666855
25.655316772035533,13.678833313203178,11.391903293952655,22.605843489011818,36.21877137030261,11.389486987225618,8.132637036111408
25.760026335740125,13.617879926817043,11.431295503327554,22.623118886493796,36.355061282714566,11.364278601215148,8.008879872905416
25.84354700794492,13.562092738280036,11.470172954944982,22.644340619711375,36.47553444925834,11.34188871649151,7.888690485679274
25.906064643875208,13.511673723344648,11.50873629002515,22.669523171063833,36.57957599262193,11.322355516370832,7.772221868359048
25.947865325570596,13.466789255318162,11.54716998054399,22.698597583752274,36.66673789932355,11.30570239115259,7.659625109040884
25.96931882066938,13.42756069366031,11.585638159579233,22.731405111983886,36.73673149472581,11.291936229172265,7.551054768371441
25.970859161304457,13.3940608212589,11.62428393777822,22.767700012159874,36.78940536561724,11.28104457394021,7.446676331797735
25.952967616737983,13.366319360482942,11.663228752107731,22.80717703541938,36.824720877895025,11.27299246872829,7.346673165660253
25.916160170937413,13.344335839579236,11.702570688938787,22.849526369527407,36.84272917783383,11.267720481057491,7.251262518688403
25.86097953433449,13.328091080122944,11.74238269893563,22.89448347469056,36.843550138310285,11.265143753572177,7.160728306244707
25.787990014854774,13.317551684121394,11.782711592739116,22.94184268204279,36.82735767176916,11.265150180409472,7.075453640202234
25.69777369872416,13.312669958156654,11.823577854287546,22.99144240602433,36.794373969365644,11.267596853847909,6.99592955719701
25.590927332634294,13.313381752852555,11.864974799740516,23.043144063395097,36.744866071300315,11.272306691535233,6.922739823130327
25.468058859123243,13.319602792250166,11.90686616553896,23.096813254501892,36.679138263755895,11.279067617249732,6.856535287418499
25.329782623742897,13.33122670103382,11.949184116936452,23.152303536968088,36.597522655667866,11.28763510521539,6.798006018552954
25.1767141058157,13.348129349714208,11.99183038062136,23.20944262724096,36.50037179224499,11.297737062788347,6.7478550297850335
25.009465693807012,13.37018140987001,12.034679944447657,23.26802046261392,36.38805493397302,11.309080439225866,6.70677683784138
24.828643784556448,13.39726373420432,12.077584519762627,23.327779183709378,36.26096116146,11.321363353960361,6.675444113866884
24.63484700724763,13.429274196397682,12.120374832777669,23.388407771850858,36.11950864387402,11.334294779349063,6.654502654215809
24.42866633839473,13.466121464781192,12.162862762235521,23.44954471487324,35.964152234237595,11.347612723226556,6.6445679458179585
24.210687698530826,13.50771362793756,12.2048444254626,23.510788060233182,35.79538288136433,11.361091498484015,6.646216596258147
23.981495028428345,13.553950810750491,12.246104415637877,23.57170785860653,35.613719106408126,11.374541143009742,6.659974413644353
23.74167098055519,13.604722813641388,12.286419030211986,23.63185564695867,35.41969685266398,11.387805014353214,6.686306187405688
23.491795501827866,13.659906981315428,12.325555795795342,23.690768408237872,35.21386614396293,11.400755231399115,6.7256076207113304
23.2324441963099,13.719363335713433,12.363270000908447,23.747967584420703,34.9967946827771,11.413285467984322,6.778196777817707
22.96418666115837,13.782929075435263,12.399301311925766,23.802955870664096,34.769068620093826,11.425304133032414,6.844304134450807
22.687584955674964,13.850414581875915,12.433372308195018,23.855216226742865,34.53128650028644,11.436729872152776,6.924063233987376
22.40319517500427,13.921599950407556,12.465189049022106,23.904216552531306,34.2840539402863,11.447489849563167,7.017504128720248
22.111578013530476,13.996231241531044,12.49444291602228,23.949417725981046,34.02798723309162,11.457523030635263,7.124550263305819
21.813320779212628,14.074016888762634,12.520812683291087,23.990280620407678,33.76372968507134,11.466787881360203,7.245020365154909
21.50906072398699,14.154624081465197,12.543967172976592,24.02627354279897,33.49197515401202,11.47526701700692,7.378636801173654
21.199494059566593,14.237675657603637,12.56357175243874,24.056882065644427,33.213480986040686,11.482963296781692,7.525036597683374
20.885368029506946,14.32274983415747,12.579303960086321,24.081615905134477,32.92906114208924,11.489890475728687,7.683778715672717
20.567467197058463,14.409383678485234,12.590878195455126,24.100013534939237,32.63957185046283,11.4960637678794,7.8543464761414
20.24660533796294,14.497078416944115,12.598067453638295,24.111664214566424,32.34590189549888,11.501492671622605,8.036148923887161
19.923625911837185,14.585305260795575,12.600710428096733,24.116256922352584,32.04896489806904,11.506176589680921,8.228523159803204
19.59940580199297,14.673512823471539,12.598707294645799,24.11362536181422,31.749690453681144,11.51010268554851,8.430736981136803
19.274857789696185,14.761137375888318,12.592013853558559,24.10375483063184,31.44902093772862,11.513244400758323,8.641992774512074
18.950931193579887,14.84761500047764,12.580637629296794,24.08675700512501,31.14791726854148,11.515559472962972,8.861434762469315
18.628607127141734,14.932392393878432,12.564634636363008,24.062837400373553,30.84736112109938,11.516988008941231,9.088158680779333
18.30888544527053,15.014933272629765,12.544104528841343,24.032269514278738,30.54834425788298,11.517451878673754,9.321220510279392
17.99276832592856,15.094719998801926,12.519183521940889,23.995382660255288,30.251859258047133,11.516857253240826,9.55964246546894
17.68124703739914,15.171252092040886,12.490038151652458,23.95256314792707,29.95890531221209,11.51510482742262,9.802416983533746
17.3752928623201,15.244043992931143,12.456864124068597,23.90425475471721,29.67049586544017,11.512108710500078,10.04850976054564
17.075850334663798,15.31262469990145,12.419889977205004,23.850945403465776,29.387652543044815,11.507813647032247,10.296862434233619
16.78383138654116,15.376543009552549,12.37938009359236,23.793143435498898,29.111389693458392,11.502200382057554,10.546396625774781
16.5001080326978,15.435382243285824,12.335633290187477,23.731354037355576,28.842696925628378,11.49528108122433,10.796021251897349
16.225501557523437,15.488780401671569,12.288977099110792,23.66606053536172,28.582520980486755,11.487090744016504,11.04464216491885
15.96076959830689,15.53644256781599,12.239758050142349,23.597710819579493,28.331749957769023,11.47767737144792,11.291171269829944
15.706595970785138,15.578138313184347,12.188329508946428,23.52671268803194,28.091202746415824,11.467093445161693,11.534533739354139
15.46359608755865,15.613690509363543,12.135042185708624,23.453447951403994,27.861622654695505,11.455390789952768,11.773673311021637
15.232358860102613,15.642966214926178,12.08024388574565,23.378304988002604,27.643675708014264,11.442618966270015,12.007556088109903
15.013524100584947,15.665874524770764,12.02428923104162,23.301706523841744,27.43795513441817,11.428828874164074,12.23517510604829
14.807850581311182,15.682368477860441,11.967549876086203,23.224111709964077,27.244987615014992,11.41408230078601,12.455557490367925
14.61623134620556,15.69244546348952,11.91041597508864,23.145997669988525,27.065238059868843,11.398461123248545,12.66777158061443
14.439664417401648,15.696144050096441,11.85328963411765,23.0678358216988,26.899116514926146,11.382069406749915,12.870931463385903
14.27921209019195,15.693540210472017,11.796576105718813,22.990075852170218,26.746986714399952,11.365028691071213,13.064201199352292
14.135962075810863,15.6847467367416,11.74067774505468,22.913153961010963,26.60917124339538,11.347469809771306,13.24680006661902
14.01098778669977,15.669915362955452,11.685992208263048,22.837528194826284,26.485951018586572,11.329524177843052,13.418005542768011
13.905308594116459,15.649238306581696,11.632910613029084,22.763711518186877,26.377557592375585,11.311316827345996,13.57715206340073
13.819854842052573,15.6229462815578,11.581811224376448,22.69227379719045,26.284159096347686,11.29296194476463,13.723627956691962
13.755440936193594,15.591301589524615,11.533050682213561,22.623818559517023,26.20584495409595,11.274562161877187,13.856874847192904
13.712746803796787,15.554589578229047,11.486958937098757,22.558958337409184,26.14261426906508,11.256213366755471,13.976393798116208
13.692305675233776,15.5131156547157,11.443843271324514,22.49830157577408,26.09437319414661,11.238011499255103,14.081757619867314
13.694496690994045,15.467209289208355,11.404001023217628,22.4424458050543,26.060946134269805,11.220054207012888,14.172621306250917
13.719540770021837,15.417226034298237,11.36773241110898,22.39196561084058,26.04209500778725,11.20243759460523,14.248724057869403
13.767496250182607,15.363540132616702,11.33534493135289,22.347393323506026,26.037531811074047,11.185254979493413,14.309884739699275
13.838253499917416,15.306532251092797,11.307150234670818,22.309198331638417,26.04691783365809,11.168600013252796,14.355995919285899
13.931533969694481,15.246581424228888,11.283463289893007,22.277769887291967,26.069857738540577,11.15257167925017,14.387019496238434
14.046899697836533,15.184063272110048,11.264613422115204,22.25340638728987,26.105899643857324,11.137279231297054,14.402983781448434
14.183770677882379,15.119348894313958,11.250962369040492,22.236312516844347,26.15454260825312,11.122844270938957,14.40397998993919
14.341439831990806,15.052799454084473,11.24291184584606,22.226601868110393,26.215249005670888,11.109397996245866,14.390159474942756
14.519079961482609,14.984758017506392,11.240892735760522,22.224301904744685,26.28746478004784,11.097076166956851,14.361738863281644
14.715746209570302,14.915544043856022,11.245345110041383,22.22935989298735,26.370647149023227,11.086015127243579,14.319014993186434
14.930378088027718,14.845452994593352,11.256700564562752,22.24164662306191,26.464290171590772,11.076350379690206,14.262377339088504
15.161801272995767,14.774757840305654,11.275371623025372,22.260954962529123,26.56794334442572,11.06821766655114,14.192306277340489
15.408733811518342,14.703708042952586,11.301748854476918,22.28699552780639,26.68123345909683,11.061754987008538,14.10936107113767
15.669810865692616,14.632526241618454,11.336203661780981,22.319394377637735,26.80389446393164,11.057106008144054,14.014167024988062
15.943630907475104,14.561408016906269,11.379090637719377,22.35770048919914,26.93578208718835,11.05442589027805,13.907404403498136
16.228798236916912,14.490528794801746,11.430742754865681,22.40141688134608,27.07685396852545,11.053884489298136,13.78979836730459
16.523938904207917,14.42005375924576,11.491458631758322,22.450057575761363,27.227136500426464,11.055661109402212,13.662112690060203
16.827697240071508,14.350143142141494,11.561486829753571,22.503201742876524,27.38671043525859,11.059933653568416,13.525149041962496
17.138731002733813,14.280951748963705,11.641012514736678,22.560512978435842,27.555714834187718,11.066870969322736,13.379745886424118
17.45571201770736,14.212627306591171,11.730149051813315,22.62173037067216,27.734344177727998,11.076634842760702,13.226770919953701
17.77732875436629,14.145310993335825,11.82893303309219,22.68668521777309,27.92282782450045,11.089388880177523,13.06710912767916
18.102285193481343,14.079140552226567,11.937319837489023,22.755407426575783,28.121405530286108,11.105303363769952,12.90165094357771
18.429295643056587,14.014254911196133,12.055180196308731,22.828298872131292,28.330311803126833,11.124550085187458,12.731281888205379
18.75707922742059,13.950797369228468,12.182300305994092,22.906245082080545,28.549770580264827,11.147292195205237,12.556873705811359
19.084355884135757,13.888913752812861,12.318385335989644,22.990587911216263,28.779996521956722,11.173675177278936,12.379277407368612
19.409843584682726,13.828745678996995,12.463063304067425,23.083013797986272,29.021194499950415,11.203819588665446,12.199318524728408
19.73225923595412,13.77042265119606,12.615887517985065,23.1854365377815,29.273550171177195,11.237814988861997,12.01779357265463
20.05033223811858,13.714055517393046,12.776338576678741,23.299918090388317,29.5372114216273,11.275715380518447,11.835465800155369
20.362836289983125,13.659731578982104,12.943827156815136,23.428656097431002,29.81226651211763,11.317535054102825,11.653059631384673
20.668624825627067,13.607512103366494,13.117699383172301,23.57401835335512,30.09872796676253,11.36324460740946,11.47125482649452
20.966646814991066,13.557434845148947,13.297248095544457,23.73855321271344,30.396524491477685,11.412771016342306,11.290681216249805
21.255939705224005,13.509522796818533,13.48172840340526,23.924956698033654,30.705495213120965,11.46600349524915,11.1119145689714
21.535614208226594,13.463794223800273,13.67036895013798,24.13605233861468,31.025381684434407,11.52279928290067,10.935474843604249
21.80484120153042,13.420266801725589,13.862374390060282,24.37479730554032,31.355815886847353,11.582983753671888,10.761828354050763
22.062841380966816,13.378955104914825,14.05692382236601,24.644257754426622,31.696306263068426,11.646347154912645,10.591393935245486
22.308876657758724,13.339865963950858,14.253171836586375,24.947533354849714,32.046228908096495,11.712643974548824,10.42455053576272
22.54224353763289,13.302994340373976,14.450256334924518,25.28767562313123,32.40483168830471,11.781597221639485,10.26164274934228
22.762268375820128,13.26831957442249,14.64731288155796,25.667631390711556,32.77125184731757,11.852904518405925,10.102982689814459
22.968304797978583,13.23580269843193,14.843489557481087,26.09020965404324,33.144535386850414,11.92624302868733,9.948849002784769
23.159734569380717,13.20538631293567,15.037957111140061,26.558065932182547,33.52364563947955,12.001274736562092,9.799485474979273
23.335971270588846,13.17699617162513,15.229913881269002,27.07368321032678,33.90746110644485,12.077654110960015,9.655101800801232
23.49646308743754,13.150541987208552,15.41858555933832,27.639332757129434,34.29476999438892,12.15503692424705,9.515877202692275
23.640692797089983,13.125916795357355,15.603221563842892,28.25705302113777,34.68426839997125,12.2330874295569,9.381965118464999
23.768177359282486,13.102995987553038,15.78309400355244,28.92868154569901,35.07456788904546,12.311481772915343,9.253495985329465
23.878470303046775,13.081636927216119,15.957503925484176,29.655888118594337,35.4642140084624,12.389908948473467,9.13057681183064
23.97117013419169,13.061680292013241,16.12579190828999,30.440143435949295,35.851709192187464,12.468072708178495,9.013288559354955
24.04593659841263,13.042955396313646,16.28734442088505,31.282642455552654,36.235530023104175,12.54569502430853,8.901682616579254
24.102509638224053,13.025289902194109,16.441592125771585,32.184245964664434,36.61413656372,12.622522507879385,8.795777706409634
24.140722292331994,13.008519154725116,16.588007982485838,33.145461497826886,36.98597933295279,12.698337678052761,8.695558992192002
24.16050400634438,12.992489490772986,16.726116572617524,34.16642983136864,37.34950580979408,12.77297070766628,8.600979975519198
24.16187596991435,12.977056158114518,16.855513600479473,35.246886449412386,37.70316610663807,12.84631008119403,8.511966399694527
24.144941567836444,12.96208093014372,16.975880703015207,36.38610776223505,38.04542551522045,12.918315224976109,8.42842567334519
24.109875372016806,12.94743127305779,17.086985938999803,37.582867738307414,38.37478817793791,12.989023538871068,8.35027458664349
24.056913235510944,12.932978899437899,17.18867602347048,38.8354387644616,38.68981780361712,13.058542493772116,8.277490371799894
23.98634516080755,12.918597306738201,17.28086852466486,40.14168168168572,38.9891424781691,13.127032445499129,8.210161409672818
23.89851212661746,12.904160971567856,17.36354356246209,41.499207466773875,39.27145141906959,13.19468996814969,8.148507363006672
23.79380641548155,12.88954686147991,17.436732888513514,42.90552103287204,39.53549672220406,13.261733759070788,8.092866662090938
23.672674325655795,12.874635241902258,17.500508465076432,44.358132728455615,39.780103211062325,13.32839502877971,8.04366919682865
23.535620848470533,12.859308677161748,17.55497296678055,45.85468455694142,40.00418524723067,13.394921850420795,8.001407183499547
23.3832137601892,12.843451879630344,17.600251857250065,47.39303758915876,40.20676996429885,13.461600745709784,7.966607678284367
23.216082072252973,12.826953068787702,17.636485653204446,48.97125191035341,40.38702255024271,13.528777136974433,7.939808081235629
23.0349091455398,12.80970491530009,17.66382273716171,50.587509245828066,40.54426317083198,13.596855745410727,7.921536782308568
22.840431239962644,12.791605671088456,17.682414499751886,52.24004682881331,40.677969333209134,13.666288728249913,7.912298333111429
22.63345018871035,12.772562188940316,17.692413009929854,53.92711908098339,40.78776876369881,13.737570055691672,7.912559328864787
22.414850097155945,12.752492665172827,17.693970384231058,55.646989204981736,40.87342873774031,13.811240694382482,7.922733244859092
22.1855990377233,12.731326121051197,17.68724131382646,57.397932382965855,40.93484204090904,13.887904330324002,7.943166622118915
21.94673198224631,12.709000307039169,17.672389744031083,59.178236648969126,40.9720116731328,13.968252659876567,7.974129226769918
21.69932701145652,12.685461058635125,17.649595291960186,60.98622921948768,40.98503808466551,14.053081927451156,8.015807830952278
21.444485177484975,12.660662842681402,17.61905552634239,62.820323125560705,40.974105638779385,14.143281293391029,8.068302460855959
21.183315267880115,12.6345690405758,17.58098778475278,64.67902064666332,40.939464141125335,14.239806262146134,8.131627110462286
20.916921169017,12.607151192383188,17.535633803117975,66.56086337835991,40.881410403584695,14.343670186754458,8.205718774488446
20.646392352787277,12.578386993986998,17.48326287033343,68.464383776701,40.80027662071614,14.45596774740771,8.290453456823588
20.37279908585542,12.548258526247869,17.424169354818712,70.38807873540176,40.6964265114739,14.577916097663296,8.385660608477155
20.097189390941338,12.516752191252275,17.358666595429046,72.3303942657126,40.57025607622362,14.710891752296806,8.491129036080212
19.820582601361007,12.483858956955872,17.287081154778548,74.28973315633539,40.42219292921034,14.856455908714445,8.606605248345685
19.543960782008504,12.449573627529146,17.20974961369714,76.26448662811286,40.25269065620366,15.016374589907713,8.731788689465093
19.26826695399542,12.413895765007574,17.12701801746925,78.25304202972079,40.06222243255496,15.192626702052463,8.866326741862869
18.994415941813127,12.376834508833948,17.039242256686965,80.25372733093009,39.8512795421388,15.387385231753829,9.009811050753646
18.72331165939226,12.338414042702993,16.946787286777266,82.26472250270321,39.620373898064756,15.602982759919614,9.161776555623717
18.45585848030478,12.298675278407677,16.850026339115335,84.28400810976827,39.37003847686831,15.841877898968905,9.321703637175993
18.192959952390765,12.257673590808675,16.74934336544595,86.30938353457786,39.10082249349226,16.10661645916442,9.489021627131185
17.935509331196407,12.21547484262402,16.645138591998595,88.33852939959594,38.81328478232384,16.399785264947255,9.663111277588316
17.68438129039114,12.17215156072014,16.53783715406285,90.3691231558428,38.507990957545125,16.72397794697397,9.843306006976492
17.440427020057562,12.127780919538488,16.427902750081753,92.39904600166325,38.18551856370713,17.08178613292238,10.028894232705625
17.204468912756564,12.08244544588188,16.31584993979535,94.42659602214383,37.846468493643684,17.475798523978398,10.219124249814392
16.977293103905588,12.036234704670782,16.202243531615153,96.45056871251138,37.49147342599669,17.90859058077159,10.413209819885527
16.759639176876618,11.989244630847862,16.087685200515043,98.47021230372773,37.12120051551096,18.38272311063966,10.61033495535797
16.55218653453399,11.941573723967425,15.972797304559789,100.48513593850953,36.73635862785276,18.900763843996383,10.809659380971677
16.355540085772155,11.893319993050449,15.858209665444054,102.49519459114343,36.337714363858154,19.46532830050036,11.010325052801987
16.17022109349763,11.844584520290681,15.74455045918299,104.50039052649882,35.926103916635796,20.07915168341218,11.211461855051391
15.996669498643666,11.795481165477659,15.632442087508597,106.50084969433105,35.50242943556718,20.74516743779627,11.412192439109502
15.835265913355597,11.74614337223914,15.522499947821112,108.49686023232752,35.06764744699011,21.46654814671578,11.611638487722605
15.686390416268658,11.696723586364914,15.415333027995779,110.48890432570795,34.62276498361037,22.24678351413419,11.808929422953915
15.55052016387861,11.647390958746971,15.31155231781548,112.47761927870819,34.16885064266611,23.089862281696224,12.00321108752098
15.42831805922144,11.598332129711574,15.211786902488528,114.4636768345946,33.707057922350025,24.000417528727407,12.193651021105834
15.320659486453112,11.549753673231214,15.11669420729527,116.44765826644327,33.238649758936326,24.983733586561947,12.379440743066906
15.228601371967997,11.50188243590318,15.02695899356033,118.43003892403596,32.76501043356231,26.04570721603024,12.559798811863436
15.153328704464988,11.454961547101355,14.943290300747492,120.41129184124908,32.287640673542725,27.19277304016072,12.733977448980642
15.096097628838498,11.409243480522962,14.866427124327723,122.39198577773763,31.80814285947151,28.43172156587584,12.901271681282054
15.058179194828906,11.364983519284264,14.797167556726775,124.37281956476589,31.328207310184478,29.769505694154432,13.061026437048005
15.040806734281027,11.322435006254363,14.73642063197308,126.35467499575617,30.849604935173,31.213166757290324,13.212638169073886
15.045130505852486,11.281844908642917,14.685241615397487,128.3387306037032,30.374181255907512,32.769819134825774,13.355552093637991
15.072181551273447,11.243448766594677,14.644819227607949,130.3265679961082,29.903848506372704,34.44660937063301,13.489258315301074
15.122845686456408,11.207465907868087,14.616431515715703,132.32016883990664,29.440576280189344,36.250708897416445,13.613289799442626
15.197846472926138,11.174095378798475,14.601401267801178,134.32177895859408,28.986376401722325,38.18938379450326,13.72722335872515
15.29773148930366,11.143512409914386,14.601062162095204,136.33373209513508,28.54328334871772,40.270148867924696,13.830681570495623
15.42285709556854,11.115865263204205,14.61672987384424,138.35830518496164,28.113338176177802,42.50103924159573,13.923332551415358
15.573373504050544,11.091272739888137,14.649674586351953,140.39758351009408,27.69857426101121,44.89086451938696,14.004887283898126
15.749214634877394,11.069825410231331,14.701113666069567,142.45331265233497,27.30100293656495,47.44923606369994,14.075096591506766
15.950095261354083,11.051594619847968,14.772242836785178,144.52676524958588,26.922604631432947,50.186407708689956,14.133749212105934
16.175516288123713,11.036646611303896,14.864280293653279,146.6186520745893,26.56531850050997,53.11306133214394,14.180671184432443
16.424777488461167,11.025052308530332,14.978480691308704,148.72907107191944,26.231025407105033,56.24003490186633,14.215727511439221
16.696996334341634,11.016887418933266,15.116116330879576,150.8575030374285,25.921554846371805,59.577992384238506,14.238827112410053
16.99113168154975,11.0122263806252,15.278452260888015,153.00289066322568,25.638743577946364,63.137118044489284,14.249928845278166
17.306007268486322,11.011135316728156,15.466725860655655,155.16376816864215,25.384524991323694,66.92691931279859,14.249044595183681
17.64032710964423,11.01366579908164,15.682127292141429,157.33835296255674,25.161008823563705,70.95611883621082,14.236238645397377
17.99268214184347,11.01984993767816,15.925796283606367,159.52461429045186,24.97051605431309,75.23251341879163,14.21162573396761
18.36155695919774,11.02969706416084,16.198856368307727,161.7203942136504,24.81554888671382,79.76275525455135,14.175369780847547
18.745343437603697,11.043191121552432,16.502473323801443,163.92352494047995,24.69871675335422,84.5521394495238,14.127683944666638
19.14235786682819,11.06028748573307,16.83789874626668,166.13184033369043,24.6226602600689,89.6044482838951,14.068831302502895
19.550854286627537,11.080908870565787,17.206470481742212,168.3431120462591,24.5899945305828,94.92183345274604,13.999123802248072
19.96903150865633,11.104941273351429,17.609593087469012,170.55499003216974,24.603280244724214,100.50473226546544,13.918918411717103
20.395036075122658,11.132231829467303,18.04876754898131,172.7649540359462,24.66503191586504,106.35180934193957,13.828612346089201
20.82696441847012,11.162589664823498,18.525676953282513,174.97024179846503,24.777745882070267,112.45987774437634,13.728638658307855
21.26286608962116,11.195788551040758,19.04223746281538,177.16774967943545,24.9439035474875,118.82380662439358,13.619461342465618
21.700748882786993,11.23156967762568,19.600565130357467,179.35394896597015,25.165946109532406,125.43653690347685,13.501569675182381
22.13858825523834,11.269645192016723,20.20290027040528,181.52485544230427,25.446268994132893,132.28926287778955,13.375472807216005
22.574345214456436,11.309703969543556,20.851524814330805,183.67603149556098,25.78725374938955,139.37163195914695,13.241694890188784
23.005992522796394,11.351418730709742,21.548686346049365,185.80258758004544,26.19128755969944,146.67183187535448,13.100770153582177
23.431540527812782,11.394452130205982,22.29654780790502,187.89920905203996,26.660717057206092,154.17661661782728,12.953238948961108
23.849053744299844,11.438460162386157,23.097152523207406,189.96023968958102,27.19774477636054,161.87136732714075,12.799647066077421
24.256658267817915,11.483092931235102,23.95237325234001,191.97977435167954,27.804323452786115,169.74023444561905,12.64054743553448
24.65254551939905,11.527995172101972,24.863846904465635,193.95170873513715,28.482093241803287,177.76632673306045,12.476499795703496
25.034975787364385,11.57281037225371,25.83293419304365,195.86977771349567,29.232365869214583,185.93188261451544,12.30806624049787
25.402281821251748,11.617190477212535,26.86072588354957,197.72761610955428,30.05612420133107,194.21847464264752,12.135804816338606
25.75287254385922,11.660807955363294,27.948075647627746,199.5188104600469,30.95400056398607,202.60729219275984,11.960263385880186
26.085237062297068,11.703364282331323,29.095663411907477,201.2369313866614,31.926227589919502,211.07936698547906,11.781974352066824
