HandOpen,HandClose,Wrist Flexion,Wrist Extension,Supination,Pronation,Rest
53.82862621496235,41.283780247345604,27.033639985792302,29.44006498536872,45.930986401520705,66.79208090593254,24.903537569601987
53.87737906152744,41.496535641611146,25.810970739084304,29.33122003540844,45.874833109200615,66.72813956792575,24.71269340010404
53.91849242657994,41.722956220071325,24.670979495900085,29.22836562300651,45.82686892838092,66.5873756046305,24.51623934949556
53.95194591265913,41.96221718568865,23.61279322418916,29.131487888535528,45.787383187961915,66.37099033874374,24.314773709374656
53.97775881882722,42.21340026742411,22.63529648116958,29.04054727025046,45.756697506437476,66.08055394270896,24.108902811085766
53.99600453503924,42.47549209024856,21.73713779402509,28.955467449883727,45.73514021924176,65.71796588677601,23.899244704658578
54.00681315303337,42.74737714861537,20.916759604892242,28.87613285512997,45.72301732637235,65.2854123858064,23.686423889842782
54.01036015638128,43.02783708039085,20.17246215575768,28.80239418129741,45.72060535463736,64.7853380491551,23.471064763756
54.006856489560626,43.3155582348053,19.502472560807725,28.734071734937622,45.72815561228835,64.22043416521446,23.25378939266589
53.996543407678836,43.60913926384194,18.90497987461833,28.6709500752828,45.74588466474746,63.59362554491694,23.03521585203927
53.97968722160015,43.90709766848679,18.378135070717914,28.61276962190909,45.77395267764016,62.90804120288475,22.815951760738983
53.956570094043876,44.20788946609292,17.920039096244455,28.559226145785765,45.812455305982844,62.16697964308767,22.596584673086884
53.92747328936586,44.509946109766524,17.52873015431533,28.50997960395919,45.861437804887316,61.37388740489941,22.37767697973032
53.89265361577872,44.81170718375621,17.202169331957382,28.4646615582058,45.92090730414006,60.53234922095979,22.15976972567212
53.852318685555076,45.11162976757135,16.938225529189193,28.422873770189533,45.9908209306496,59.64607091067928,21.943389033325573
53.806609018161566,45.40818351476324,16.734664158591748,28.384184001073503,46.07106098355861,58.71884786904447,21.729045730512336
53.75559167426015,45.69985682120785,16.589144160565088,28.34813197606864,46.161427005919464,57.75453364263745,21.517228892116826
53.6992605214167,45.985185242927514,16.499224195906447,28.314252652148497,46.261653519089265,56.75701949854342,21.30840224699142
53.63753996401178,46.26278471484577,16.462371920881083,28.282106034644812,46.37142815278386,55.730215704673,21.10300813596793
53.57029639078035,46.53136573279967,16.47596914619342,28.251293111276798,46.490387904190214,54.67802409191231,20.90147336594427
53.49735254073034,46.78972601941374,16.537313847401816,28.221454049902967,46.618106750997114,53.60431049005842,20.704208380414446
53.41849254915585,47.036737909758,16.643625425727635,28.192263565817807,46.7540989811169,52.51289355313825,20.51159909329218
53.33345813782263,47.2713432712233,16.792054727820343,28.1634329700575,46.897835232804994,51.40754949637714,20.32399843918833
53.24194745669139,47.49255112390039,16.979693873544917,28.134712731349477,47.048747028456525,50.29201284286068,20.141723411187563
53.143622403774735,47.69942706704426,17.20358293214703,28.105887122290966,47.206210803227194,49.16995998763808,19.965056110492068
53.0381199503304,47.891074847949064,17.46071717618257,28.07676599352163,47.36952897312146,48.04498557890854,19.794243471335673
52.92505994848,48.066619847810095,17.74806105489867,28.047189219655035,47.53792487345318,46.92058774690202,19.629493632910286
52.804047398676644,48.225206368732735,18.062569163798614,28.017045438016037,47.71054597821367,45.80016510410817,19.470971429611343
52.67467561000786,48.366012488090526,18.401207792985705,27.986283926425013,47.88646311136682,44.687017002826025,19.318796933606944
52.536536430947045,48.48826789512992,18.760973950468653,27.954905173937572,48.064675187944125,43.58433855630484,19.17304858402903
52.38923297892576,48.59125759035001,19.138912601293782,27.922940133629545,48.244144894491946,42.49521455689334,19.033766791959575
52.23238539467785,48.67431437445055,19.53213098107987,27.89043248999855,48.42386189647441,41.422621376879775,18.90095303185593
52.06563148339491,48.73681341628357,19.937811931178633,27.857427751634013,48.60288907708708,40.369428287374554,18.774566116653904
51.888640363917,48.77817172629292,20.353228387484894,27.82396675384534,48.78036157221387,39.33838242142651,18.654520887888847
51.70114838232616,48.79784690296098,20.775753957184662,27.790079227385963,48.955456195529706,38.33208106636015,18.540690571947263
51.50299327005179,48.795333682173826,21.202871461308387,27.75577457197088,49.12736377302921,37.352949308505224,18.43290996692322
51.29412098113113,48.77016051573354,21.63219548040097,27.721032298379765,49.29527926212307,36.40323428727735,18.330976588230502
51.07457433263052,48.72188583253417,22.06151006798759,27.68579673897532,49.4584030774919,35.485009933704845,18.234650173752097
50.8444821932462,48.65009452070228,22.488794381018632,27.649975108975788,49.615938443759596,34.60017577365276,18.143655238316754
50.60405084551094,48.55439953503052,22.912217422348945,27.613433511638853,49.76708383187835,33.75044287310932,18.0576901772638
50.35355286011411,48.434458761158446,23.33011512321426,27.575990579137137,49.91103713058352,32.93731601293581,17.976438204085866
50.093310815785784,48.290022143547304,23.74097199652618,27.5374182937428,50.04701707422447,32.16208366437843,17.89957189958384
49.82367623414985,48.121002176825684,24.143413930349453,27.497461438004972,50.17428146486698,31.425817236467463,17.826750323064523
49.54501253040042,47.92752440380551,24.53620226150659,27.455870989248922,50.292125257836666,30.729371840701358,17.75761487005911
49.257693437327475,47.70993055166773,24.918219438360623,27.412428399027835,50.39987280440794,30.07338547384853,17.691789898761897
48.96211636387902,47.468757478263264,25.288449626554424,27.366946950117548,50.49689213328628,29.45828969171714,17.628888622542217
48.65871927034656,47.20472522837761,25.645964547452976,27.31926261403823,50.58263154585558,28.884345748122715,17.568519024546035
48.347998425001435,46.91873847592353,25.98991853301562,27.269235572166135,50.65664419742232,28.351692341184748,17.51028564424705
48.03053351407121,46.61189010757248,26.31954573357742,27.216767157990688,50.71857947069512,27.860372153334488,17.453790689363622
47.70701006308083,46.28548086202161,26.634151375531484,27.16181536728716,50.768163836720525,27.410326331444097,17.39864258038045
47.378218272526375,45.94107647556413,26.93309842140286,27.10439464899488,50.80520021613705,27.001375032055456,17.34447325615504
47.04503315736984,45.58057360870328,27.215796786863592,27.04456890097503,50.829579268704634,26.63320099590084,17.290952965813656
46.70840875624809,45.20622542252128,27.481702270236177,26.982450900592223,50.841276174822305,26.305338325669087,17.237791750429803
46.36940193204262,44.8206155481347,27.730326796982904,26.918202607508544,50.84032743416557,26.01716370038035,17.184732846550297
46.02919441929451,44.42659616524712,27.96124983565558,26.85202487938156,50.82680958317866,25.76789071943666,17.131554342523508
45.68907928716597,44.027218470652244,28.174120371056986,26.784140578598475,50.800836607509694,25.556574124697494,17.078086170653908
45.350427766326355,43.62568328405093,28.36865366085353,26.71478717488725,50.76256409380298,25.382130449166233,17.02422937519424
45.014668111554585,43.22530474700809,28.544631191572563,26.64422600117957,50.71218103407432,25.24336685944787,16.969960572907375
44.68327277868019,42.829472366456514,28.701901167359253,26.572754878467897,50.64989599860286,25.139000201879913,16.915321459694294
44.35773368817028,42.441647206602276,28.840375853921998,26.500706832268317,50.57593897238747,25.067664725741313,16.860407056744215
44.03952230344156,42.06541568105387,28.960033119232946,26.428434993451276,50.49057794535834,25.027924355561233,16.80536268544107
43.73004678969071,41.704530732304,29.060926862879306,26.356298776402426,50.39412608436303,25.018293169314862,16.75038521445373
43.43062489054826,41.362874887303676,29.143195235207198,26.284662829904804,50.28692601332784,25.03724835771631,16.695717282737807
43.14248328356897,41.044383853389874,29.20705504547102,26.213902346838633,50.169322291360444,25.08322620607746,16.641633126381045
42.866768171579274,40.752998049906964,29.25278532570258,26.14439895659806,50.04164085550686,25.1546107478645,16.58842601803329
42.60454119651937,40.49264654094405,29.280708637696975,26.076524787107978,49.904183601710514,25.249731232630236,16.536403845714467
42.35676118675272,40.267218669096096,29.291174077416983,26.010628658250287,49.75722961960317,25.36687439020977,16.485886916160045
42.124278419353224,40.080507062884905,29.2845430250958,25.947034423599206,49.60103184161888,25.504300665965996,16.437198922410712
41.90785239680693,39.93616232884871,29.26117846189051,25.886044259516396,49.435814097486485,25.66025117578114,16.39065234214104
41.70817040913982,39.837690404350134,29.221438605262783,25.827935384559467,49.26178035762322,25.83295002315614,16.346538349631683
41.525846272571094,39.78847106757959,29.165676623651038,25.772954738930313,49.07913039283229,26.0206177593504,16.305127369128936
41.36140809854034,39.79175502645557,29.094247215764298,25.72132862664555,48.88806496159855,26.221496197600654,16.26667479176463
41.21529051808608,39.850615793618694,29.007515014536583,25.673289951106643,48.688784791559875,26.43386543880233,16.23142160277335
41.08782831674426,39.96786907337498,28.90585741198806,25.629100481006404,48.48150914428408,26.656041670378578,16.19958719309542
40.97924207933328,40.145992521554014,28.789661273944876,25.589048039724208,48.26651649549034,26.88636556674945,16.17136134876295
40.88961997825221,40.38706426287704,28.65931999150881,25.553425673912805,48.04417186663756,27.12319680281887,16.146904397552056
40.81890702367062,40.69272368018345,28.515235991049952,25.52251365922289,47.81491857275387,27.364919113617344,16.126355655925664
40.766905887219146,41.06416052044986,28.35783074950353,25.496572941478906,47.57926087597301,27.609947276534065,16.109839578018253
40.73328676609149,41.50213000163839,28.187564648553334,25.475840861096984,47.33777761048347,27.856726906849417,16.097462888613627
40.71760107453698,42.006971396658614,28.00496092580528,25.46051962708383,47.091164381760734,28.103729237234752,16.0893105127491
40.71929246458328,42.57860542451425,27.810617971347458,25.450762763588948,46.84025891293525,28.349450463306678,16.085452929390705
40.73770086216989,43.21650926446364,27.605206512695233,25.44667588935802,46.586022755002425,28.592419873618784,16.085964076335337
40.772059644502846,43.91969452896056,27.389464026902605,25.448340725921984,46.3295025645782,28.831209346524318,16.090932913430436
40.8214913367358,44.68671048550689,27.16419014038935,25.455846004675955,46.07180368993321,29.06443798990037,16.10045726162345
40.88501044902344,45.51566321005909,26.93023727233045,25.46929811933468,45.81407822463843,29.290781813395398,16.114626520703894
40.961538602284826,46.40422667584465,26.688497206083778,25.488807449595146,45.557506980088796,29.50899842943405,16.133504017434007
41.04993225497192,47.349640561849625,26.439887481536626,25.51446981720612,45.303267669699004,29.71795352530152,16.157113183685354
41.14902059395619,48.348707976887155,26.185337824253082,25.546356628082876,45.0525086076428,29.9166283434133,16.185429315359166
41.25764203851915,49.39780592303498,25.92577666554583,25.584508239634598,44.806342384921514,30.104107798918896,16.218380551648877
41.37466166141454,50.492910080594456,25.662119299091597,25.628921852523185,44.565843226957064,30.279565802908635,16.255860472417886
41.498967863833045,51.62962438358819,25.395257971457855,25.67953912181583,44.332028176849185,30.442262457197817,16.297747415873555
41.629473039677,52.803208185535105,25.126052095603068,25.736247085927296,44.10583260788572,30.591552557555087,16.343919610670554
41.76514334676955,54.00860735248267,24.855317795842122,25.798894202299618,43.888110692811104,30.726890382650105,16.39425782369653
41.90504409112559,55.240498290797035,24.58381887016255,25.867305472517597,43.67967210883567,30.84782086912477,16.448636418379827
42.048364474959065,56.49333859439069,24.312260722762055,25.941282775737008,43.4813238329906,30.953966535024463,16.506912841362002
42.19442251450302,57.76140857519189,24.04128605295053,26.020595727650893,43.29387726411347,31.045029247467493,16.56892848967523
42.34267738825986,59.03883908754693,23.771471826513586,26.104978819834177,43.11812619587455,31.120812939610666,16.63452428351316
42.49274153253536,60.31963309233908,23.50333145601744,26.194140143066733,42.954836564483394,31.181248301293348,16.703557269507083
42.644364140513105,61.597688489775415,23.237327058783137,26.28776956420274,42.804761539599035,31.226397123942522,16.775902592016223
42.79738769225761,62.86682805490636,22.973888127501212,26.385537136838284,42.66864965375382,31.25644063979214,16.85144279483443
42.951703736930334,64.1208399999716,22.713424690170665,26.48709213096449,42.54722351618655,31.271672204925025,16.930060099783397
43.10723236187934,65.35352517658588,22.456330864271095,26.592073582745492,42.441153299228475,31.272497457425253,17.01164073031043
43.263928639789206,66.55874478915293,22.20298821984756,26.700123311248884,42.351052980463216,31.259426907043302,17.09608289318436
43.42178941628629,67.73046883621284,21.953774738914777,26.810886512536502,42.277486311454815,31.23305477612825,17.183295544464574
43.5808359800318,68.86282376519044,21.70907153141761,26.924000862591427,42.22095370123326,31.194035151411427,17.273188564799643
43.74108207448736,69.95013007888919,21.46925891330835,27.039089049419427,42.18186149801454,31.14306643807542,17.365665712035394
43.90251286492186,70.9869254497492,21.234704937792806,27.155766179614858,42.16050419791869,31.080882393587746,17.460626472518726
44.06508516677816,71.96798104453556,21.005755818442456,27.273655964194415,42.15707738011647,31.00824145790047,17.557970139814728
44.22873571376609,72.8883217741227,20.782732945846732,27.392398082297607,42.17170000376996,30.925910639394875,17.657592301764197
44.39337840320336,73.74325220858366,20.56593291109809,27.51164009010754,42.20441585640634,30.834645756690904,17.759374256054564
44.55888748311815,74.52837942290583,20.355625119807684,27.63102607441799,42.25518006101424,30.735173382622417,17.863175122090137
44.72507841891528,75.2396279669697,20.152046278332037,27.750196137496857,42.32386065291842,30.628183850285637,17.968832550643405
44.89169445983502,75.8732561450315,19.95539380151052,27.868794750001804,42.41025955022784,30.514338165821098,18.076166541435974
45.05839562101506,76.42588239937608,19.765819301325255,27.98647374953244,42.51412345921027,30.39427613894174,18.184977769441883
45.2247491332988,76.89451359146676,19.583422974989016,28.102883480522504,42.63512802229735,30.268614805086884,18.29504013680429
45.39022977855169,77.2765598774049,19.408249823234545,28.21766201512074,42.77285538580414,30.137943152979698,18.406095282983895
45.55423193232144,77.56983445701358,19.240287890483895,28.33043765060564,42.926788837690914,30.00282165691886,18.517856282467914
45.71608199299241,77.77255004274181,19.079468921849315,28.440846419427942,43.09631996747719,29.86378385479356,18.63001827533818
45.87504559638424,77.88331973196031,18.925672664571806,28.548547196318523,43.28074830255922,29.72133375780428,18.742265257832695
46.030337585597536,77.90115749317624,18.778733987805072,28.65321913488781,43.479268573306136,29.57594140858548,18.85426836510658
46.18113860974873,77.82547150568416,18.63844884175191,28.754547161894912,43.69096233027175,29.428046231621995,18.96568417413205
46.32661203793211,77.6560525348769,18.50457663757711,28.852211397861836,43.914808172464056,29.27806967590963,19.076160529162255
46.465915607302726,77.39306584140455,18.37684187517847,28.945887303909718,44.14970076668085,29.126424252458758,19.185344095576745
46.59820644709611,77.0370501036037,18.254940722502838,29.03524945887619,44.39445950713477,28.97350930979562,19.292880408782608
46.72264579333795,76.58891549362868,18.138553586246402,29.11996891161084,44.64783518934697,28.819699716770575,19.39840795213617
46.83841328435885,76.04993192302052,18.027355874788626,29.199705902737236,44.908547141420584,28.665339936615517,19.50155886355267
46.94472477828461,75.42171018027634,17.921020069218617,29.274111016018765,45.175350439997416,28.510747499008033,19.601978596829245
47.0408366193274,74.70618548808925,17.819212843240365,29.342839578885428,45.44708410741183,28.35621665114093,19.69935866642002
47.12603605892745,73.90560661200928,17.721594573132553,29.405565530823868,45.72266876542088,28.202012628744974,19.79345832735343
47.199635716536164,73.02252417527836,17.627822313901767,29.46198134255817,46.00107725115904,28.048360157061225,19.884103778911722
47.260982681559085,72.05977139025069,17.537552588092144,29.511791153995865,46.281314813471205,27.895437095771296,19.971182781546034
47.30947222550797,71.02043817096062,17.450441953939585,29.55471894393606,46.56241737044108,27.743377583427403,20.054654513563733
47.344550395511455,69.90784496220937,17.366149823528243,29.590540722343704,46.84345046887538,27.592277776382247,20.134567413575752
47.36570462538708,68.72552228821942,17.284355796304354,29.619118511553314,47.12349517497337,27.44219578938152,20.211062545696933
47.37245744884844,67.47719703696889,17.204797849704065,29.640408832608678,47.40163183604548,27.2931482987327,20.2843565922982
47.36437476128142,66.16677874756883,17.12731326725714,29.654447970949672,47.67694057688182,27.145114408081305,20.354719536446904
47.341079290609585,64.7983394635747,17.051854562430673,29.661334174679688,47.948514944385046,26.998050961297604,20.422458901899056
47.3022530188103,63.3760906894223,16.97847754396374,29.661215859640482,48.215465762285895,26.851909501459975,20.487906192498365
47.24762901580968,61.904363788142255,16.90732284894703,29.654280136005728,48.47690585448874,26.706641957913856,20.5513982950108
47.17698490002729,60.3875917702393,16.838604691452183,29.64073715791673,48.731934633466075,26.562196086254,20.61325820256805
47.090144484992685,58.83028726922021,16.772600059426622,29.620807950138122,48.97964633077201,26.418519552230396,20.673787309668864
46.9869834744496,57.237017821368276,16.709630403005725,29.594725831868768,49.21915742228713,26.275591702267263,20.733272579054947
46.86743046988716,55.61238416857615,16.650043009225172,29.562746454986517,49.44962460999887,26.13347217180976,20.79199489186574
46.73146125084365,53.96100607950775,16.594203507911445,29.52514963651245,49.67024421640732,25.99233031998735,20.850225621340975
46.57909534577977,52.2875132774104,16.542497149920756,29.482228608199364,49.88025523360636,25.852442248933983,20.90821541775773
46.4104050541964,50.596531706010644,16.495327433528658,29.43428310925207,50.07895639128589,25.71417604410679,20.966186462156262
46.22553333419564,48.89265982991802,16.453114173330235,29.381628174388666,50.265717005804895,25.577979458138373,21.024332043808272
46.02470418301377,47.18044167291128,16.416304370250714,29.32460579880422,50.43996478859408,25.444364151496583,21.082817679345347
45.8082194440275,45.46434675311023,16.385390703411538,29.263581239820773,50.60115883455752,25.313881628099736,21.141776862091763
45.576458582919734,43.74875941767508,16.360915121893207,29.198925051234657,50.74876670561732,25.187096276655264,21.20130294262865
45.32989771607798,42.037970934894496,16.343449978090216,29.130996638683403,50.88225774755445,25.06456434520133,21.26144616022762
45.0691369845316,40.3361672591491,16.33356882535543,29.060143022111607,51.00110858995813,24.946821502055272,21.322220660894214
44.79491202858121,38.64741246503884,16.331820916082805,28.98671070716793,51.10480687710853,24.83437193984815,21.38361389277032
44.50808804739234,36.97563268321557,16.338718921110512,28.911052733192324,51.192852293434484,24.727672313438088,21.44558792216622
44.20965473952133,35.324604492849,16.354739294869887,28.833521622166177,51.264764993750724,24.627114082445832,21.508072945027592
43.90072756365139,33.69794687356095,16.380321867139948,28.754462982029914,51.32009655201288,24.533013719338182,21.570962570801342
43.5825423129937,32.09911173786919,16.41585840406455,28.674224234128133,51.35842896203162,24.445614585263687,21.634119750852946
43.25643467647425,30.53137132281032,16.461674027718242,28.593168334515635,51.37936268820447,24.365093080478793,21.697391460962216
42.92381898732722,28.997809096916935,16.518009692759986,28.511674236902998,51.38250913718983,24.291559165854864,21.76061959446963
42.586187524295106,27.501322407984258,16.585008760210723,28.430123381620934,51.367499073778234,24.225051669206135,21.823641270926206
42.24512265697103,26.044633629499728,16.66270684613173,28.34888678110579,51.33400092765092,24.165539508105137,21.886286334469194
41.90229133992575,24.63029617250714,16.751024772478694,28.268324459678304,51.28173099394451,24.112937400907455,21.948379657708113
41.55941606863151,23.260688254575882,16.849766872054555,28.188792273539587,51.21045369702818,24.0671277607725,22.009743549642717
41.21824555639529,21.93800117529687,16.958626530638668,28.1106409488803,51.1199953671729,24.027971710762888,22.070193720362823
40.88053629755091,20.664235573996066,17.077196040034295,28.03420417536674,51.01028241697022,23.995307934095383,22.12953237840559
40.54803392017576,19.441214907803207,17.204974229940763,27.959785024975638,50.8813753659476,23.96895220154933,22.18754604038184
40.22244556813112,18.270608345413233,17.34136888545074,27.887643976442508,50.73346962754967,23.948700465717963,22.244008201066542
39.90540853803438,17.153944066547336,17.485697829327634,27.81798579479458,50.56687673038449,23.934327257134687,22.298680669341486
39.59846955456226,16.092608039604084,17.637197004500397,27.750947119383614,50.3820179349909,23.925576515611763,22.351310839352042
39.303081381972575,15.087838194784714,17.79504154997063,27.686590878094027,50.179432826209315,23.922150109879162,22.40162788891728
39.0206019007481,14.140717443858845,17.958373136810362,27.624913352750603,49.95977844545056,23.92370271949649,22.449342130709862
38.75228130897317,13.252162036777502,18.12631791345408,27.565863271964,49.72380825768608,23.929850861674925,22.49415131481766
38.499245738641946,12.422906826034922,18.29799001948562,27.509361087943397,49.472351563032305,23.940192405154004,22.535752654749775
38.262489958706006,11.653494484559975,18.47248912871207,27.4553059075435,49.2063170830914,23.9543226843732,22.57385147338886
38.042875955521694,10.944274780894895,18.648898496414773,27.403573062261522,48.926711625372555,23.971841881098904,22.608160310008525
37.84112506367376,10.295411681787549,18.826283510838817,27.354020218573798,48.634641202682715,23.992359215900038,22.63839378646596
37.657799674522344,9.706888471702399,19.00369006643522,27.30651322703858,48.33128535077171,24.01549581833397,22.664268510423533
37.49328435338106,9.178507658866573,19.180144103373074,27.260956507124497,48.01787332870619,24.0408837613696,22.685509540549585
37.34777848662801,8.709899103743467,19.354657586809893,27.217302993853643,47.695686679960815,24.068160767373737,22.701855870502357
37.22130108968166,8.300552461015924,19.526246189661293,27.17554257146608,47.3660720516452,24.096962839422186,22.7130593291474
37.11369643438701,7.94986399420343,19.69395286346212,27.135690441973715,47.03043292908027,24.12692049253539,22.718881377495403
37.02463325808657,7.657164983169172,19.8568633512267,27.09778861215765,46.69020378853981,24.157662478121495,22.719097995734256
36.95360679556034,7.421717597048755,20.014108750580817,27.061910310231333,46.34684329826197,24.188821107032407,22.713516224098328
36.899956136356174,7.242696534314403,20.164862463286365,27.028152056962423,46.00186014814627,24.22003026664018,22.701991501349706
36.86289098574781,7.119176383578665,20.308338703934734,26.996616856975752,45.65683554694891,24.25091752672494,22.68443284646101
36.84150940533951,7.05012588094743,20.443792979709308,26.967406268774734,45.31340874325431,24.281100656105217,22.660797298934614
36.834802475408885,7.034400843303324,20.57052186260968,26.940627707554643,44.97324589525539,24.310194325961508,22.631083632729393
36.841660398200844,7.070732355619665,20.687860962986615,26.916401851975355,44.638038304473476,24.33782055940723,22.595328797610403
36.86088834335279,7.157713751329699,20.795183360387696,26.894854821892885,44.30953373657678,24.3636123144681,22.55360255115763
36.89122237970082,7.2937913474024025,20.891903572881954,26.876100357810085,43.9895530205453,24.387208292075396,22.505997428860773
36.93133651656962,7.477260903070199,20.977488127538013,26.86022946374687,43.679961819696004,24.408246779308847,22.45261777394374
36.97984640778505,7.706267663350878,21.051464263282025,26.8473140607241,43.382623921379356,24.42636587295133,22.39357427578234
37.035319181736504,7.978806967430224,21.113418794906085,26.83741268429641,43.099371733573335,24.44120811202301,22.328986478391702
37.09629077542804,8.292726609138853,21.162991096336093,26.83056584747421,42.83199211030897,24.452422006497482,22.258987541205762
37.161283759480455,8.64573662888841,21.19987125922678,26.826784018044417,42.58220270589113,24.45965844642314,22.18372369771425
37.22881679186623,9.035428733079142,21.223808159448023,26.826043080462192,42.351611542648776,24.46256829284724,22.103350463551376
37.297404430740436,9.459297606022671,21.234619734296913,26.828303211682456,42.14167799465702,24.460810333882275,22.018035856574986
37.36555686726259,9.914755315027818,21.232195481226118,26.833546807696223,41.953690605231635,24.45407108321914,21.927974270276756
37.43179103707734,10.399141622576165,21.216491417368868,26.841806339899602,41.788755234209205,24.442083178878573,21.833399957961024
37.49465209291715,10.90974096028017,21.187525277709565,26.853168271930965,41.64778088869317,24.424629008353154,21.734587182468548
37.55273039231938,11.443808750608987,21.145376266829775,26.8677716489449,41.53146922377445,24.401534742709867,21.63183848167743
37.6046641130809,11.99859553958561,21.090185627546923,26.885812176012085,41.4403239198005,24.372671908365756,21.525472474708366
37.649135112873516,12.571358459107039,21.02215306444865,26.907537092800816,41.374674257598684,24.337973837025718,21.415816627813463
37.68487208803686,13.159365488889922,20.941529786416922,26.93322403282952,41.33468646396129,24.297454152251884,21.30320106414023
37.710663837484645,13.759906040877622,20.848612241519376,26.96316095119435,41.320352711344505,24.251211339680836,21.187951292477354
37.72537145918919,14.370310655501106,20.743740672299865,26.997640522116992,41.331476331912974,24.199427197090785,21.070386404025754
37.72793050141796,14.987968365961567,20.62730333593291,27.03695857353202,41.367674168302734,24.142381333027544,20.950829607989576
37.71734810004976,15.610333632976367,20.49973979587811,27.081400395488732,41.428394153020605,24.080478515078088,20.829625920627898
37.692705118443875,16.23492941485104,20.36153642680705,27.131216584706657,41.51292773135314,24.014260139706696,20.70715234060544
37.65316405968352,16.85935571997179,20.213217070839672,27.186605292322326,41.62040991879516,23.94439356680929,20.583812590083042
37.597973519111925,17.4813024972579,20.055336887320106,27.247712108153245,41.7498292205029,23.871666152635072,20.46002364039334
37.526463322482904,18.09855812175296,19.888482522331092,27.314638566676187,41.90006577336765,23.79699428916877,20.336209684339604
37.43803697618196,18.709009251198452,19.71327467167661,27.387444041011047,42.06993682245149,23.72142187506936,20.21281282288043
37.33217203362765,19.310638910640034,19.53036667265191,27.46614630706994,42.258214849319884,23.646091054902833,20.09031066065183
37.20842835803548,19.901531950655727,19.340438468617005,27.550738240379854,42.46361800251855,23.572202607502216,19.969221565026725
37.066453418554076,20.479887891331153,19.144193484515952,27.64121550283274,42.68480351051495,23.500989732292798,19.850092926806845
36.9059783713206,21.044034243503262,18.94236234811377,27.737589680836255,42.92038149028263,23.433706397372312,19.733484907099754
36.72681109192048,21.592433694915144,18.73570489906897,27.83987914053097,43.1689323936241,23.371613217885127,19.619959685913056
36.52883517544153,22.123685683410066,18.52500190562613,27.94809389710111,43.429006214262266,23.315949327334586,19.510073199633133
36.312014978327674,22.636534246125137,18.311041591036112,28.06222602745904,43.69911097485917,23.267896270128293,19.404364031055675
36.07639798268064,23.129890499939226,18.09461241368648,28.182242629994604,43.977720387443995,23.22854605838415,19.303343687933584
35.82210903431681,23.602855838941064,17.87650416055249,28.30807546613232,44.26331362928738,23.198877987142517,19.207496584973597
35.54934176729271,24.054724163245186,17.65750805545259,28.43960554851799,44.55441941151746,23.17974119709402,19.117287813183303
35.258356885307684,24.484962459399522,17.438410882989505,28.57664759652523,44.84962851756922,23.17184004257755,19.033165751165967
34.94948856941736,24.893187177762314,17.21999702727358,28.718944893201094,45.1475779392545,23.175725654761536,18.95555229401774
34.62314838671477,25.27914694916836,17.003078416969927,28.866178223387376,45.44693676058557,23.191800700259588,18.884828709565795
34.279819149670224,25.642707150423,16.788543246968228,29.01797688232195,45.7464056540825,23.220335771750918,18.82133052092818
33.92004398317365,25.983830197437776,16.577385313476597,29.173919064977763,46.04471520032507,23.26148386674736,18.76535461406797
33.54441742089719,26.30255492186471,16.37069585596285,29.333527580610554,46.34061409870904,23.3152830090422,18.71716714852548
33.153578383841705,26.598983354585272,16.16963737679488,29.496280721895825,46.632866973397505,23.381651835638312,18.677001440386974
32.7482029976677,26.873276172306632,15.97542136219848,29.661644711350625,46.920286883970164,23.46039007145365,18.645049886149426
32.32899883817622,27.125647798604525,15.78929164054174,29.82910493166286,47.20178893611541,23.551189341201773,18.62146148601555
31.89670566969364,27.356353547118882,15.612504152789425,29.99817299683692,47.476419341424204,23.653646932101466,18.606347805352346
31.452106959175357,27.56567357860936,15.44629961842795,30.168379385689853,47.7433423002577,23.767271679263963,18.59978802944492
30.996048141938303,27.75390630116193,15.29187572434128,30.339273643517075,48.001815082411376,23.891482210525357,18.60182509244165
30.52944819449881,27.92137567012389,15.150365368060752,30.510431159349224,48.251182013086435,24.025608444677538,18.612456654589167
30.053295542863747,28.068440334969825,15.022820382383198,30.68145001824336,48.49088014362526,24.168904364201694,18.631630473438662
29.568633585249316,28.19549096337598,14.910197218237197,30.851935744427134,48.720431141144026,24.320566077719544,18.659247690682946
29.076546698486712,28.302936983605044,14.813344131037477,31.021490659410063,48.93941430079337,24.479742326542052,18.695167290055114
28.57815208283967,28.391192895280504,14.732998016576081,31.189719265145268,49.14743705689308,24.645535201344746,18.73920498063539
28.074594678329998,28.46067123549318,14.66980563162611,31.3562387727475,49.34411386202239,24.816999034046578,18.791133826734765
27.567038918087754,28.511782592183273,14.62436573867165,31.520678080133028,49.52905013078825,24.99314224217767,18.85070542442914
27.05665540887956,28.54493676673062,14.597259288361897,31.682669377816165,49.70183105127724,25.17293109930361,18.917697096937047
26.544607987960553,28.560539979940188,14.589045183349787,31.841852581970688,49.86202653227847,25.355293204274524,18.991958328170533
26.032048722308296,28.558993503015337,14.60023762601482,31.997895982852192,50.00921658260672,25.539120730764424,19.073423443206046
25.520119983318878,28.54070389959301,14.631290242348086,32.15051038351579,50.14301925295154,25.723280563645698,19.162091410694806
25.009953149945105,28.50610187074137,14.682590248709005,32.299443834633585,50.26309727724674,25.90664050546061,19.257998862486346
24.502659808385637,28.455653942651033,14.754450403146459,32.44447968559709,50.36914231770879,26.0881046520619,19.361200873404954
23.999326973670122,28.389860476721058,14.847092850977402,32.5854663109437,50.46086164886097,26.266636130626594,19.471754602401468
23.50102797082474,28.309251575483508,14.960630377035104,32.722367209391614,50.53798792199081,26.441259757643067,19.589700004977875
23.008841123604316,28.214394158259495,15.095050447486585,32.85528893648956,50.600301085986345,26.611062856610452,19.715040817075803
22.523856552864235,28.105906480127956,15.250202752644919,32.984465786164385,50.64763611680628,26.775211179079427,19.84773290579536
22.04716685627357,27.984463772335683,15.425789976166202,33.11021918575261,50.67987668485867,26.932970859974546,19.98768268114698
21.579858549683443,27.8507906337827,15.621361389963802,33.23291941357115,50.69696422183766,27.083716824660993,20.13474865715864
21.123015603309447,27.705654852324063,15.83630972311727,33.35296445217708,50.69893287273134,27.22692773432044,20.288736947381924
20.67772393200528,27.54987217591922,16.06987541150948,33.47077627317594,50.68593831846797,27.362181995527965,20.449391277625086
20.24506407171255,27.38431119009141,16.321161583398606,33.58680744467966,50.65825225377829,27.48915678883933,20.616384600995012
19.826100927054306,27.209885653810485,16.58915365292363,33.701550440477504,50.61623733635599,27.607619203322507,20.789314967759758
19.421887783560635,27.02754004024464,16.872732602487705,33.81554025812618,50.56032860780331,27.717407352724575,20.967703144407736
19.033481298881433,26.838243799758665,17.170679645181917,33.9293406322915,50.491019766678136,27.81841401417245,21.150990859530644
18.661945628679966,26.64299602696655,17.4816798775556,34.04351434813359,50.40884058145116,27.91058434624528,21.338542679916635
18.30833482025702,26.442824791790347,17.804333046789882,34.15859124426483,50.31432986626982,27.99392319328665,21.529656610246985
17.973663966259007,26.23877068689021,18.137171294041075,34.27504886228755,50.208023572285,28.068496215937255,21.72358510538228
17.658884683615867,26.031861120626026,18.47867752910664,34.39330705092811,50.09046489182752,28.13441683250486,21.919558325839624
17.36487147990607,25.82308683416235,18.827305726380217,34.513722596421566,49.962216691469564,28.19182515090121,22.116797221273504
17.092413897354625,25.613387695341626,19.18150901150244,34.63657428131156,49.82385420013678,28.240868973202016,22.314514872613927
16.842205706315653,25.40364768957414,19.53976716474509,34.76204832660551,49.67594520641989,28.281691699708965,22.511918016369265
16.614831268113555,25.194691710826543,19.90059897397193,34.890239255596576,49.519049781048196,28.314424734621767,22.708219288344814
16.41075884458036,24.987279037206218,20.262560125992753,35.02116288142297,49.3537560926567,28.339181010810282,22.902655044198827
16.230345876827933,24.782099807173875,20.624239642230656,35.154763474709846,49.180723728538325,28.356053221947025,23.094494559893516
16.073846986169308,24.57978474475536,20.984265772069456,35.29090896078921,49.00069273463115,28.36512055476622,23.283037969173687
15.941413308479962,24.380924744064124,21.34132059721218,35.42938870598686,48.814460477329995,28.366456840665883,23.46761668561742
15.833084045810548,24.186082731947735,21.694152141742116,35.56992681508049,48.622868165395396,28.360130254214216,23.64760626266481
15.74877936710099,23.995789138750794,22.04157758094094,35.71220210944581,48.42681761074554,28.346195317764867,23.822441437715415
15.688300474317515,23.810534776086726,22.38248276175187,35.85585607128843,48.22728857239197,28.324685559211545,23.991617491449567
15.6513340123239,23.63078177538023,22.715824519099417,36.00048655077772,48.025324872114176,28.295611601259125,24.154678345071076
15.63745370513139,23.45699299702259,23.040634933640114,36.1456437047313,47.822002200955836,28.258961584119806,24.311204578169683
15.646117524649224,23.289655110639394,23.356020701395522,36.290838188271564,47.61840598167645,28.214699186615125,24.460810107735455
15.67666830203335,23.129276009764943,23.661156189216708,36.435550601269156,47.4156184555961,28.162760842125454,24.60314367959386
15.728346885318286,22.97636601478504,23.955283206869247,36.57922966508857,47.21469711021815,28.103059019613067,24.73788585177492
15.800313666910247,22.83142293716955,24.237730846744213,36.721290365078715,47.01664573484434,28.03549516856146,24.86474017371
15.891662992279134,22.694925151343316,24.50794532568491,36.861138418431295,46.822399486600666,27.95997587273697,24.98342925650793
16.001423882469318,22.567322658248408,24.765503803034473,36.99822258486064,46.6328313004782,27.876421185128777,25.093705053254364
16.1285563076163,22.449022616415135,25.010104470135257,37.13207773594496,46.44875803389855,27.784762502728807,25.19536498480206
16.27195442687158,22.34038133409737,25.241551555341278,37.262330433352275,46.27092708862147,27.684937625878693,25.288256809994163
16.430457998912846,22.241714838797485,25.459751915520787,37.38868563938926,46.099994963394565,27.576892544415056,25.37226985041399
16.60286331494724,22.153319564739622,25.664717795611832,37.510928244201224,45.93652444397358,27.460593417367757,25.4473246787407
16.787927679507533,22.075480757081742,25.856560659535166,37.62893955550193,45.78100632855167,27.33604176739795,25.51336902431667
16.98437377564536,22.008461353803273,26.035473411344917,37.74269975045489,45.63388026207193,27.20328238185973,25.570376099008527
17.190904092116988,21.952486781724176,26.201712307997877,37.852264917767165,45.49553121983978,27.062404263896127,25.61833868349045
17.40622310017883,21.907741061736424,26.35558848504674,37.957741696488405,45.36627136475664,26.91354667507081,25.65725876486869
17.629052948939037,21.874371158690582,26.497465520357764,38.05927943678852,45.2463341771437,26.756915527762537,25.68713941349721
17.858136174367058,21.852485690062576,26.627750401017092,38.157068629079006,45.13588703055381,26.592797157020012,25.707985542643666
18.092234691664235,21.842144481996343,26.74687420703739,38.25132547849707,45.03504038037973,26.421556074574326,25.719811772963293
18.330134598213796,21.84335036167196,26.85527486763092,38.34226460636263,44.94383702128202,26.243623113822167,25.722647963675993
18.570653759242244,21.85605123240892,26.953395571903965,38.4300793344403,44.86223522105037,26.059490476551503,25.716536909798833
18.812643285615188,21.88014487190731,27.041695153544413,38.51493854660578,44.790115130400814,25.869716475379644,25.701528657489487
19.054981577047513,21.915475766796607,27.120652194820433,38.596986736416454,44.72731687550937,25.67492596286526,25.67767892687771
19.296569733215044,21.96182772878299,27.19075334027543,38.6763319260128,44.673679767798305,25.47579684972107,25.64505240268695
19.5363376610528,22.01892680392429,27.252475546064613,38.753027464636794,44.62905031802125,25.273040031484992,25.603723977454894
19.773258680360307,22.086458144576078,27.306277232903,38.827070065589965,44.59326829478659,25.067386279303037,25.553773963866234
20.006359159660345,22.164080892622035,27.35260120270716,38.898423239881026,44.56615894559994,24.85958427646296,25.49528280132511
20.234715112324523,22.251426319403734,27.391878850755756,38.967044694816785,44.547533922399396,24.650399884492984,25.42833235149804
20.457442533895996,22.34808318839867,27.42453075740747,39.03289794193343,44.53718347544371,24.44060527661609,25.353012413759473
20.67369241493683,22.453585194959842,27.450971757563185,39.095962716415556,44.534858442020514,24.23096022998008,25.269423933163566
20.882652640453678,22.56741501925124,27.4716214602569,39.156259786015966,44.54026377044054,24.022198300648792,25.177676058455816
21.083550061703903,22.689026265477388,27.4869076381602,39.213870632062324,44.553075706380085,23.815024402214906,25.077888242789143
21.27564766124129,22.817864220789367,27.497257218381794,39.26892816019492,44.572962452867436,23.6101153725516,24.97020994439221
21.45824033644164,22.953371363389664,27.503084884416197,39.321585231957876,44.599582677595606,23.40811281845614,24.854850914609667
21.630655590303867,23.09498887433786,27.504788054710065,39.37198445275606,44.63256964507676,23.20961115100673,24.732099611918315
21.792259433904036,23.242167332324733,27.502744860319567,39.42024415544052,44.67153710191528,23.015153575804753,24.60231891243275
21.942461556726062,23.39437916796378,27.4973075775516,39.46645692988793,44.71612151500499,22.825241849619374,24.46592882726188
22.080714920900387,23.55111987190615,27.48879005163472,39.51068518082236,44.76602463812376,22.64034940001028,24.323392792724178
22.20651228740675,23.711902568016644,27.477454672599247,39.55294706646716,44.821019917878374,22.4609251841248,24.175219240007547
22.31938786885413,23.876263238045762,27.46350860860906,39.59320125445017,44.88093799837149,22.28739330714266,24.021974453057197
22.41892866930149,24.043779271144963,27.44711719009761,39.631337961534115,44.9456620322965,22.120161506792826,23.864287808088022
22.504788892215497,24.214082144121015,27.428428652185573,39.667173743257386,45.01512790780105,21.959634954183198,23.702841133359705
22.576696392583393,24.386849878425796,27.407591471919535,39.70044533594277,45.08930717449713,21.80621896448901,23.53835645061005
22.634449484262124,24.56178661021701,27.384754788141926,39.73080267048336,45.16817503591384,21.66030568293288,23.371593775865474
22.677912779035307,24.73860498863416,27.3600624471958,39.757806189640455,45.25168932958678,21.522255099632325,23.203350191876307
22.707019833261153,24.917018780756386,27.333653324405244,39.78093840486351,45.33979321613828,21.392381132200804,23.03444785465719
22.721780291860487,25.09673988904669,27.305665543624247,39.79963455573473,45.432422564901785,21.27094496855211,22.865713394347758
22.722281837727643,25.277469563867648,27.276234324022397,39.813317421690286,45.52949417412257,21.158150435084917,22.69796131663204
22.708681968526946,25.458883032949057,27.245481145827522,39.821415312199505,45.630878587365416,21.05413722497665,22.531988659906972
22.681195608460236,25.640617200792274,27.213500100099157,39.823364540352436,45.73638321713224,20.958973914872004,22.368574315294996
22.640089498349365,25.822269660900982,27.180347223188715,39.818612203593155,45.84576009464446,20.872653846854522,22.208471997664624
22.585687302613774,26.0034055305756,27.146039132658807,39.80662216021352,45.95872159923178,20.795096207109925,22.05239517823106
22.51837585838364,26.183560722134786,27.11056568306615,39.78687566724652,46.07494203325425,20.72615289364974,21.901002237199734
22.43860052781264,26.362237970893535,27.073909804086462,39.758865224863236,46.194053086561546,20.66561518635319,21.754894544369733
22.346851532947145,26.538906558776834,27.036063240919628,39.72209071993943,46.315654758674675,20.613214656547555,21.61463138173963
22.243655027532437,26.71301838400402,26.99703906328604,39.67606701030841,46.43933577022376,20.56862349176228,21.480745499547716
22.12957666792954,26.88403495848218,26.956884941313625,39.62033950171013,46.56467809972662,20.531461719948418,21.353743750959076
22.00522889771828,27.05144430814663,26.91568945855895,39.554492966787095,46.69124350222131,20.501308377793467,21.234101495044474
21.871268609255004,27.214758768208302,26.873574730684158,39.47814750029019,46.818569023224896,20.477707904498782,21.12226474536324
21.72838489466988,27.373506699974303,26.830683489715287,39.3909544577348,46.94618716873283,20.460170276616616,21.018654952390037
21.577289158197544,27.527231990517407,26.787171601286495,39.29260651830401,47.073649343684274,20.448172855104783,20.923664482429903
21.418717976176488,27.67549937782381,26.743204452818794,39.182855954667055,47.200524194512276,20.441171094327935,20.837643512200327
21.25344408729411,27.817894824963616,26.69894883419554,39.06152244111155,47.32637306823662,20.438614979279834,20.760889112317564
21.082279809551192,27.954016975248148,26.654560872835795,38.928484141280876,47.450724324160134,20.439960933810436,20.69364393184518
20.906067103010216,28.083466906763807,26.610184506210963,38.78366365416506,47.57305779009021,20.444673334976326,20.636100347269764
20.725666593406434,28.205846584876774,26.56597360946941,38.627023921968295,47.69279501561346,20.45222010183373,20.588400102972464
20.54195658239531,28.320767440292467,26.522126239383585,38.45857907387337,47.809290736731356,20.462072748605472,20.550626126318736
20.355835296746896,28.427857729184822,26.478902101876873,38.278409092810826,47.92183574035018,20.473715510250216,20.5227915429807
20.168213770410418,28.526759162053285,26.43661212841198,38.08666387063459,48.029687761705674,20.48665562253686,20.504831548138206
19.979999534738365,28.61712161167132,26.395593530130505,37.88355804965554,48.13212287587632,20.500425691401368,20.49659946143334
19.792084030015108,28.69861964028901,26.35618396426738,37.66936621613976,48.22847224744715,20.514582262334446,20.497865816299978
19.605345575137363,28.77099938217954,26.318698269378928,37.44441745072511,48.31812336870363,20.52871213373741,20.508322472998632
19.420663600141715,28.834125601468333,26.283407728354728,37.20908410833469,48.40050458340695,20.54244715955122,20.52759734661279
19.238925935306213,28.887995035043907,26.250523699677736,36.963771991191564,48.47508465753984,20.555474714657308,20.5552811292388
19.061019965924853,28.932723195676783,26.220190443786763,36.70892532281944,48.541392199118654,20.56753721077834,20.590956195131394
18.88781710048539,28.968530332861896,26.192490115486166,36.44504338388115,48.59902963613514,20.578431433217414,20.634212168390672
18.720161918626964,28.995730359213827,26.167453597360446,36.17268761038359,48.64766349634028,20.588019601160518,20.684643156231562
18.558865592977924,29.014712135434376,26.145065536716675,35.892470002057124,48.6870054908438,20.59624634378553,20.74183657437133
18.40469682386234,29.025913411258045,26.125260146111938,35.60504035214556,48.71681658537508,20.603144002099583,20.805364265952228
18.258368209829587,29.02979986946704,26.107916096762292,35.31108986884274,48.73694582294208,20.608821036892625,20.87477784910038
18.120522143040404,29.026856652447425,26.092860438730575,35.011363162773954,48.747372490870404,20.613449763787003,20.94960506545945
17.99171999914168,29.017585047753876,26.079882992279,34.70665889188486,48.74821316973223,20.617268839687277,21.029344618796607
17.872434540555435,29.00249447668693,26.068752711642617,34.397815092774394,48.73970011788605,20.62059197227759,21.11345965505926
17.76304393224622,28.982093746093035,26.059225650075373,34.08569140689474,48.72216386239902,20.623802775653825,21.201371259415676
17.663827669008455,28.956893614148633,26.05104351540225,33.77116256862314,48.69602537464428,20.627333446966453,21.292453372758477
17.57496706832789,28.92741973900392,26.043930013509417,33.455128319636266,48.66177958497863,20.63164449255093,21.386030254725448
17.49655228003409,28.894218536240313,26.037588732669565,33.1385257892021,48.61997812063765,20.63721793983319,21.481376831085615
17.4285934935782,28.857844513820634,26.031701005349664,32.82232382071201,48.57124763883774,20.644556757621565,21.577721610012272
17.371030305432026,28.818837563623912,26.025922611264203,32.50749825988856,48.51634434469692,20.65417590753943,21.67425253937104
17.32373556406195,28.7777066739533,26.019879097344045,32.19500482470844,48.456189101049375,20.666583577826085,21.77012740458767
17.28651701162278,28.73492839329604,26.013160781570882,31.885762245800635,48.391845379404465,20.68226433739846,21.864487815067378
17.259123531768616,28.69095318033759,26.005321572522405,31.580646256320257,48.32446727603436,20.701671472245213,21.956471051070164
17.24125741226873,28.6462053633834,25.995884098331324,31.28049106113579,48.255262327056954,20.72522236396491,22.045215800046737
17.232584990188915,28.601071942788987,25.984346971655057,30.9860970232407,48.185475351241024,20.75328846824057,22.12986500769581
17.232738253100887,28.555886848407376,25.97018952187371,30.69823935707464,48.11636704671069,20.786180423353997,22.209572179048084
17.24131002620655,28.510917638134416,25.95287766996556,30.4176680010506,48.04917630529362,20.824134512677738,22.283513117075408
17.25785178160814,28.46635787556871,25.931877572801696,30.145095547128445,47.98509086808208,20.86730487692009,22.350898247975127
17.281879505634656,28.42232462512965,25.90667335654859,29.881180790053016,47.92524873363967,20.915760640494998,22.41097979025882
17.312883924632363,28.378857136445554,25.87677799246775,29.626518497522802,47.87075259170753,20.969483804794702,22.463053496331984
17.350336432911245,28.335915932007243,25.841736478507773,29.38163772759118,47.82266240141574,21.02836614065844,22.506458358860364
17.393688197929393,28.29338801452587,25.801131740658004,29.147000020488957,47.781964311492416,21.0922092119363,22.540576409183238
17.442369846300334,28.251100173770745,25.754597093107726,28.922992424920388,47.7495494272544,21.16073355570912,22.56483298745992
17.495800063646726,28.208831699539704,25.701826210496165,28.709923259911903,47.72622230461009,21.233594726216587,22.578699002081322
17.55340107647967,28.166318729237542,25.642572043780802,28.50802972436171,47.71271654908192,21.31039485435263,22.581696511800217
17.614609472518215,28.12325540529687,25.5766384430276,28.317493878105203,47.709689443789046,21.390684593757722,22.57340621433375
17.67887558354934,28.079305326447212,25.503878929895937,28.138452487412565,47.71770800123501,21.473964434837022,22.553476046576083
17.74565693615381,28.0341270604444,25.42421373322243,27.970991570705596,47.73725662111039,21.559694351863925,22.52162980931526
17.814414031503333,27.987398104441226,25.3376562098977,27.815135368648324,47.76876081235205,21.647307300445274,22.477670450177385
17.884609474189787,27.938822387701084,25.244326316501127,27.67085199925171,47.81259223371661,21.73621700500096,22.42147574576035
17.95570635111825,27.888128254115216,25.144442865660537,27.538083506122973,47.86904557636866,21.825818421171114,22.35299537018122
18.027164561640255,27.835073450421913,25.038307563174996,27.416776341955647,47.93831880002758,21.915486861395557,22.272262342352352
18.09844003556922,27.77945856208349,24.926294976667428,27.30688647047488,48.02052578429957,22.004585568483023,22.179417402420857
18.168992575777256,27.72113366373607,24.808847973630535,27.208367300211552,48.11572702408955,22.09248766618316,22.0747256508512
18.23829980434449,27.65998884503293,24.68646868123553,27.121165069927653,48.22393989374106,22.178602288429552,21.95857005572576
18.30586731461681,27.59593726159172,24.559702217066242,27.045224999738387,48.34512112835155,22.262388745481225,21.831430528667255
18.371228904039455,27.52890428321128,24.42912476157027,26.98049108719372,48.47915313019577,22.34336077641728,21.69386650494285
18.433940188298312,27.458826542688048,24.295349000574294,26.926893001557794,48.625852803937136,22.421092070982066,21.546508683069423
18.493574371061637,27.38565379540004,24.159041411910774,26.884335147879966,48.784981498551865,22.49521929788869,21.390051927724326
18.549725805617946,27.30934680363514,24.02092973361874,26.85269963184306,48.95623245754609,22.565433924543495,21.22524279473292
18.602016869860716,27.22987579688757,23.881791494230384,26.831852685136866,49.1392067195371,22.631467971569148,21.05286984699849
18.650099694933008,27.14722930261807,23.742436816719987,26.821639737988143,49.333408156239415,22.693085737303793,20.873773399277237
18.69365188947748,27.06143072038252,23.603696126818427,26.82187106758251,49.53826732960326,22.750085799412513,20.6888739627499
18.73237284466864,26.972547072646556,23.466407424392568,26.832310476031473,49.75316647205783,22.802306197825224,20.499192706276194
18.76598761030132,26.88068236736526,23.331397968745378,26.852674413317743,49.977438614058,22.849623289963706,20.305843225032834
18.794258219474813,26.785964435209813,23.199465500413563,26.88263671896718,50.210353558254724,22.891944347335077,20.110002195944983
18.816993010251927,26.68853801852633,23.07136496888067,26.921827902135895,50.45111783064964,22.92920246086086,19.912876748892
18.834047473853513,26.58856847691529,22.947801087640755,26.969827599395266,50.69888654319005,22.96135732527723,19.715677647102584
18.845322462091133,26.48624824098762,22.829423364709026,27.026163850412534,50.95276360320194,22.98839442220531,19.51959817735063
18.85076767395429,26.381794934120432,22.716818670836517,27.090331825561265,51.21178654787707,23.010315850213857,19.32579507034867
18.850387985589986,26.275441610673617,22.61049913091536,27.16182367313325,51.47492290392695,23.02712665614773,19.135370870185604
18.844243267155786,26.167430997390856,22.510889858087474,27.240147160144527,51.741096438283535,23.038825728774537,18.94936349890785
18.832438498173556,26.05801985199245,22.418324163155273,27.324828468748695,52.00922131355269,23.045407087606762,18.768747994272783
18.81511042579624,25.94748389366723,22.33304787512318,27.415416352954495,52.278213983029694,23.046868558243307,18.59444424751633
18.792417290778854,25.83611252242925,22.255225415497858,27.511493273815304,52.546995005997836,23.043217386229074,18.427318144943424
18.764532298904875,25.724196357228553,22.18494212904626,27.61267928155835,52.81451634608616,23.03446647811205,18.26817434552204
18.731637946313576,25.61201832888455,22.122208197799,27.718625683619386,53.0798097925994,23.020626037458104,18.117753894109164
18.693919235644398,25.499852568039476,22.06697048500737,27.82901440795568,53.34201217833501,23.001700263108543,17.976746140153413
18.651557321266925,25.387964123036774,22.019126913115315,27.943567413909303,53.600347581640214,22.977692308969992,17.845804283694292
18.60472903346109,25.276601779852417,21.97853228166823,28.062049343438485,53.85409363668385,22.94860981079997,17.725546956732977
18.553615133913578,25.16598687909342,21.94499474308373,28.184251710891036,54.10256252862024,22.914464955364853,17.616547165342304
18.498409582961045,25.05630761572411,21.918275059407804,28.309966756646293,54.34509566507288,22.87527929635768,17.51932994599817
18.439320106759137,24.947721868737503,21.898097808345906,28.4389675555131,54.581052147453576,22.831106017652736,17.434392217212064
18.37656217513082,24.84036074084991,21.884167176599682,28.571003091260412,54.809786586987954,22.78205868822518,17.362228472045928
18.3103563579465,24.73432614088805,21.876173519650653,28.705800390149815,55.03063626132936,22.728322259206617,17.303335839720116
18.240933345649356,24.629688177502818,21.873789044450326,28.843059959788015,55.24293106792507,22.670141437798726,17.25819528253145
18.168540377188286,24.526493304213833,21.87666311545544,28.98244480631796,55.4460085464743,22.607802375956467,17.227244607041253
18.093441094340264,24.424782601725727,21.88442657755721,29.12357515724717,55.63921127668833,22.54162230718003,17.210854504235577
18.01591027761305,24.3246054178974,21.89670284986795,29.26603300641088,55.82187660525122,22.47194865275366,17.209309436546164
17.9362327336134,24.226017997813706,21.913114214594184,29.409366937875923,55.99334713986428,22.39915838143101,17.222792897785144
17.85471043995196,24.129073668529845,21.933281108325094,29.553088621151677,56.15300236227419,22.32364942035907,17.25137957826726
17.77166990694549,24.03381781309061,21.956834001544706,29.69666534349403,56.30027861318993,22.245825967405008,17.295038419839948
17.68746033949018,23.940291720940692,21.983455906918657,29.839521697531538,56.434659169520145,22.166085972258156,17.353642984975494
17.6024444206597,23.848536710876818,22.01293593454862,29.981055820404116,56.55565523580177,22.084816153747955,17.426977691689313
17.51699038377247,23.758589601734062,22.045192614484193,30.12065752622409,56.66280531044024,22.002390817783226,17.514735110720473
17.431468911220946,23.670471748271925,22.080256554630825,30.257714836578064,56.755690100050366,21.919166623856324,17.616512889843317
17.34625049029076,23.584180347860237,22.11823701744954,30.391616641050536,56.8339369630307,21.835474416010666,17.731821368763736
17.261698707407472,23.499685572671968,22.15929361248368,30.521768284991804,56.89720447302194,21.751619241911612,17.86010097027364
17.178160476177453,23.416928748310767,22.203615045507206,30.6476178402251,56.945169844503035,21.667892617217348,18.000735707282704
17.09595773238516,23.335817528356294,22.25139882408658,30.768672597724443,56.977540716757424,21.584584141373146,18.15305347664466
17.015386579148878,23.256222941016524,22.302829924240235,30.88449411486735,56.99407901403545,21.50197950622786,18.31631916740459
16.93672538329418,23.177989159772093,22.358063735258966,30.994680958795314,56.99460888361942,21.420349729358616,18.48973281584246
16.86024259181599,23.10096014670448,22.417219594169133,31.098855642832138,56.97900644242513,21.339949530150676,18.67243783094739
16.786195514508197,23.02500903102452,22.480382433565953,31.196663065245595,56.947196479613766,21.26104011798828,18.86353305116567
16.714826763528023,22.95004967117155,22.54760239028028,31.28777321544843,56.899168255369,21.183928760390597,19.062079671878056
16.646373058825223,22.876029366611323,22.618887512808676,31.371876885015364,56.83498975639849,21.10899405745257,19.26710177419011
16.581086529149278,22.802921305753266,22.69419710311863,31.448675068259373,56.75479829726371,21.036681402681896,19.477587386274156
16.519249687413545,22.73072759767213,22.773451177770035,31.51787572900711,56.65877489783432,20.96748871712141,19.69249883724835
16.461171660798136,22.659482596269275,22.856562834171495,31.57920612156798,56.54712830830276,20.9019621494004,19.91079179498142
16.40717469495083,22.589245131565924,22.943474654235544,31.63242864572185,56.42010164953768,20.840693678525678,20.131430133783237
16.357585384366473,22.520085182371687,23.034173890433845,31.677343307039035,56.27798584760256,20.784306156517875,20.353389450650216
16.312733278116546,22.45207665857491,23.128687845061503,31.713776470000294,56.12111774489312,20.733428306498695,20.575659000103453
16.27294806362344,22.3852974560895,23.227074895312466,31.741566464781783,55.94986961286003,20.68867235882464,20.7972519411366
16.23854885538753,22.3198278575484,23.32941303426157,31.7605543320168,55.76465601913001,20.650620050366303,21.01721827367937
16.2098308826046,22.25574205616322,23.43578155616479,31.77058259344731,55.56595900780063,20.619810832443754,21.23464999330142
16.18705842429222,22.193099502111757,23.546239230299413,31.771498577066254,55.35434102075738,20.59672642820673,21.448677903164626
16.170464206223894,22.13194615282069,23.660807059200046,31.763159377807586,55.13042988450483,20.58177827667333,21.658467087164638
16.16024787611391,22.07232460581342,23.77946162405734,31.74544388564389,54.89489810074417,20.575310334807185,21.86321759989478
16.156569446589078,22.014280199327203,23.90213615452698,31.718272922910685,54.64845687590931,20.577616985393657,22.062170754611767
16.159541218658315,21.957855179827472,24.02871913394761,31.681623012413674,54.39185261148118,20.58895768919127,22.2546143086625
16.169224338584574,21.903078110175883,24.159047316871938,31.635522736313632,54.12584807966167,20.60955344254255,22.439883527538765
16.185632630301914,21.849960966742437,24.29290317255958,31.580041399654018,53.85119397110038,20.639570643611734,22.61736683336394
16.208738688014524,21.79850758709907,24.430025662606678,31.515286736383068,53.568612713055565,20.679107067118267,22.78652291494975
16.23847497795897,21.748723520133996,24.570127295521047,31.44141351404642,53.2788119524449,20.728187862977695,22.946898306313702
16.27473210822171,21.700615064570776,24.712902500985816,31.35862918525196,52.9825171202752,20.786768661214808,23.09812871783659
16.317365150612602,21.654179229627395,24.858024064451822,31.267188169642896,52.68048834469514,20.854737183377043,23.239924032049704
16.366212278418992,21.609400147839903,25.00513682258558,31.167386378755054,52.37350973822638,20.931909213534368,23.372050329262805
16.42111420481813,21.566263417262522,25.153855373310975,31.059573308066046,52.06238023322937,21.018022421734965,23.494317755281376
16.481920252773342,21.524778586039766,25.303763934987934,30.944179528749665,51.747927586592255,21.1127331048956,23.606572531351656
16.548481774289243,21.48498916892399,25.454413682876904,30.82173652014321,51.43102391821738,21.215616684813813,23.708688133187778
16.620646462614264,21.446966041625195,25.605316101976104,30.69287081542678,51.11257614937605,21.326168794515915,23.80055512364093
16.69826270455101,21.41079615245535,25.755935035311445,30.55827960008474,50.793505528254485,21.443805442025585,23.88207385489823
16.78118744624415,21.37657300713076,25.905681272923914,30.41871032381688,50.47474942092798,21.56786631716549,23.953153977503398
16.869286625495356,21.344385917623857,26.053910616835488,30.27495415644569,50.15728442589314,21.697625584761443,24.0137189739047
16.962430333885155,21.314306135673068,26.19992315008649,30.12783995158549,49.84213417180009,21.83230625616281,24.06370888760027
17.06049364195528,21.286374094163524,26.342962514771784,29.978216342591562,49.530345564217505,21.97108932348178,24.103079223170933
17.16336527385651,21.260595664010395,26.48221882899924,29.826930240676546,49.22296278391139,22.113115286982104,24.13180553220492
17.270953583191456,21.236949390788272,26.61684098050851,29.674814932593556,48.921024640062114,22.257482641326476,24.149903911347764
17.383180587618853,21.215394198857613,26.745956301709633,29.522685258917416,48.62556772132764,22.403247376332235,24.15745947449478
17.499967975659732,21.195867344998028,26.868687317970227,29.371327409591185,48.33760913534393,22.54942583913395,24.154641255722552
17.62122845482968,21.17827650837019,26.98416477156144,29.221479095816644,48.058119101169765,22.695002134597242,24.14169512106433
17.746871639481846,21.162497154136588,27.091553104666676,29.073807121224107,47.788017563871314,22.838938635368955,24.118925542293674
17.876816963056292,21.148379024921717,27.1900985094825,28.92889167649033,47.52820401278222,22.980190534804443,24.086678150142653
18.010996107719127,21.1357544484208,27.279181072967827,28.787224458949034,47.2795856781889,23.117729987735135,24.045326569528584
18.14934100261683,21.124440829642545,27.358339970953207,28.649218994443615,47.043071220311354,23.2505768549198,23.995261593934146
18.291772036770002,21.114240677198126,27.427264560988235,28.5152202398231,46.81954538974869,23.377820062777072,23.936879593712412
18.438197094118856,21.104949114708397,27.485772279670414,28.385507799191043,46.609859993340635,23.498620194513066,23.8705711695056
18.58851349678255,21.096370628338864,27.533792150258623,28.260303536989202,46.41484088708247,23.612200876751984,23.796716838731854
18.74260120203335,21.088333436283143,27.571353053375585,28.139787564164735,46.23528056291832,23.717841975676492,23.71569260020565
18.90030954869375,21.080690946607,27.598568278136387,28.024108351492657,46.07190800655889,23.814883706207794,23.62787655117789
19.0614498447017,21.073313713413896,27.615615061629878,27.91337665994978,45.92536656382351,23.902740487496935,23.53364851626026
19.225799940735854,21.066083380245797,27.622714804604556,27.80765168738032,45.79622843363517,23.980911217892587,23.43339032839652
19.393112456208275,21.058895790555944,27.620121183745944,27.706935646466153,45.685029892659465,24.048976768945746,23.327501374034984
19.563115182135398,21.051668668520193,27.608118402294377,27.611183771050463,45.59228368848791,24.106592444009358,23.216427497300156
19.735505130944116,21.044343260423044,27.58702161638322,27.520319879096384,45.51845402549791,24.153487231636806,23.100680996415633
19.909948247363214,21.036880317733743,27.557170426940665,27.434243230485833,45.46392233895579,24.189468419838708,22.980836655936628
20.08609042315614,21.029264236857195,27.518918555585476,27.35282750865346,45.42897180978215,24.214420551657163,22.857515647447062
20.263570129563373,21.021520520192045,27.47262950149474,27.27592316809323,45.41378536766337,24.228296326652433,22.73138031640298
20.442020796264263,21.01373048078004,27.418678490590125,27.203364544632446,45.41843682514158,24.231111044715657,22.603145586791587
20.62106574901761,21.006027125016004,27.357451245523787,27.134971948356107,45.442876399152354,24.222948369941967,22.47358874328009
20.800318156466847,20.9985769053157,27.289334883397395,27.070544231439722,45.48692827921157,24.203967577225193,22.3435404214465
20.979389694946242,20.991562814045167,27.214706737473488,27.009851191241,45.550299014215035,24.174398802753352,22.21386154885972
21.157898069151663,20.985175888264422,27.13392872478619,26.9526407674075,45.63257711075162,24.134529052492628,22.08542215930806
21.335464271062882,20.97960978873346,27.04734743061908,26.89866173151768,45.73321897109791,24.084694929527014,21.959089512648287
21.511702476411653,20.975051477519887,26.95529345015552,26.847682510065926,45.851541418918806,24.025289710015166,21.83571952002958
21.686213209776565,20.971668744143255,26.858076896255714,26.79949255757577,45.98674047839265,23.956772182278062,21.716144227342056
21.858585560519845,20.969600947982855,26.755985964153226,26.753894862481012,46.13792570845282,23.87966233306005,21.60116089707003
22.028402040275168,20.96895839684158,26.649297370684753,26.710705012914488,46.30413844627578,23.794526159674753,21.49153571926254
22.195238092843624,20.969828133687454,26.538294539182772,26.669763337822165,46.48434532892408,23.701961152237768,21.388021148000153
22.358659714846215,20.972276342697338,26.42327809040062,26.63095097848296,46.67743461328458,23.60258862017648,21.29136656089074
22.518227324696202,20.976342559126973,26.304561174874397,26.5941935408035,46.882239196643404,23.497049934859646,21.20230781363764
22.673504553802385,20.98203219504705,26.182458721308663,26.55945179225951,47.09757217922416,23.385999358950833,21.121544204628346
22.824061982554753,20.989314765049052,26.05728313491356,26.526712472190628,47.32224325638298,23.27009120460449,21.04972006718882
22.969471150455128,20.99812670030377,25.92934708773877,26.4959814958778,47.555050693660654,23.149967850002476,20.98741753430106
23.109296309738816,21.008372345881277,25.79896404911946,26.467271768128786,47.79477131071281,23.02625691737324,20.935152767709944
23.2430957521126,21.019920113521415,25.666441401309154,26.44058721490353,48.040161138756055,22.89957718773127,20.89336632847823
23.370435826441796,21.032599262266046,25.53206978999785,26.415916747583964,48.28995551116102,22.77054286143078,20.862410216172552
23.490906683260377,21.04620704436532,25.396115151796952,26.39324836621119,48.54285915685826,22.63975771061652,20.84254400257261
23.60412696059861,21.06052598313639,25.258819177960856,26.372593891314068,48.79753936677526,22.507800670255044,20.833947065296844
23.70973786376861,21.07533749235816,25.12040788932959,26.35400132075103,49.05264219100876,22.375209309048607,20.83673609570587
23.80739708580203,21.09042550760815,24.98109829261918,26.33754612897581,49.30682694796839,22.242466088636366,20.850970544419173
23.89677893683172,21.10558246406692,24.841096450011438,26.32331619634157,49.558789382669296,22.109989082611385,20.876645064807676
23.977576969181513,21.120627771342043,24.70059426492661,26.31140519163629,49.807260140209735,21.978127639448733,20.913683050494228
24.049502906869254,21.135428955884887,24.559772323621957,26.301911064792172,50.05100209089901,21.847165603030255,20.961938699667336
24.1122835264126,21.149907903015233,24.418803436522584,26.294928710883497,50.2888279010368,21.717332190905132,21.021200255124008
24.16566445151665,21.16402881524251,24.277849515067302,26.29053706066776,50.519621762406466,21.588812613969445,21.091186234577297
24.2094243907858,21.177781573630313,24.13705442551984,26.28879283128924,50.74233865406862,21.461752513832497,21.171536903206835
24.24338963513334,21.191175154509867,23.99654195862905,26.28973904749977,50.95598579921107,21.336260695383647,21.26180779755815
24.26743669322878,21.20424083740465,23.856423305345597,26.293419111493733,51.15961509413345,21.212414108107872,21.36146771854142
24.281483804324456,21.217032491460134,23.716806749518682,26.299879171509936,51.352338025593674,21.090260949249203,21.469898896696368
24.2854824262563,21.22961876124974,23.577799789500812,26.30915723803536,51.5333407858399,20.969818688455835,21.5863987737034
24.279418439452552,21.242078102542546,23.439509234319935,26.321276033672365,51.7018767721586,20.851070317314974,21.71018955073721
24.26332136314786,21.254505421585954,23.302062511748396,26.33624864139502,51.85724520274134,20.733963181197062,21.840441322220666
24.237269750833608,21.267021408305084,23.165663056025767,26.35408529892107,51.99878219447574,20.618411604488912,21.97630109373944
24.201386824350227,21.279771007563888,23.030651563378413,26.37479234421347,52.125874350810705,20.50430300928544,22.11691070664633
24.1558345353989,21.29291153237203,22.89752947823851,26.39837005508329,52.23797624428476,20.391507890535483,22.261407305760507
24.100815882281204,21.30660226309622,22.76693979707551,26.42481544907335,52.33461123322016,20.279892374913207,22.408915548804124
24.03658265578192,21.321002745788597,22.639634042574112,26.45412799870715,52.41536538834452,20.169327662952664,22.558543418484742
23.963436590165852,21.336274287033426,22.516443279186884,26.486312474179496,52.4799003637892,20.059691342707463,22.709385707857958
23.881719501590105,21.35257549423584,22.398249302645763,26.521372344645897,52.52798427895462,19.950865021625052,22.86053037439365
23.79180214490866,21.370052627060534,22.285950708781737,26.559295593887427,52.55950971095222,19.842740094204995,23.011061483648426
23.694082469939406,21.388837399284444,22.180428176770086,26.600045174609512,52.57448109939578,19.73523436747924,23.160059632965098
23.588990725651374,21.409063630394296,22.082517023543534,26.64355967336558,52.572989217840345,19.628305850418187,23.306608341778674
23.476989725442376,21.43089355358411,21.992990391392876,26.689754203001954,52.55520131574312,19.521952973425222,23.44981200074845
23.358567724735543,21.454530103447045,21.91254900925266,26.738513237297255,52.521372266332286,19.416209910243747,23.588816991871006
23.23424037652007,21.480209229012942,21.841810997636305,26.789684481117334,52.47185361041039,19.311150531662864,23.722821880326194
23.104579633281027,21.50818817745462,21.781300597960588,26.8430890351435,52.407085045483804,19.20689806422705,23.851074831474364
22.97025766808369,21.538739461277512,21.731441038778417,26.898545655720135,52.32758517245344,19.103626446040025,23.972867399591493
22.832069772122217,21.572144533576253,21.692556000071317,26.955887544912734,52.233958621484724,19.001549809918625,24.08753059923991
22.690922054071162,21.608680277382817,21.66487653124938,27.014957979475675,52.12690452854393,18.900911615865198,24.194431683795244
22.547805635792095,21.648600272415724,21.648545476493613,27.075594971320907,52.00720201637449,18.80198420494203,24.292969252708527
22.403777616466428,21.692120136383018,21.64361635061453,27.137622424704542,51.87567543709128,18.70507438268995,24.38257060095386
22.259944671385593,21.73941568929526,21.650052667384447,27.200851378574388,51.733165171034535,18.610520910591198,24.4627004201099
22.11743884274064,21.79063083615823,21.667737486293714,27.265080139663812,51.58052117129464,18.518680379704104,24.532882654228562
21.977387182641248,21.845881353882678,21.696493375706755,27.33008500462854,51.41860810845924,18.429914242539372,24.592721830156343
21.840885003176094,21.905247576718182,21.736097859093327,27.39560742986098,51.24829981195596,18.344587691941243,24.641908621754187
21.708979305197172,21.968763601755004,21.786282361012404,27.46134778803349,51.07046408946444,18.263074414449157,24.680210209047743
21.58265919313914,22.036412964700855,21.846719928270193,27.526966701844124,50.885957673525624,18.185753976986785,24.707457405794788
21.462844602078988,22.108130133783927,21.9170124762402,27.592086506564538,50.69563180437966,18.112998756781263,24.723537313338237
21.350371176901913,22.183800418213945,21.996683516649107,27.656288656346682,50.500327553211754,18.04515973576039,24.728390703533584
21.24597869792757,22.263259589044843,22.085184252429926,27.71911063988101,50.30085512333696,17.98256110323473,24.72200771128447
21.150310256998534,22.346302805278793,22.18192274730333,27.780046412226284,50.097977101211534,17.925502831655262,24.70441920315872
21.063919210989408,22.432701022861494,22.286310650903776,27.838550979169323,49.89240946669028,17.874261330183923,24.67568987931468
20.98727308631577,22.522209984286146,22.397802170419098,27.894047680519172,49.68482681427731,17.829082978614423,24.635921544729698
20.920749037835023,22.614564896643717,22.51590459690242,27.94593490105167,49.475854559451506,17.79017658788303,24.58526471775388
20.864627582275403,22.709469379849445,22.640163491485268,27.993589950234263,49.26605840929153,17.75771421612787,24.523925005535283
20.81909432730394,22.806594737352505,22.770138937662193,28.03637115790053,49.05595944226815,17.731843417334304,24.452156100094335
20.784248959785526,22.905602733799256,22.9053864351576,28.073619613033408,48.84607809406346,17.712703875477604,24.37024720566544
20.760110875174064,23.00618391723059,23.04544803751022,28.104660362726044,48.63697019035578,17.700435944653528,24.27851760909255
20.7466164959261,23.1080830097489,23.189849739461774,28.12880293178869,48.42922451045799,17.695176597641428,24.177321062350998
20.743616033950932,23.211097807483863,23.33809687412968,28.145342821471868,48.22343557188349,17.69705369084872,24.067050873368913
20.75087888464042,23.31506780050888,23.48966544016827,28.153568570332368,48.02018480320947,17.70618951350958,23.948138255952106
20.768106464733037,23.419868644269314,23.6439943783814,28.152779362369394,47.82004242262894,17.722706835502077,23.82104975618534
20.794942988208966,23.52540740987495,23.800484240519516,28.142309596114977,47.623572629381016,17.746725504070394,23.686295151031008
20.830977805051223,23.631608103482517,23.95850197805909,28.121547318978838,47.431324195867575,17.778353817646664,23.54444381958146
20.87574183245517,23.738391115495013,24.11738528937363,28.089939989495452,47.243822028035375,17.817686486869146,23.396132487820687
20.928704722569737,23.845660681892408,24.276442123481488,28.046996528536514,47.0615902530721,17.864808011874388,23.242055004332336
20.989276015928798,23.953306981733256,24.434950094036235,27.992298176724404,46.88519747468493,17.919790404344976,23.082945803983595
21.05680758356353,24.06121271663024,24.592165911936103,27.925518317991372,46.7152768573823,17.98268214498025,22.919575769230875
21.130594457463065,24.16925011449943,24.747347480902533,27.84643686605971,46.55250300689074,18.053498055992232,22.75276294763295
21.209877262756212,24.277269785414198,24.899775402876614,27.754937538893632,46.397558834029354,18.132220825244442,22.583379006633525
21.293852228236844,24.385096965711977,25.04875927573684,27.65099396036252,46.25112051207076,18.218811634310573,22.41233616247039
21.381687957497004,24.492542691887525,25.193632145318414,27.53465736345669,46.113847832169995,18.313218568412058,22.240563877109334
21.472539628074394,24.599416964627338,25.333747307967833,27.406048315481524,45.986359090434036,18.415384427508247,22.06899813868646
21.56555411799155,24.70552842190341,25.468483053562046,27.265347471652895,45.86919720231906,18.52526257001276,21.898594011471584
21.659870929551193,24.81067247906447,25.597248663308402,27.11278726224321,45.76281287229245,18.642830210646096,21.73034402449006
21.754628644184184,24.91462234248124,25.719484687960993,26.948653501013517,45.66757721688613,18.768082180177178,21.565276272722674
21.848978789627008,25.017134746757346,25.834663556434,26.773298109941493,45.58380323415317,18.901008423124296,21.40443036154838
21.942098219554094,25.117967091398206,25.942309924248804,26.587152077838414,45.511746942664445,19.041569053406604,21.24882958398344
22.033192079497454,25.216890994354415,26.042048503028646,26.390728126332906,45.45159290064765,19.18967507057934,21.09946145839146
22.121490801994455,25.31369996534947,26.13365211084352,26.184611169129838,45.403456129583624,19.345178969053155,20.957263807986067
22.206252577321735,25.40822322547395,26.217055049300313,25.969441726827323,45.36740854855021,19.507875279961553,20.823110344891514
22.286778236567873,25.500343448836983,26.292332630847866,25.745901660191965,45.34349871035598,19.677503321662698,20.697799385696676
22.362430431180986,25.590001496261713,26.359674277285542,25.514708074168464,45.331743127687965,19.853744191837304,20.5820557891742
22.432642400416224,25.677183756869184,26.419366210135557,25.27660987475679,45.33211029763066,20.036213730725354,20.476545043576703
22.496914244799296,25.76190400469379,26.471777158912396,25.032377828800687,45.34452630412388,20.22446025882375,20.381882560553727
22.554806061399592,25.84419190556758,26.517336131995158,24.782789719686427,45.36889498922679,20.417970673177372,20.29862632329655
22.60593279542414,25.924090118897002,26.556503626549258,24.528623912558743,45.405102328620124,20.616178198493508,20.22725976932935
22.64995838137303,26.001651548858717,26.58974675275708,24.27067042284616,45.45299486182157,20.81846506911855,20.168178299901967
22.686587887851953,26.07692998893326,26.61752555841264,24.00974803719302,45.51235240523076,21.024163949416604,20.121684477349817
22.715561261513752,26.14996946831331,26.640287244357364,23.746707997625954,45.582877645809376,21.232569207982866,20.087986689713112
22.736654152014747,26.220802216348776,26.65845961475557,23.482424552421893,45.6642020885601,21.442960024778344,20.06719425868752
22.74968664184771,26.289459799744392,26.672444976046776,23.2177877545644,45.75588881734062,21.65461992582821,20.05930915304112
22.754532143206468,26.356011724255016,26.682625489063263,22.953702633633707,45.85742470834237,21.866840353510494,20.064222905938983
22.75111769669697,26.420670768436654,26.689379944179976,22.691085947250684,45.968219841431754,22.078915904090522,20.08172783177193
22.739415845401517,26.48398411767604,26.69309560440026,22.430858389916757,46.087624267923374,22.29014424782772,20.111538193949396
22.719435287597822,26.5470496397627,26.69416360557571,22.173944962823974,46.21494275687781,22.49983206507969,20.153304583060873
22.69121662293306,26.61165132428381,26.692962627599062,21.921295345120388,46.34943213658877,22.707299309763986,20.20661350395671
22.654832842606137,26.680260357740483,26.68984195135751,21.673913241168314,46.49030134408054,22.91187690524357,20.270979447537428
22.61038796517806,26.755938643540038,26.68511219013075,21.432867779838006,46.63674042706496,23.11290252605045,20.345837156852106
22.558010091533912,26.842214542780525,26.67904437708936,21.19927626682235,46.78796471265706,23.30972385083247,20.43053565102516
22.49784474258261,26.94296173110013,26.6718701023733,20.974271206906348,46.94323414939276,23.501710580634356,20.524334585424164
22.43005908497758,27.062272610333633,26.66377956211847,20.75896692263905,47.101836997807176,23.688264331860548,20.626405687058664
22.354858864131106,27.2043275020722,26.654927316019055,20.554432771703162,47.2630698939456,23.868818085177466,20.735844659147237
22.27250425599131,27.373283170618002,26.645452790483574,20.361673310513734,47.42624862530223,24.042829147255134,20.85169735120322
22.183311084879602,27.573189242091516,26.635502168648006,20.18161193220857,47.590743508404515,24.20977195627039,20.972992316222353
22.08764163148646,27.807911763202192,26.625232596683734,20.015078623000022,47.75599857279723,24.369132659778927,21.098762890327567
21.985898959577945,28.081047871873146,26.614798888052103,19.862807176874067,47.92151533620371,24.520405523960264,21.2280525071438
21.87852875940064,28.39584190916624,26.604338092462044,19.725439430092543,48.086829996761615,24.663089975362848,21.35991492482871
21.766018973038996,28.755122714963452,26.593963307256143,19.60352573604228,48.251515827375115,24.796688777633374,21.493423182242903
21.64889010869619,29.16126885248937,26.583766111831423,19.497517286390227,48.41520065535694,24.920713554263024,21.627685398091806
21.527685520314886,29.61618895286262,26.573818300372892,19.407757409338124,48.57756638218063,25.034701909443587,21.761853145583675
21.402976675195347,30.121299728783555,26.56416666902383,19.33448338027648,48.738323932095845,25.138237341944524,21.89511710981702
21.27538036672451,30.677500632544596,26.55482672192198,19.27784282675112,48.89719105158776,25.230958331938965,22.026700965173763
21.145566475172505,31.28515918475955,26.545784169340532,19.23791262227622,49.053893549443806,25.31255771538187,22.15586460097315
21.014245201851725,31.94411420554679,26.53700130224389,19.214704914601082,49.20817522580968,25.382787233751714,22.281914233997487
20.88214515287303,32.65368644022114,26.52841778510441,19.20816273985145,49.359791562914914,25.441471727421497,22.404208059296018
20.74999621026759,33.412684770198,26.519943930558963,19.2181610880471,49.50849082134363,25.48851801978847,22.522152447069363
20.618518074782823,34.21941186747076,26.511455441522312,19.244519231805747,49.654002952311906,25.52390921553913,22.635195071266473
20.48840834536357,35.07168140045656,26.502798287112764,19.28701192877382,49.79603688330663,25.54769551592858,22.742821731081854
20.36032894079954,35.966850105178345,26.493801258416028,19.34536885687499,49.93427065068033,25.559991763884057,22.844555145225193
20.2348971077535,36.90185509843524,26.484283764117,19.419271814758474,50.06833349089489,25.56097639711402,22.939951031838888
20.112687256765174,37.873246434731065,26.474052853226556,19.50836793219256,50.197801257623084,25.550883514839434,23.028592979931563
19.994240267146957,38.87721642674204,26.462897885013216,19.612299264760335,50.32222236630213,25.52998913506065,23.11009264581455
19.880067766495753,39.90963472803599,26.45059111968699,19.730725877614567,50.441157948569305,25.49859954166728,23.184099154793284
19.770643983471412,40.96609206409713,26.43689126536552,19.863323151059234,50.55420094584874,25.457046110760828,23.250313252335246
19.666392091238556,42.04194381495166,26.42154371635577,20.00975997972049,50.66096317869903,25.40568196499048,23.308494886300807
19.5676781110222,43.13234488617299,26.404277303099448,20.169678161143526,50.761050324623575,25.34487419405372,23.35845779935055
19.474816010367594,44.23228092163868,26.38480342960734,20.342682230121348,50.85404727151511,25.274992303926414,23.40005709331319
19.388073763490638,45.33661017426279,26.3628242462925,20.528332770809083,50.939517664166026,25.19639933564117,23.43317923580682
19.307671189679063,46.44012099029561,26.338048343911282,20.726136385166892,51.01700331640596,25.109453848077514,23.45773678915951
19.233773461615325,47.5375900703518,26.310202564455103,20.93554117141185,51.08601586241115,25.014524109461007,23.473664092831374
19.166490043252576,48.623824047998745,26.279032303891317,21.155954047725775,51.14603947690107,24.912002229697183,23.48091175809686
19.105881918815143,49.693687855921524,26.24429552491014,21.386776056298995,51.19656496943685,24.802305770987786,23.479443126763343
19.051968871104968,50.742138754174604,26.205760677200757,21.627427228230243,51.23713819378482,24.685868529619512,23.469237398877382
19.00472777604773,51.7642719431849,26.163212176229834,21.87734339363228,51.26738390622099,24.563129519017895,23.450298542235615
18.96408404717886,52.7553609487615,26.116456667466217,22.13595611097404,51.28699935123366,24.434526890175476,23.422661835975138
18.92990473847084,53.7108784290509,26.065321549992593,22.402675041817186,51.29575284013866,24.300498955070545,23.386391569281543
18.90199670999852,54.626503748924264,26.00964638680475,22.676883916480975,51.2935088340943,24.161488130678105,23.34157356657448
18.88010672837058,55.49813395792945,25.94927421241799,22.957947171318597,51.28025637835319,24.01794081427755,23.288313485269953
18.86392051121452,56.32191031311387,25.88404833461734,23.245213714250706,51.25611242378874,23.870302296833437,23.226748631583877
18.853063847128546,57.094254777637865,25.813814906164517,23.538015613054522,51.22130147953643,23.719015148085834,23.157067310218487
18.847114264935513,57.811895615297956,25.73842583550131,23.83567272270125,51.17612513092295,23.56453046493365,23.079519296397564
18.845625634273638,58.47187399798103,25.6577394899914,24.137501708595128,51.12092862072105,23.407327490729397,22.99440932748926
18.8481529001301,59.071545520189325,25.571624054773853,24.44281607298588,51.05606801992915,23.247924231193597,22.90208125397847
18.854262012999037,59.60858627761905,25.479966109840426,24.750916163972825,50.98188048498757,23.086870993469546,22.80290441135444
18.863526249385817,60.08099572490087,25.382679509530544,25.061084362058804,50.89866421831695,22.924735055777443,22.69726620733899
18.875523681439045,60.48708905548053,25.279707965330335,25.372598838683782,50.806679875561215,22.7620846948521,22.58556677054815
18.889847550067362,60.82548568317445,25.17101930510336,25.684757924693873,50.706172869255184,22.599474035580283,22.4682123742004
18.906124406565894,61.09510400213074,25.056596271698137,25.996891590810698,50.5973947402163,22.437428566809402,22.345612290121494
18.92402362587148,61.295161541865674,24.936432367360364,26.30835272455352,50.48060564187539,22.276431336436882,22.218185925134016
18.943252769836683,61.425170212941296,24.810536079184054,26.61850480408088,50.35606297800744,22.116913224488737,22.08637683926202
18.96354944162993,61.484921835434704,24.67893630593497,26.926717834551,50.22400774293484,21.959257991003568,21.950659767158758
18.98467879183543,61.47447252243666,24.541680392357335,27.232365573816974,50.08465182032866,21.803827442783934,21.811534713107765
19.00643335931673,61.394139977168365,24.39882587839332,27.53481617236562,49.93816564766695,21.650989981671376,21.66952016618759
19.02862789589274,61.24451518855621,24.250432538226427,27.833423330091474,49.78466604217984,21.501129445084615,21.525157588292636
19.05109044508366,61.02647009778885,24.096558995064992,28.12753378178321,49.62420728272398,21.354634014300583,21.379020640774613
19.073660262113005,60.741145844603686,23.937265435149612,28.416514101498596,49.45678401627018,21.211883650125422,21.231713705207497
19.096200009445568,60.38992928029383,23.772620167129855,28.69977655547342,49.28234830002668,21.07324669358017,21.083858251502296
19.118613675610487,59.974432637391494,23.6027047269344,28.976784878672607,49.10082831705431,20.939080075191153,20.936085188804057
19.140852963355673,59.496477769094525,23.42761741875038,29.247047189915506,48.91214098216694,20.809729616195728,20.78905222710597
19.16290814712129,58.958077374385105,23.24748239890589,29.510112457470225,48.716205717340074,20.68554000075487,20.64347829508595
19.1847959890237,58.36141168727777,23.06246471177111,29.765569635337535,48.51295988627205,20.56687595883344,20.500162865302705
19.206554645607035,57.70881044961695,22.87277903426375,30.013039365684037,48.30236392428021,20.45413511748935,20.359974621888334
19.22824109750206,57.0027535090195,22.678684811641507,30.252158535884085,48.08439145319155,20.347738333159345,20.223826295485555
19.249922540711907,56.245888401593795,22.480476408778213,30.48256768056837,47.8590157067869,20.24810705154973,20.092655354253218
19.271662586213672,55.44104186123783,22.27848028562055,30.703908937454248,47.626217830135076,20.155645083017152,19.96741096727366
19.29350969973814,54.5912070684977,22.0730599379988,30.915831591282377,47.386037776495925,20.070733238648916,19.849037194637738
19.315491347760105,53.69951538438309,21.864618369172156,31.117994386982247,47.13864679913366,19.99373144738316,19.73844916579812
19.337610898121394,52.76921489575749,21.653591675376127,31.310060441180262,46.88439455437998,19.924977195931024,19.636508690002742
19.359843603540323,51.80366522188284,21.440442750298114,31.49169353313263,46.62382251448421,19.864782352866747,19.544005137573077
19.382132077644826,50.80633447842658,21.225668549543766,31.6625633256973,46.35767038822135,19.813440648451987,19.4616408716822
19.404385673515076,49.7807803512194,21.009816875747624,31.822352924010662,46.08687727987929,19.77124276607446,19.39001800879188
19.426487836046093,48.73061763648641,20.793493089716236,31.97075806355741,45.81255594154729,19.738481519869232,19.32962725686268
19.448307696803244,47.65948879183122,20.57734850926686,32.10747813871831,45.53594164046459,19.715442058791567,19.280845917941413
19.4697058755927,46.57104610006408,20.362063874107346,32.23220725132308,45.25834432523246,19.702390167365827,19.243950813844798
19.49053181194675,45.4689384672716,20.14834322994314,32.34463209909797,44.98112302007401,19.69957072974532,19.219138237995647
19.51062196724117,44.35679262268657,19.93691690768008,32.4444374113454,44.705670449493454,19.70721343567879,19.20653446406808
19.529809212845933,43.23818874655956,19.72854125014208,32.53131259994714,44.43338764764534,19.72553292223142,19.206191384268188
19.547941593953123,42.11663906531954,19.52399007563334,32.60495483552656,44.1656532172549,19.754717604133372,19.21807733618399
19.56489607913997,40.995574457559165,19.324041932195556,32.66507322718443,43.9038101222756,19.794915848914393,19.242075757926454
19.580577657929528,39.878332906965746,19.129464645546786,32.711399657598356,43.64917268644752,19.84623122667334,19.277993999616175
19.594910532622112,38.76814123474548,18.940996829421806,32.74370106151105,43.40302677874755,19.908726098767684,19.325572497273818
19.607832880850495,37.668091926358414,18.75932954783943,32.76178316948613,43.166605186814756,19.982422506556507,19.384485762425648
19.619296238838196,36.58112423022651,18.585091021993136,32.765484490441665,42.94105983303682,20.06730019893763,19.454338649069932
19.629262158681883,35.510016965298526,18.4188354884925,32.75466891704377,42.72747444238839,20.16330525615593,19.534666499754383
19.63769317498205,34.4573925458415,18.261037322829807,32.729225992775596,42.52692814120413,20.270368858190654,19.62494125071261
19.644543624221644,33.42572160460679,18.112088950688964,32.68907903876272,42.340557049238285,20.38841559586642,19.724577909107552
19.649757154246434,32.41731926744161,17.97229965462009,32.63419140512621,42.169559805901216,20.51735037841299,19.832936832539474
19.653271107171594,31.43433811896896,17.841896152361475,32.56456441696593,42.015163335843525,20.657035438134187,19.949325060288558
19.65502048826653,30.47876664600016,17.721027933160475,32.48023409924671,41.87859539476306,20.80727324911263,20.073005862324315
19.65493571294119,29.552430627901614,17.6097784819518,32.381277628022474,41.76106943463441,20.967801143937663,20.20322017431079
19.652937086827905,28.65698954024683,17.50817981353767,32.2678268876274,41.66376268938731,21.138293348771143,20.339208328785535
19.648934044685422,27.7939293122479,17.416222725916157,32.140074669269374,41.58778855525765,21.318362345068394,20.4802174536958
19.642831822854543,26.964563844869893,17.333856917281082,31.998268462964308,41.53417429326707,21.507555540359384,20.625495845009993
19.634537861987678,26.170052552747066,17.260984088031083,31.84270229797516,41.503843645796785,21.705351234411886,20.77428699046084
19.623961516665474,25.411420876407732,17.197450907105058,31.673714799190066,41.49760153271135,21.911161214298936,20.92582981329166
19.611012507985787,24.68956532762768,17.14304638633595,31.491688914023143,41.51613365533283,22.124339888209583,21.079360775446794
19.595605692045286,24.005249008719787,17.097504995575527,31.297046320676873,41.56004893920149,22.344191503556836,21.234112487505364
19.577669677805524,23.3591248449973,17.060512441264272,31.090237952586364,41.62995850111064,22.569974264049357,21.389311289946757
19.557150435149335,22.75182099389973,17.031709785765837,30.871738520426877,41.726525555295176,22.80091220655301,21.544180846375163
19.534005862825975,22.18406566312376,17.010696197234086,30.642051936309635,41.85044105935817,23.036216375557014,21.697952509585544
19.50819618163376,21.656781285923937,16.99703437964277,30.401724542910816,42.002360908966814,23.27509903658261,21.84987360940197
19.47967921652944,21.17111000804168,16.99026044604424,30.15135195837939,42.18287283264839,23.516770614519086,21.999206874270133
19.448414632364724,20.72838760694636,16.989894035031796,29.89157144751969,42.3925152128826,23.760426956550656,22.145225217520768
19.414370529049208,20.330089564101478,16.99544225132221,29.62305053857917,42.631802621506246,24.005239537114143,22.287212061926454
19.377523716933634,19.977760001318426,17.006397443660983,29.346489778496952,42.90121196041873,24.25035953664714,22.424473373473727
19.337855771397575,19.672935855494323,17.022237471956736,29.062642732908685,43.20114103359892,24.494938640603316,22.55635484572699
19.295356403936694,19.417081161018643,17.042434531778902,28.77233458651639,43.53188128179765,24.73815204527471,22.682250107996712
19.250038961255694,19.211539541256883,17.066466090893467,28.476459935621616,43.89362984916585,24.979207160236108,22.801597378487788
19.201955771060728,19.057500015059755,17.093818568277168,28.175962310869362,44.28652222769112,25.21734142981928,22.913876473608966
19.151199372363585,18.95596543212949,17.123984898860158,27.871812874108706,44.71063931990479,25.451824850973225,23.0186135876061
19.097893511737844,18.907728210722286,17.156464879761714,27.564997958884252,45.16598121481684,25.681971554342464,23.115386752697468
19.042188228622116,18.913369545291008,17.19077415279274,27.256509934502752,45.652439106994386,25.907148540740828,23.203822926217676
18.984263339270083,18.97327591457594,17.226456825174843,26.947335755740415,46.169774564772524,26.126772708395805,23.28358840234898
18.92433109250179,19.08764303722303,17.263092697229713,26.638451102453068,46.71760042857128,26.340303496556935,23.35437961253892
18.86262993742403,19.25645424404203,17.300304131219395,26.3308297116904,47.29537964799552,26.54724194590282,23.415916968415726
18.799412601704788,19.479451956928415,17.337775598147218,26.02545921148727,47.90245410127422,26.74713445155268,23.467940751047834
18.73493851394967,19.756123512330195,17.375279504933072,25.723343506520667,48.538077739015094,26.93957118505229,23.51020928327077
18.66947570935733,20.08569975104283,17.412685883310203,25.425485826251542,49.20141920092377,27.124176110337675,23.542500756330444
18.60330514035349,20.467150659099364,17.449949021759934,25.13286640365576,49.891540125716396,27.3005943668428,23.564619219462458
18.536717642608018,20.899172209196205,17.487085717858857,24.846432394745186,50.60739137499508,27.46848206251955,23.576405199588592
18.47000561597074,21.380173349434894,17.524159195691244,24.56710296612967,51.347852511233576,27.62749985261314,23.577748663681714
18.403461490848358,21.908273578506932,17.561268829369553,24.295774065993186,52.11178864075717,27.777309470969833,23.568596308215916
18.337389053869245,22.481312819585202,17.598538925914394,24.033309702647465,52.89807713603273,27.917571266677314,23.548949298556014
18.27211677931376,23.096865703201452,17.636106504044452,23.780526421506742,53.705605387425706,28.04794384871565,23.518859564953967
18.207997896744313,23.752253333161264,17.674117792247845,23.53818578472184,54.533279349621395,28.168090219566487,23.478431433379466
18.145397289200506,24.444558297803187,17.7127375716663,23.306997325465314,55.38004034501887,28.27768992352744,23.427822653335593
18.084677325347055,25.17065243780944,17.752158110810583,23.087620540056477,56.244854998748025,28.37644979771322,23.367237954808672
18.02618928882586,25.927231618643237,17.7925938966172,22.880659038528222,57.12667964401968,28.464107695927957,23.29691887324145
17.970266277141686,26.71084156155267,17.83426767757708,22.686655059273356,58.02443476242926,28.540430397495747,23.217139060543627
17.917212559930828,27.5178909312536,17.87740521338467,22.50609415782851,58.93700628424209,28.60521220998055,23.128209666097835
17.86729228751132,28.344663554494147,17.92224681784276,22.33941651919944,59.86325045247108,28.65828024155408,23.030487781863062
17.8207257539228,29.187341363974376,17.969063299743354,22.187021309529385,60.80198249720138,28.69950418910143,22.924375400965
17.777697342021067,30.042036489595514,18.018156750338548,22.04925689466437,61.751974451364,28.72880621858132,22.810307210016546
17.738368149572153,30.904820593455103,18.069843758400918,21.926404469255733,62.71198383543011,28.74617570361338,22.68873864459828
17.702881124897885,31.771745411555926,18.124438497145864,21.818666670364124,63.680775947078544,28.751690844263273,22.560143812111136
17.671356354262155,32.63886094913304,18.182251968356105,21.726163372951046,64.65710077959211,28.745532423095568,22.42501957331426
17.64388694154836,33.5022372923163,18.243602807087886,21.648928218587614,65.63964801832002,28.727977520176672,22.283884248170768
17.62054358851544,34.35798642347147,18.30882146416657,21.58690155715751,66.62702636141888,28.699379990588827,22.13726663892519
17.601381879456618,35.20227890395953,18.37824197603553,21.539923120056418,67.6177766099446,28.66014906277787,21.985691380696448
17.58644177233845,36.03135699210212,18.45218982263226,21.50773148103956,68.61038920782862,28.610733486640182,21.829667230624274
17.57573858667711,36.8415495854906,18.530969917055245,21.48997256142581,69.60329936890962,28.55161856166866,21.66967959032735
17.569253058884083,37.62929306386537,18.614854113860705,21.486209920159812,70.5948639999251,28.483334351243464,21.506184867234605
17.566927348957428,38.391156354688995,18.70407100766447,21.49592924124744,71.58334031907035,28.40645941202608,21.339606724876678
17.56866737145578,39.12386116610897,18.798798902098422,21.518540810494496,72.56687536991932,28.321609490941803,21.17034072997564
17.57434554962765,39.82429127722177,18.899160183828453,21.55339312766435,73.54349819540556,28.229419917891928,20.998772144076582
17.58379984498618,40.48949745112128,19.00522051637409,21.59980464853356,74.51110670168268,28.13053490341255,20.82529775449325
17.596832514698573,41.1167094868898,19.116995420775915,21.65710032606373,75.46745744285697,28.025603173229833,20.65033555501582
17.61321466987836,41.70335653914122,19.234456454853156,21.72463463728088,76.41016649839193,27.91527070434531,20.474318882502065
17.632695933028796,42.2470837256098,19.357529555632865,21.801803422382882,77.33671330178014,27.800168500322002,20.297687684316593
17.655010806025626,42.745755965463474,19.486089367615246,21.88805325373287,78.24443964512072,27.680902217282963,20.12088989155395
17.679876716347437,43.19745527474679,19.61995979481792,21.982881270812207,79.13055371646276,27.558049854081393,19.944391390745285
17.706989397824664,43.600482397153,19.758931590813017,22.085818670306733,79.99215470405149,27.43216905060349,19.768680880730017
17.736024606631066,43.953362761389045,19.902797093434422,22.196408847296468,80.82627779944873,27.303809117539384,19.5942624352944
17.766646364125968,44.254848273711424,20.05138127110549,22.31420010796127,81.62993996574558,27.173516952386997,19.42164299984513
17.79851268895868,44.50391132929198,20.204552653300887,22.43876137423617,82.40016686943845,27.04183202054982,19.25132312618726
17.831273513526643,44.699737432975475,20.362246832904688,22.5697040394773,83.13400870706101,26.909277362401312,19.083790635754333
17.864565667923422,44.84172654071022,20.524563059049324,22.706685945819032,83.8285738847802,26.776356719249907,18.919513258911703
17.89801303553681,44.929504437170976,20.691916225803485,22.849399711192582,84.48108351897268,26.64356590658245,18.758931789211736
17.9312342048624,44.962931485529865,20.86513673875203,22.99756944309989,85.0889128755322,26.51141491689249,18.6024628566904
17.963850979899586,44.94209830794666,21.045471262466766,23.150963800311263,85.64960446592741,26.38044033890376,18.450516677565325
17.995490413363996,44.86731445331763,21.234537771176072,23.30940492566385,86.1608783105094,26.25119755085059,18.30351883857321
18.025782882590963,44.739102432053,21.434268528450026,23.472755385886884,86.62065629433793,26.124249089741454,18.161917615781533
18.054365781553074,44.558200352530314,21.646844071059324,23.64088979435639,87.02708273939508,26.00016347379594,18.026171999111085
18.080895392179624,44.32556507376025,21.874652598363962,23.81366607584869,87.37852650846318,25.879515098089403,17.89673186641184
18.10505654920883,44.04236654664446,22.120291044343507,23.9909022588025,87.67358410816915,25.76287374020707,17.774022786935188
18.12656111078189,43.709974955461504,22.38656283029857,24.172358518268062,87.91110614166041,25.65079265637743,17.658437992910383
18.145138931056657,43.32995320668222,22.6764405006361,24.357723630255936,88.09023227039036,25.54381400296915,17.550331621821467
18.1605288270135,42.904060574335304,22.993009375333617,24.546606986084328,88.21040653604919,25.4424904461429,17.450010162569267
18.172472009099657,42.43425429722302,23.33939955840305,24.73854242932766,88.27137408224165,25.347396541464217,17.35773033826229
18.1807075178277,41.922674588799374,23.71870783752753,24.933006239412183,88.27317818019226,25.25911499377034,17.273714091027124
18.184969938493893,41.37161720196393,24.13393508658019,25.12943572751595,88.2161580821332,25.178223468802393,17.198174294997337
18.184990119155277,40.78350800280738,24.587947545851875,25.32723452923729,88.10092875135581,25.10532442619144,17.131329262967157
18.18049848141816,40.160885512642196,25.083445286550656,25.52577147539558,87.92834155362767,25.041119469002595,17.073395778100604
18.171229456010394,39.50638423996627,25.622947560784617,25.724390143539136,87.69946126865217,24.98647737913343,17.02457175029434
18.156924872609935,38.822712130936125,26.20880618795156,25.92243052771855,87.41558258003816,24.942458992533393,16.98502222838587
18.13733508917466,38.112629000805015,26.84320562148908,26.119245351207127,87.07825155148856,24.910306944611452,16.954871673652683
18.112219751040286,37.37893777300097,27.528109836617016,26.314199006664747,86.6892479834645,24.89141979253369,16.934197319134938
18.081352840464866,36.624486446430616,28.265178408119453,26.50665776976126,86.25053857846451,24.887339727379167,16.923019516901572
18.0445357357419,35.852164683364514,29.055699927373002,26.695988660689345,85.76423814272304,24.899789111618798,16.921292834679775
18.0016135751402,35.06488535464105,29.900566260504707,26.88157434459153,85.23258635552075,24.9307415697991,16.928906925073942
17.952483157344354,34.265559145398775,30.80027351571612,27.06283247183517,84.65792176378137,24.98246316499828,16.945698941787057
17.89708873718666,33.45707751116745,31.75492188671805,27.239221635046665,84.04265110002213,25.057498874564743,16.97146533216804
17.83541636533095,32.642308206838145,32.76421538205781,27.41023276122799,83.38923373293508,25.158638181536148,17.00596253373594
17.767498469187256,31.824091317328108,33.827480689490535,27.57538121645038,82.70018416158378,25.288878035300435,17.04890379481217
17.693426253139638,31.005225392913825,34.94369292400388,27.734210460587274,81.97806820453178,25.451381237277065,17.09996634189861
17.613356145016347,30.18844744428455,36.111479584965345,27.886300723877564,81.22547746054393,25.649439746748232,17.15880920830295
17.527503478462343,29.376414190773712,37.32911681232401,28.031269021209365,80.44499247516573,25.886446132383085,17.225087017345697
17.436132028849865,28.57168842903902,38.594560861235394,28.168764921595795,79.63915067966761,26.16586228084412,17.298449672721173
17.33955193233177,27.776730219024145,39.9055139725208,28.298489982202764,78.8104249890938,26.491166812707515,17.378532464228982
17.238126451522785,26.99388647496855,41.259479977455435,28.420250987729947,77.9612086273825,26.865772194826867,17.464945054551265
17.132275480263733,26.2253756674573,42.653797281919076,28.534008715414355,77.09380003287878,27.292932987968367,17.557265206419572
17.022468396200875,25.47327683206402,44.08567958882464,28.639884784268357,76.21038934233671,27.775667728274428,17.655040600925858
16.909213014344047,24.739533033276686,45.55227866760869,28.738142929664733,75.31305321391395,28.316690996878172,17.757794838294476
16.793050022272205,24.025962958172855,47.050750743798446,28.829180032902293,74.40376187486028,28.918354934554785,17.865029749391024
16.674552201227133,23.33426449536725,48.57829536534006,28.913526870868008,73.48439254152244,29.58262629946626,17.976224156355357
16.554320334398867,22.66600796189232,50.13214977338055,28.991834691035397,72.55673645889368,30.31112314387233,18.090834811072625
16.43297155756016,22.02263323934247,51.70955199610994,29.06484137210544,71.62249995477373,31.105185664864802,18.20829927500037
16.31112522771216,21.40545806250422,53.30770192627441,29.133332511476663,70.68331658612591,31.965918908536004,18.32803685636932
16.189396736877974,20.815686247196137,54.92376301868422,29.19811049666324,69.74077327312908,32.8941721037184,18.44944853091265
16.068401958094782,20.254405485353697,56.55493176224858,29.259971683294726,68.79642719436929,33.89047497281547,18.57192122294806
15.948760108177137,19.72258416814772,58.198525677016384,29.319684621003148,67.8518015409858,34.95499395924198,18.694839939508775
15.831085219836266,19.22108756832512,59.85201416097559,29.37796641557749,66.90838558595455,36.08757147760429,18.81760300890277
15.71597467596875,18.750716208509147,61.512991791227776,29.43546749946777,65.96766070939064,37.28783129201748,18.939630926842614
15.604009213010585,18.312239859309777,63.17914083892841,29.492783480121464,65.03112772036684,38.555251159811284,19.06036657954125
15.495764438312914,17.906402291565442,64.84820975006701,29.550494046799248,64.10030149336208,39.88916061695359,19.179274381658626
15.391818789886868,17.533905699971857,66.51802509529527,29.609195635920155,63.176682055972215,41.28874214141712,19.295846529960084
15.292747183876443,17.195399513246286,68.18653359781125,29.66950278784413,62.261744009930034,42.75308892232423,19.409614943087668
15.19910686212429,16.891477994337766,69.85182932972353,29.73203809267109,61.356969207931506,44.28126860896165,19.520157723898876
15.11143024921698,16.622671258192007,71.51214590463475,29.79743732805847,60.463894698924335,45.87239296296372,19.62709410274173
15.03022961226613,16.389422167184737,73.16583519617629,29.86635873482186,59.5841251626867,47.525765972316755,19.73007518924778
14.95600165285701,16.192057717737192,74.81133485160916,29.93947189555713,58.71930245082158,49.2410584183139,19.82878065700282
14.889220446715314,16.030764248821868,76.44713169660214,30.017429989812673,57.87107127168602,51.01837509320412,19.922922074392602
14.830324519888078,15.905568637577272,78.07175183729947,30.10085725713524,57.04107000273313,52.858198822690255,20.01224427113335
14.779712380161595,15.816324732635927,79.68376328374889,30.190377922251603,56.23093315931146,54.761274667861265,20.096519506633285
14.737749108873306,15.762703665231236,81.2817428929931,30.286669192720304,55.44227888492345,56.728494529115125,20.175541402628483
14.704771722407802,15.74418850144284,82.86420322384579,30.390488048434698,54.67669019304685,58.760854008324,20.249128526906333
14.68108437427331,15.760080857708937,84.42952713352697,30.50265072325433,53.935722660867675,60.85947989188828,20.317135365831152
14.666949564949498,15.809530761396623,85.97597750474301,30.62400158867994,53.220934590672755,63.02561246443271,20.37945759481719
14.662586024242081,15.891589988786937,87.50179864452491,30.75543125668079,52.53389656384379,65.26048473071057,20.43602552647539
14.66817400235359,16.00526801928803,89.00531958064985,30.897956745171562,51.87616427556489,67.56516818206019,20.486794901674596
14.683858687890675,16.149561295983634,90.48496568435361,31.052800697751497,51.249242662606356,69.94045083556098,20.531747837510093
14.709745293243346,16.32344762083406,91.9391947195635,31.22140747064066,50.65455964424563,72.38677042923089,20.570903916677327
14.745889355881829,16.52586401603128,93.36642900731246,31.40540126736645,50.09343640450736,74.90419901906763,20.60432686255092
14.792289716819067,16.75568604355937,94.76504573487598,31.606528987753446,49.5670466265051,77.4924246735978,20.63211702325792
14.848887655088221,17.011713656213775,96.13348337559867,31.82661658013336,49.07638418021492,80.15069213531113,20.654396296182544
14.91556854837072,17.29266897508932,97.47046138562462,32.06754865427053,48.622258991316215,82.87773333574103,20.671295793533073
14.99215980487417,17.597217765252463,98.77518702593046,32.33129488321723,48.20531043563248,85.67172597436253,20.682948933885754
15.078424095158297,17.924021870410883,100.04741400754934,32.61998472836949,47.82600975118899,88.53030752107263,20.689486781889944
15.174053277131762,18.27181505593485,101.2873674905714,32.93595620328845,47.48464167177989,91.4506809948325,20.691031654316813
15.27866930730894,18.639473934221236,102.49567090009629,33.28173199904577,47.18128178282733,94.42979075408688,20.687689571564476
15.391832277234794,19.026045299633324,103.6733732163622,33.659987985216,46.91578737133557,97.46446003890948,20.67954855312364
15.51304865148635,19.430719639543746,104.82203181265919,34.07357149636688,46.68780197251222,100.55141641215734,20.66668849970187
15.641775130262946,19.852779739481026,105.9437260403165,34.525538312931616,46.496762031679026,103.68724117291313,20.649196841933406
15.777422328651081,20.29156310044458,107.04095074266053,35.019163898703226,46.34190323236422,106.86830650688536,20.62717764084752
15.919364807549156,20.746479972249126,108.11644307332882,35.55792149542628,46.222283311633845,110.09071062200672,20.60075137157093
16.066955762494636,21.217102219340607,109.17302004245968,36.14544019045381,46.13682759990182,113.35019838063138,20.57005304327477
16.21953703965514,21.703258124009306,110.21349631019183,36.78545419526859,46.08436646154853,116.64209793843503,20.53523344291166
16.376440458367505,22.205048686794594,111.24074692792173,37.481759073800376,46.06363729403246,119.96131744200444,20.496460583879326
16.53698651907071,22.722783820927745,112.25788730348646,38.23820730356394,46.07327015460827,123.30237631146858,20.453916535667194
16.70048699541002,23.25689359113686,113.26840251794799,39.05873640034079,46.111795899742646,126.65940353445684,20.407789980015554
16.86625122781073,23.807857609004447,114.2761039760452,39.947374193277525,46.17768528418892,130.02610258737678,20.358273657429308
17.033591700720095,24.376172219159955,115.28497397033357,40.90822366559802,46.26938728309543,133.39576629732088,20.305575854749602
17.201826929815773,24.962344864987738,116.299017993223,41.945472070701285,46.385338954626725,136.76139844357223,20.249939057846795
17.370286590391324,25.566880369310493,117.32217956545688,43.06338632212509,46.52396116529757,140.11589653307252,20.19164809707193
17.53832570631751,26.190246621059355,118.35830601850661,44.266235476140196,46.683668502763766,143.45220624562324,20.131023558786183
17.70534435144665,26.832848849355845,119.41113177074486,45.55817556714909,46.86289023826041,146.76339312813374,20.068413526367905
17.870799018183387,27.495049028680686,120.48425921216304,46.94317374680106,47.0600761428916,150.0426452548897,20.00419218290519
18.034198687191964,28.177235171562,121.58112036267434,48.42502672278646,47.273678366076965,153.2832690968821,19.93875858031635
18.195093185663502,28.879892927725095,122.70490704592093,50.00746183831722,47.50212769406163,156.47870190995678,19.87252807867966
18.35306423670665,29.603623079545926,123.85850611066881,51.69424944466544,47.74382467970361,159.62250832893668,19.805921442238184
18.50772128786115,30.349117781061896,125.04449399668552,53.48932268564563,47.997147220791035,162.7083552555989,19.739362752296724
18.658697649831517,31.11714549801218,126.26516703887471,55.396904088775194,48.26046000665862,165.72998905862832,19.673288725003456
18.805643702921987,31.908551841580124,127.52254738279485,57.42150150206094,48.5321183594053,168.68121098674084,19.608158471184897
18.948218645643784,32.72427578189195,128.81837462866957,59.56769130969389,48.81047955211889,171.55583655185245,19.544451484442547
19.08608581354447,33.56538755714641,130.15410594797925,61.83984258401833,49.09392996684882,174.34765209633815,19.482655608725423
19.218914935085735,34.43309939820547,131.5308889564581,64.2420174772049,49.38090780303972,177.0503917487368,19.423258653148544
19.3463867710408,35.328720077163524,132.94949822458645,66.77808250645725,49.66989888034165,179.6577532312367,19.36675190764161
19.46819244860353,36.25364192940208,134.41029206610327,69.45182920018073,49.95941788246977,182.16345469014178,19.313636916885905
19.58402875622407,37.209424663155716,135.91322577754818,72.26702447645745,50.248013415256594,184.5613021213014,19.264421220293983
19.693601337211863,38.19788069127675,137.45791342116294,75.22749710382708,50.53431178398431,186.84524107741768,19.219601749750417
19.79664402309297,39.221057859942675,139.04371682563402,78.33719699582116,50.817062179775306,189.00940578601862,19.179647104470188
19.892943799495754,40.281142847120684,140.66982000330404,81.60010739819293,51.09513989341709,191.04817637915514,19.144987763587046
19.982352142667825,41.38035461386298,142.33524937979684,85.02010757083383,51.367513103856986,192.95621607439836,19.116012431075724
20.064778879264225,42.52089036918496,144.03883880108768,88.60087843245826,51.63320823494615,194.72846415372354,19.093063521123884
20.140181178894604,43.70495044062447,145.77918188183665,92.34578399129595,51.891290994607914,196.36010291348362,19.076430837745047
20.20855847304159,44.93476604086466,147.55462214889405,96.2576629630823,52.14085500925154,197.84653150989647,19.066349485030084
20.269952395669453,46.21254941614604,149.36326762628897,100.33857582987474,52.38101241190769,199.1833646681661,19.063005372871313
20.324444283274303,47.540410405120305,151.20297534757242,104.58965108479961,52.610898672301104,200.3664590942649,19.066542531428485
20.37214743851507,48.920328007165025,153.07129680407886,109.0111036074952,52.82969886067795,201.39196625448287,19.077063277929216
20.413200368695875,50.35417914014736,154.96541079823555,113.60228292609627,53.0366752166635,202.25641002177443,19.09462136654186
20.447768762705678,51.84374856788767,156.8820558793656,118.36162039559737,53.231170338520165,202.95676548881187,19.119219326797595
20.476054124220997,53.39067832845734,158.81746780352196,123.28656929389193,53.412588611525656,203.49050635444237,19.15081879268324
20.498297350859467,54.99638823827966,160.76734486774717,128.3736254710789,53.58037710104112,203.85564066145216,19.189357226417467
20.514771578788466,56.661996430260906,162.72685932583207,133.61834204525536,53.73401432787997,204.05077444967387,19.234755641939373
20.525772850334743,58.388248905634306,164.69069184111044,139.01529462511056,53.87300080702977,204.0751762711441,19.286911823211796
20.531618884009152,60.17547672660121,166.65306284079523,144.55807336818236,53.99684660567485,203.92879033178508,19.34568835018524
20.53265336156235,62.02357599163103,168.60778888793232,150.2393162118887,54.10506145539665,203.61220997854898,19.41090706537912
20.52924404302372,63.931996379282516,170.54838976733691,156.05073225960058,54.19716245603418,203.1266760813422,19.482351109620744
20.521771238870937,65.89977864249822,172.4682057391742,161.98311652218732,54.27270360020812,202.47413206644381,19.559766378413013
20.510617256490217,67.925660237273,174.360480610666,168.02638479070205,54.33130429107698,201.65729340378476,19.642860091239594
20.496166425439224,70.0081575711185,176.21840812963427,174.16962415666657,54.372654285543014,200.67968861894218,19.731308991770018
20.47881048998023,72.14554404352359,178.0351553051617,180.40113154433647,54.39650548637679,199.5456770184806,19.824789511814735
20.458947163175598,74.33576337836787,179.80389107231002,186.70841521736978,54.402673949351886,198.26044555842688,19.923018554286728
20.436968368458313,76.57635534275501,181.51783754597642,193.0781843395776,54.391050005232344,196.82996890906486,20.02577685775077
20.413244871797275,78.864436880771,183.17032228585276,199.49643881334106,54.361595810260425,195.2609324200994,20.132903177756095
20.38811597003093,81.19675372922106,184.75482539232377,205.94871268876926,54.31432964203475,193.56064011953345,20.24427444234153
20.36188743813115,83.56976504509133,186.2650422781315,212.42032444253147,54.24932641160309,191.73693886890902,20.35979467459841
20.334832082797732,85.97968499738421,187.6949516995974,218.8964879181842,54.16675232304901,189.79817774230358,20.479399088836196
20.307185672071473,88.42246494737734,189.03886494091978,225.36232470335557,54.06690407340415,187.7531806202604,20.603057466073793
20.279140550874715,90.89376933167506,190.2914584104333,231.80288270024943,53.95021192648498,185.61117712793248,20.73076249392896
20.25084618607955,93.3889722356626,191.44778754907358,238.20323867307584,53.81720957937371,183.38167420509876,20.86250953855796
20.22241851068272,95.90315978517839,192.50327983621656,244.54871927958143,53.66850590730027,181.07431636026004,20.99828223593171
20.193948597528134,98.43113817448236,193.45375959226212,250.8251651214533,53.504777195606074,178.69877457256297,21.138047162982154
20.165503480332433,100.967468605499,194.29556103577883,257.0191161434183,53.32676436286367,176.2646501704991,21.281748723613234
20.137124094985673,103.50653177703195,195.02568202750467,263.1178718588006,53.13525445548866,173.78137424403982,21.429298372163238
20.10883013848335,106.0425946562414,195.64187081325832,269.10944028469123,52.931052545851145,171.25811087222462,21.580566757238717
20.080632266786253,108.56985839388102,196.14260093235265,274.9824192827356,52.71497495446868,168.70367881721972,21.735392107816384
20.05254019054228,111.08248626409593,196.52696888665724,280.7258812713794,52.48788702282061,166.12649257458162,21.89360189666611
20.024559157549334,113.57461200010513,196.79457839094928,286.3293020868229,52.25076185428676,163.5345163301516,22.05502736898035
19.996683252743157,116.04032958707363,196.94547757158898,291.7825230965617,52.00470744308044,160.93524379692,22.21949885917655
19.968901121950097,118.47367182259181,196.980187202188,297.0757258751324,51.75095148967495,158.33573100219425,22.38683188255689
19.94121741989091,120.86858682292407,196.89978331132332,302.1993997825116,51.490819253950015,155.74266374914694,22.55681977762309
19.91367355468269,123.21892206703235,196.70595212068451,307.14428778144,51.22571922776563,153.16239732145993,22.729235648015763
19.88635201119823,125.51842437322985,196.40097771127134,311.90131900988496,50.957117296600835,150.60094610455002,22.903833091786314
19.8593709358297,127.76076806369339,195.98767880860098,316.46155350798387,50.686490752940465,148.06395712491164,23.08033810976508
19.832886931475024,129.9396355341176,195.46932350918846,320.8161664356096,50.415278129056624,145.55670194515778,23.25843806444955
19.807107969014655,132.0488589393884,194.84954634582957,324.9564893312492,50.14484193587766,143.08409873447428,23.43777796150215
19.78229909471805,134.08259621972636,194.13228803735134,328.87411001523475,49.87645007615155,140.65075465234025,23.617964460151175
19.75877057567162,136.0354964591076,193.32176063128472,332.5610376265189,49.61127436974451,138.2610030402653,23.798567922327855
19.736860119077786,137.90280444205433,192.42241193481888,336.00993914572996,49.3503978446484,135.91891223425017,23.979116794096594
19.716925417178413,139.68039234032886,191.43886431801843,339.21440945641075,49.09482002984087,133.6282639651438,24.159091855071463
19.69934588922055,141.36475487232244,190.3758412361824,342.169207439417,48.84546110848075,131.39252517387183,24.337934616085718
19.68451818456718,142.95298848906472,189.23811241728293,344.87040643243466,48.603169981189666,129.2148329811568,24.515072863337345
19.67283824654308,144.44275743750424,188.0304663080278,347.31544637055936,48.36872580193071,127.09798299636168,24.68994596939302
19.664680970822054,145.83225523473095,186.75769900043827,349.50311667978303,48.142824047354246,125.04440453117707,24.862012652691195
19.660394107384565,147.12015292286205,185.42460283968222,351.4334853875723,47.926063401498624,123.05612284995375,25.03074400876954
19.66030959112893,148.30552111528038,184.0359343887061,353.10775937673907,47.71895229385346,121.13472049633535,25.19561494739023
19.664756437536525,149.38773811095308,182.59636181271662,354.52810124081884,47.52192465997764,119.28131734272846,25.35610113766152
19.674059509355413,150.366410541911,181.11042018060394,355.6974762950613,47.33533985632582,117.4965842845156,25.51167917585128
19.68852662738162,151.24132258831185,179.5824879660211,356.6195565995937,47.15946266869237,115.78078009016103,25.661825075693663
