HandOpen,HandClose,Wrist Flexion,Wrist Extension,Supination,Pronation,Rest
55.170305219909096,70.74042215930604,34.7741442210372,34.89657465019653,47.81949190337106,47.20776248220531,17.23237493742964
55.252556434059095,70.63009251711699,34.15412107243578,33.66941889153471,47.88890285753684,46.871027862472204,17.244781294328234
55.32212271154062,70.49765070692547,33.61422653200543,32.50225892623346,47.959963039286734,46.533356736208425,17.255882287129317
55.378873994586904,70.3429294711629,33.158992618776516,31.395203918240952,48.031962437632906,46.19482271028636,17.26582458953773
55.42274729678996,70.16581528803816,32.792812618576846,30.348212440614866,48.10419559182432,45.85545858477975,17.274775098549117
55.45371686326434,69.96623965991142,32.51985909797891,29.36108731999902,48.175957359795255,45.51525051563893,17.28291232763361
55.47177702842625,69.744175144612,32.34401023904856,28.43348799027863,48.24655997172621,45.174141759099875,17.290414940503556
55.47694155357821,69.49963016098764,32.26879154579703,27.564948237279673,48.315347531620084,44.832040429221045,17.29745627177263
55.46925099926638,69.23264232609124,32.29731736388702,26.754881620778104,48.38169003404933,44.48882623885868,17.304206537436603
55.44878595823204,68.94327868471161,32.432227993678076,26.002575905894634,48.44497417276502,44.14435944001252,17.310834645039748
55.415689123803936,68.63164573760992,32.675623994720375,25.307193094862036,48.50462256455803,43.798496162672286,17.317502465958103
55.37018300550121,68.29789751017104,33.02900035084421,24.667781193948056,48.560139047117985,43.45110546107066,17.3243529261464
55.3125675784415,67.9422372337075,33.49318561815074,24.083285990952955,48.61113836770761,43.102078910960444,17.331497208201796
55.24320137639831,67.56492131773264,34.06829037814933,23.55255326826209,48.657338404005024,42.75132987567736,17.339005686118746
55.162478142753855,67.16626236077184,34.75367142149396,23.074327212487887,48.69854310023512,42.398790020123,17.346904548714722
55.07080835259537,66.74661976054648,35.54792129596381,22.647255481798748,48.73464173519651,42.044412693395465,17.35517636248559
54.968608264935945,66.3063805961504,36.44888674221625,22.26990406814941,48.76560872191684,41.68818196931156,17.36376253515502
54.85629476075427,65.8459430384758,37.45370187271242,21.940775663737664,48.79148386059154,41.330119476242345,17.372568281634287
54.734290804689486,65.36570874318735,38.558816161765044,21.65832198793749,48.812348973018324,40.9702902048797,17.381470128119012
54.603045684628185,64.86608216557862,39.76002083681353,21.420950100237743,48.82833281661011,40.60881314571383,17.390322276450263
54.46306040562713,64.3474714721149,41.052499503340314,21.227034328382143,48.839641907723674,40.245874527229525,17.398958300938556
54.31490281755289,63.81028640227813,42.430916985729624,21.074941293896124,48.8465759723097,39.88174217678523,17.407190390013753
54.159203577652434,63.254932188565434,43.889523195422925,20.963058719412583,48.84950379795384,39.51678056970008,17.41481245031765
53.996639297783275,62.68180565135402,45.42222878523457,20.88981463201818,48.84882106023205,39.15145426882912,17.421609449145404
53.82791696733496,62.09130031938336,47.02264021720756,20.853690807821685,48.84492298551814,38.786314522863826,17.427367367709362
53.653759503841904,61.48381598188348,48.684081943881964,20.853238420050126,48.838200157013475,38.42198685862539,17.431877391825292
53.4748845912012,60.859760982855626,50.39962893827504,20.887084058653766,48.82903865580757,38.05917055873822,17.434937223641377
53.29198043245948,60.21954650851375,52.16214626600527,20.953911760401088,48.81780735176776,37.69863771684104,17.436360308472835
53.1056864679281,59.563587564843786,53.9643240482761,21.052429272482637,48.804843334740184,37.34122656882015,17.435997028814217
52.91658271931048,58.8923230561106,55.79871298253451,21.18134304100723,48.7904528958232,36.987841933433636,17.433755501902915
52.725189116083385,58.20624509802852,57.65777204255192,21.3393621861421,48.77491775864397,36.63946389847899,17.42960713703335
52.53196950765062,57.50591388396733,59.533914570904464,21.52522432670952,48.75848506291753,36.29714670514862,17.42357715198345
52.33733108018235,56.79195174312503,61.41953419189625,21.737710345028407,48.741342000038834,35.961997609596274,17.415730100578173
52.14162251754212,56.06503512822564,63.30702889072591,21.97563197755679,48.72359766175682,35.635152395237725,17.406156959254314
51.945144349438614,55.325900677710976,65.18885881151677,22.23781166186957,48.705295276299196,35.31778369201342,17.39496395804204
51.748169504319584,54.575357014183886,67.05763417385484,22.52307363576815,48.68645139183607,35.011150699069134,17.382261122200788
51.55095248387874,53.814283715654035,68.90618547163555,22.830239672159315,48.667086460074145,34.716640622316376,17.368152401533127
51.35371488682779,53.0436137743866,70.72758554986027,23.158117341658684,48.647229844504196,34.43576043128745,17.352738510040606
51.15662180306589,52.26431119723022,72.51514303382072,23.505488801736544,48.62693836747395,34.17010763593776,17.336144430899704
50.95977397804644,51.47735512713189,74.2624013870558,23.871120042347624,48.60636207475735,33.92136163856502,17.318561239553798
50.76322361106338,50.68373154979097,75.96315549214734,24.253788878076406,48.585815151688834,33.691286571470506,17.300271433107504
50.56699580649596,49.884426016488305,77.61147102883875,24.652302313234078,48.565788388880435,33.48172242393873,17.281642769419033
50.37109560257196,49.08041688383668,79.2016940131609,25.06548503304575,48.54690768694713,33.294576738817824,17.26310453003189
50.17550123188042,48.27267935194083,80.72846402964629,25.492153629201365,48.52989173011305,33.13183135942313,17.2451249399645
49.98016308144729,47.462202534903575,82.18674319102188,25.931101760572894,48.51553424054656,32.99553569934799,17.228195559302716
49.785039023235925,46.65000353656788,83.57184298078711,26.38110540059544,48.50468835492746,32.88775619660621,17.212817537457855
49.590171496199424,45.83712684328032,84.87942954271125,26.840933888394268,48.498232878809816,32.81049729097947,17.199484865405896
49.395757645601364,45.024635053370964,86.10551683155482,27.309349328964398,48.497042969030545,32.76562897059263,17.18866871416125
49.20217512637538,44.213602652206774,87.24646959711036,27.785100341974825,48.50199347606991,32.75484688027578,17.180810253935906
49.00998362621309,43.405124773297445,88.2990193206676,28.26692599235689,48.51397624598572,32.779670911215995,17.17632053518913
48.81991795572476,42.60034133809866,89.26027427133971,28.753564771083088,48.53389135390612,32.84145718132829,17.175578297809697
48.63286048205159,41.800457233645815,90.12771326829639,29.243753647217023,48.56261540964228,32.941397134331076,17.178921544553152
48.4497960509756,41.006750775905125,90.89917415647787,29.736222337985723,48.60100191665856,33.0805071910773,17.186638536967607
48.27177194962398,40.22058476659346,91.57284404257506,30.229700759500393,48.649952553616984,33.25961871112362,17.198966642645225
48.09987747268437,39.44342133334058,92.14724523276593,30.722939859321965,48.710512722963784,33.47936297756816,17.216099818049884
47.93523434052446,38.67682370473321,92.62121823406314,31.214725564889573,48.78390415796413,33.74014457059939,17.23819491851726
47.77897710676844,37.92243870903694,92.99391774093492,31.703873209021786,48.871479196502634,34.042109604734804,17.265368576964757
47.63222365038166,37.18197572727351,93.26482948305983,32.18921115500978,48.974665742413094,34.385126027244624,17.29768810319069
47.49605688354437,36.457196373567704,93.43378986057688,32.669568802535345,49.094967579835426,34.76878996198803,17.33516664904154
47.371520932208796,35.74990741619752,93.50099271909994,33.14377425989472,49.23400629789547,35.19245185571503,17.37777079457514
47.25961050683075,35.06195483608654,93.46700088449084,33.61065459145731,49.39353298769334,35.65523855081915,17.425437234235833
47.16124137653146,34.39522865705575,93.3327767187763,34.06903037239547,49.57537760423263,36.156062417640555,17.47808349104551
47.077213438936425,33.751667258610176,93.09970396111686,34.51770657603837,49.78138067148654,36.693629221438556,17.535605058698494
47.00818433392577,33.133250877513845,92.76957183929268,34.95546842686773,50.01334810656291,37.266444395836544,17.597869530649337
46.95466227187273,32.54199545065783,92.34453134401699,35.381086202872076,50.2730088821772,37.87280760776372,17.664719101364934
46.917021434183084,31.979942093050727,91.8270467542675,35.793323681522416,50.56194977454803,38.51079909236149,17.735977314074663
46.89554673114561,31.44913683489025,91.21985420527352,36.19094271321814,50.88155160666179,39.17826983936424,17.811449026449743
46.89049649963625,30.951640681582248,90.52593438962738,36.57270638123665,51.23296522735771,39.87284408922887,17.890911620967668
46.90213837862548,30.48960293656054,89.74849884855402,36.937392250952534,51.61711944716753,40.591936496449264,17.974104275020917
46.93073202637694,30.06534656209305,88.89097495669982,37.28381785975952,52.03471570569366,41.332779520187415,18.060721306894433
46.97648716238009,29.681380961589735,87.95697990912792,37.61086317085369,52.48619041672985,42.09244963511626,18.150411194604743
47.039534746481365,29.340328425606454,86.95029699598916,37.917477688540465,52.971672847829645,42.86788237915586,18.242778952761327
47.11991894092055,29.044817449263572,85.87487052871128,38.202684252679326,53.49096343669638,43.65588005997793,18.33738761671059
47.21759678395072,28.797390438819978,84.73481090973266,38.46560737088233,54.0435226249249,44.45312538638395,18.43375795349242
47.332429631101306,28.600437494995358,83.53438551591208,38.705532235700716,54.62845369742372,45.25620578030438,18.531371399820415
47.46416163725948,28.45614917704166,82.27798649077977,38.92195834967052,55.24448362135922,46.061638909139454,18.629679570894556
47.61239697953857,28.366495571480343,80.97008946584346,39.11461049900625,55.88995861695764,46.86589126830044,18.72811454999691
47.776591106833166,28.333251135756573,79.61521999702849,39.28341450470052,56.562867328424325,47.665396384746856,18.826092909295205
47.956056883985795,28.358043949627977,78.21792912540931,39.428473565675986,57.26088480546395,48.45658191865799,18.923015804345816
48.14997104712429,28.442368681711756,76.78276878403094,39.550064952786954,57.98141145083589,49.23589964697474,19.01827172721945
48.357372718185786,28.58754362637728,75.31426573174717,39.64864235393982,58.72159673354492,49.999845351139186,19.111243045951237
48.57716634404898,28.794656530864103,73.81690205815704,39.72482039463011,59.4783730340282,50.74497009030564,19.201312168070235
48.80813947960338,29.064539359846297,72.29510439379162,39.7793444346852,60.248519568878656,51.467899099083716,19.28786366164594
49.04898171025653,29.39776570206123,70.75323502943233,39.81306551755299,61.0287302469419,52.16536788210182,19.37028333792471
49.29829051752368,29.79465608319778,69.19557774953675,39.82692349316189,61.81564719827286,52.834263068127676,19.44795950202891
49.55457493337267,30.255290119768617,67.6263162742027,39.82192481190861,62.60586277405211,53.471646912422194,19.520290309150134
49.81627169354969,30.779512473180528,66.04951065246766,39.79911220975636,63.395923459721814,54.07476188218673,19.586694771673347
50.08176833057937,31.366925462459246,64.46907941548467,39.75954341165983,64.18235172297874,54.64103022390752,19.6466211401069
50.349419184110566,32.01688888835015,62.8887885018413,39.70429363508511,64.96166821025236,55.16806129673713,19.699549603108668
50.61754990177496,32.72853329968752,61.31224429095301,39.63447024245884,65.73039598877527,55.6536646331796,19.744991649555416
50.88445852772245,33.50076826173085,59.742890808641185,39.55121342132222,66.48505401131622,56.095856111585164,19.782490906647354
51.14842404452279,34.33228244538451,58.18400892360785,39.455675360924886,67.22215533900214,56.49285071090266,19.81162786480066
51.40772161907852,35.2215460924347,56.638714100107066,39.348993032510386,67.93821338007906,56.84305016157375,19.832025372172495
51.660635142908134,36.16681536756344,55.10995508002024,39.23226948273375,68.62975012786625,57.14503778932109,19.843351656942808
51.905465243977275,37.16613492190947,53.600514743581684,39.10656403490175,69.29330252819689,57.397582605197556,19.845324632280608
52.14054299493082,38.217339093159566,52.11300750132352,38.972883044898964,69.92543359169098,57.599643582283875,19.83772295382911
52.36425713639879,39.318045356983546,50.64987111597192,38.832171299559306,70.5227642433343,57.750368470199426,19.820399900435834
52.57508319009939,40.46563254321307,49.213360964039616,38.685314820204326,71.08202866837412,57.8490935926261,19.793289358715757
52.77159570365516,41.6572097952339,47.80555405322,38.533155119613404,71.6001258192601,57.895350538284845,19.756400575373128
52.95246484938023,42.889592194666356,46.4283573576281,38.37649781302052,72.07414221422563,57.88887427762135,19.709808769734263
53.1164557103688,44.15929542465691,45.083509455943165,38.216105107150646,72.50135829681517,57.8296052225919,19.65364882970663
53.2624423205069,45.4625476070535,43.772573511813455,38.0526820553491,72.87926543337916,57.71768558284993,19.58811292638076
53.38942910108696,46.79530308563672,42.4969274757533,37.88687303280677,73.20559688333101,57.55345405895696,19.51344805652017
53.49656134769987,48.153250701976766,41.257757186230734,37.719271123056785,73.47835175414377,57.337442467460605,19.429949716688213
53.58311796284066,49.53183034643634,40.05605858950381,37.550425046503726,73.69579639404614,57.07037475497202,19.337952069465594
53.648499476184796,50.92626738831547,38.892656564294704,37.38083234621414,73.85645502226696,56.75316195637818,19.237820652444697
53.69222574246949,52.331612984980346,37.76823815994548,37.210931263695215,73.95912080301115,56.38689047971314,19.129957670243456
53.71393850616572,53.74278615739453,36.683383415657914,37.04111258176857,74.00289808780498,55.97281591706653,19.01482078896652
53.713393984786,55.15462882284152,35.63858017454592,36.87175096503756,73.98724064587194,55.512371557535324,18.892938321560116
53.69044774921959,56.56196462827326,34.63422439847168,36.703229854963965,73.91195286013098,55.00717782816573,18.76490553276875
53.64505177628344,57.95963625445109,33.67061262117125,36.535941139250966,73.77717266287735,54.459034890488404,18.631368215154072
53.57727033188183,59.34251779039592,32.747933058158964,36.37027111752815,73.58336715800233,53.86990557710997,18.493009222502746
53.4872951234454,60.70552420390891,31.866264249963592,36.20659569152555,73.33133237965697,53.241909467161804,18.35054287048215
53.37544239706106,62.04363876723694,31.025584968297395,36.045288034615545,73.02217185104732,52.57732849293052,18.204709434154307
53.24213738447852,63.35195439785084,30.225786037799125,35.88672126797373,72.6572553162465,51.878602249688136,18.056264757856063
53.08789765396702,64.62570596608303,29.466672883445973,35.731257521702375,72.23818243507485,51.14830363552076,17.905974542255315
52.913318737024184,65.86028295403256,28.74796323982803,35.57923947600883,71.76676443609065,50.389113396815354,17.75462536442277
52.71905988151481,67.05123173566355,28.069297540263364,35.43100167609286,71.24500938545452,49.60380986079007,17.603044763894584
52.50582575180073,68.19425833724105,27.430270223028486,35.2868920840138,70.6750948434376,48.79526264567976,17.452107844712632
52.27434495227534,69.28523795253518,26.83046458121842,35.147278282018924,70.05933440436664,47.96641206324598,17.302721970980276
52.02535875533054,70.32023145901522,26.269465238697624,35.01253030584283,69.40015736473617,47.12023526839004,17.155802447734896
51.75963497423149,71.2954995125261,25.74684508869558,34.88299538734685,68.70011009866539,46.25971314710003,17.0122536854711
51.477998534506426,72.2075095316037,25.262145703774237,34.75898076855148,67.96186340916282,45.38780694451295,16.872958533036506
51.18134931713796,73.05295067136892,24.81486727606213,34.640746146446254,67.18820084971131,44.507441541337585,16.738768495944274
50.870654971539594,73.82877327021468,24.40446722862988,34.52849630108206,66.38199137508936,43.62148598673181,16.61048848702729
50.546940514755235,74.53223933278707,24.03035581732473,34.42236945321061,65.54618157952304,42.73272816161502,16.48885889232056
50.21129799835914,75.16095129938188,23.691883855265868,34.32243093778903,64.6838207826754,41.84385171357587,16.374541759974143
49.864906983532975,75.71285072563926,23.388332010238997,34.22868344815857,63.79808070445338,40.9574287953841,16.268113227704944
49.509043023130964,76.18620899085008,23.118910726807034,34.14108770375752,62.89223411183753,40.0759326068583,16.170059753869214
49.14507496484356,76.57962497682256,22.88276538480452,34.0595749173502,61.96960554671728,39.20175355131092,16.080779081476255
48.77446046587106,76.89202106700434,22.678975027848413,33.98404899265828,61.03352825860926,38.33720097812129,16.000593918044697
48.398730632675075,77.12262745171589,22.506544331259107,33.91439751925148,60.08732321030056,37.48449595505212,15.929781354389403
48.019457257944204,77.27095977663406,22.3644049150925,33.85051571933174,59.13428823081689,36.64577172927767,15.868602985424953
47.63821824765431,77.33680303955299,22.251442631458538,33.79231954364659,58.177679832654455,35.82307990488149,15.8173154323956
47.25658147503546,77.32021026422173,22.166541025742035,33.73973354692838,57.22069685684029,35.018385597019574,15.776159119380688
46.876110130503925,77.22151045258968,22.10860976282884,33.692668677518654,56.26648856521845,34.23354839592097,15.745339522331543
46.498369751490486,77.04131017724177,22.076589438448313,33.65100808780531,55.3181798772476,33.47030402535942,15.725013598669385
46.12491341497085,76.78048265009905,22.069454074861223,33.61460126700151,54.37888255070669,32.73025722922211,15.715283841171196
45.757247155784164,76.4401577341448,22.086219787293782,33.58325766791307,53.45168075566619,32.01488035123918,15.716193971856582
45.3968009692226,76.02173591302042,22.125944634940268,33.556737378858216,52.53960144778275,31.325508663906692,15.727722317865197
45.04491952760642,75.5269308665105,22.18771164697475,33.534748141495186,51.64557739346151,30.663332931469014,15.749783360508786
44.702858218662904,74.95781354862679,22.27060505142747,33.51695957798782,50.77240631825855,30.029393591063553,15.782255073618225
44.37176712434063,74.31683718192998,22.373692506121017,33.503029497460005,49.92270980763602,29.424575917082002,15.825026441404633
44.052667402543385,73.60685617071113,22.49601651584456,33.49262201424562,49.09889781968471,28.849604291071774,15.878030791840178
43.74643389670487,72.831145010145,22.636588682669995,33.48540539864607,48.30315016797625,28.30503705148354,15.941243212699753
43.453786370005425,71.99339815382267,22.79438020952465,33.481038443247165,47.53741760366216,27.79126312843468,16.014655418145743
43.175281435987976,71.09771674037614,22.96830932387012,33.47916234428314,46.803424671180096,27.30850169615602,16.098250371808554
42.91130223814669,70.14861456235744,23.15723219350327,33.47940335371797,46.102659900718685,26.856809455921482,16.191985157153244
42.66206275024399,69.15104956526503,23.359943865815904,33.48137554230222,45.43636562523232,26.43609619676863,16.29577888002036
42.42765820084666,68.11045923102493,23.575187614469485,33.48467930184511,44.80554749115773,26.04613912205123,16.409500603493722
42.20816032175012,67.03276892002812,23.801664313455767,33.4889130756041,44.21099951647294,25.686588327867074,16.532957310641255
42.00370036070983,65.92434974393768,24.038041488464188,33.49371098151265,43.65331962911499,25.35696915442445,16.66588542611308
41.81449626632836,64.79193147237288,24.28297001336809,33.498784752639004,43.13290283798575,25.056691145799892,16.807947778929645
41.640839659576145,63.642486952350524,24.535105730744462,33.50393696849536,42.64992498098198,24.785062911923838,16.958734338181287
41.48306906464035,62.48310035738164,24.7931214836213,33.50904159480149,42.204335389598576,24.541303536744188,17.117763400122367
41.341535172666376,61.320840844300044,25.055704372809423,33.514014906355065,41.795862194403554,24.32454565922214,17.28448118711533
41.216560190291965,60.16266454207411,25.321549301537537,33.518799209968684,41.42402077019704,24.13383506381233,17.45826133972935
41.10839919125311,59.01534639339628,25.589360886154196,33.523362558130025,41.08811710553427,23.968134449362303,17.638409847573943
41.01721264892273,57.885421516431805,25.857863015366352,33.527697684676966,40.787251670943355,23.826332686816357,17.824178084118888
40.94305151661548,56.7791195296799,26.1258054442515,33.53180757647333,40.52034010464816,23.707253627426372,18.014776488627728
40.88584737473476,55.7022957265264,26.391961379992463,33.53568972813852,40.28615437477106,23.609660836052466,18.209380214613
40.84540593108932,54.660372702223334,26.65512130884471,33.539337477691774,40.08336209267014,23.532263348081344,18.407127787660798
40.82141149556638,53.65830274705583,26.914091212470495,33.542754178172764,39.91054250740077,23.473731054671042,18.60711930270697
40.81344114174347,52.70055030760848,27.167695925946173,33.545959982044366,39.766187243479834,23.43271924075662,18.808419772702827
40.82097622139458,51.79108049322963,27.41478328263713,33.54898677127939,39.648710911021006,23.407888162939102,19.010069677178617
40.84340607917016,50.93334156605474,27.65423102215165,33.55187729572385,39.55648040378317,23.397908114841123,19.211097881241134
40.88002802456334,50.13024538963541,27.884962210974116,33.55469519008207,39.487843997360784,23.40146003638697,19.410529950822674
40.93005019216388,49.38415673850686,28.10596571006589,33.55753066797433,39.44114007199026,23.417246314151132,19.607392609003128
40.992603191349936,48.696894825154665,28.316312925670736,33.56048928893873,39.41469290606441,23.444009859411114,19.800718931461823
41.06675571922813,48.069742004084375,28.51516630918012,33.56367183135851,39.40682148032441,23.480545791328318,19.989552871702838
41.15152158702892,47.503453257692414,28.701777937552457,33.567161753891156,39.415868546734416,23.52569698095254,20.172949943485474
41.245854972454644,46.998266791896675,28.875479968144845,33.571025452291806,39.44022462605586,23.57834082704184,20.349975871495246
41.34864126316178,46.55392479624418,29.035674270669883,33.575314577810104,39.47832537732808,23.637379947427345,20.519707704014845
41.458690407446745,46.1697080528913,29.181828166502726,33.58005864196422,39.52863798437265,23.701741797063256,20.681243850795383
41.574734863358074,45.844474004766354,29.31347492008126,33.585251476500034,39.58966997470175,23.770381802427597,20.833727064087597
41.69543743010684,45.57669147854895,29.430211020821915,33.590845956627184,39.660006208464836,23.842283500031286,20.9763710645788
41.819424998769655,45.3644779180219,29.531687336478907,33.59676264772059,39.738340813460496,23.9164565088762,21.10847608929586
41.945350382630004,45.205643023488285,29.617602701474322,33.60290144110782,39.823477820032636,23.991940498457684,21.229433030991306
42.07194741330331,45.09773275906753,29.68771135502241,33.60914340117406,39.91431888819809,24.06782765294197,21.338725435755983
42.1980479753905,45.03806266843404,29.741842455200814,33.61534367078776,40.00987137815471,24.14330277854213,21.435930592656472
42.32257072920793,45.02374084594377,29.779915903100747,33.62132725930618,40.10927482462296,24.217674818138825,21.520714779030282
42.444502450318964,45.05170172513248,29.801945717442788,33.62689460887585,40.2118119258091,24.290378751097645,21.59282280103354
42.56288014879085,45.118761909264144,29.80803796870227,33.63182898579753,40.316886806485336,24.36095723772596,21.65206990447805
42.67678334025012,45.221673457152626,29.79839125400184,33.63589497157789,40.42399012079715,24.429040449343773,21.698346532828886
42.785341909876216,45.3571475164627,29.77329927256268,33.63883083382688,40.53267806086467,24.4943295749898,21.731634496014042
42.88774490528205,45.521854172686886,29.73314873651502,33.64034718095086,40.64256872067386,24.556580449910932,21.75201717990364
42.98323461015493,45.71242146638278,29.67840744990727,33.64013582121967,40.75333639357296,24.615585366559337,21.75967282731821
43.071095596153604,45.92544542659699,29.60960894773028,33.63787802774243,40.86468989205061,24.671156680319616,21.754861196316465
43.15066530845671,46.15750583051626,29.52734534738697,33.633245024205394,40.97634658682166,24.723119067329975,21.73791957945378
43.22137472852813,46.40517662383191,29.43226722104848,33.625897284726136,41.08802616156831,24.77131303947384,21.709269689670876
43.282789628165155,46.665030045414355,29.32507801857076,33.61548981020652,41.19946910399437,24.815601213226117,21.66942208751701
43.334621931537555,46.93364596821403,29.206520275428154,33.60168437522963,41.31045500529195,24.85586641140965,21.618967853063737
43.37672459149731,47.20763547680317,29.07736531485163,33.58416346191332,41.420797331416686,24.892002715128637,21.558561246259586
43.40909881079269,47.48367181993154,28.938413103004386,33.56263502660581,41.53032433912547,24.9239094468339,21.48890119129288
43.43190725741443,47.758512956269556,28.790492753783145,33.53682535713814,41.63887324813176,24.951492122359113,21.410713552309193
43.44546590220599,48.02901119690979,28.634452801703663,33.50647289269969,41.74630345335414,24.97466393066679,21.3247337796746
43.45021053247056,48.292121518909624,28.471145144346586,33.471334446191264,41.85250485188331,24.993342067895544,21.231691760522835
43.44666119606897,48.54491678908157,28.301414631003517,33.431196962293804,41.95738468193205,25.007442648806585,21.13230305326449
43.435403759937834,48.78460186024743,28.126097889303292,33.38588043221695,42.06085369794359,25.016881054505763,21.027272111427877
43.417082426325216,49.00851673450725,27.94602346303529,33.33523324425683,42.16284372320617,25.02157753043204,20.917306301089493
43.39238689262256,49.214131403895145,27.762004603513272,33.27913509418554,42.26334952093585,25.021459932033036,20.80312666758211
43.362038003489246,49.3990418240861,27.57482455780158,33.21751031693209,42.362451381733145,25.016457866907373,20.685464172476923
43.32678739234366,49.560975258647424,27.385220875056756,33.15033549895306,42.46029846156849,25.006493176219543,20.565047620949528
43.2874234733743,49.69780531057761,27.193875983699417,33.07763248894065,42.55707939341081,24.991477767979717,20.44259677384271
43.24476023974912,49.807565470003894,27.001416473040774,32.999463377119774,42.65300681321344,24.971323868688273,20.31882399053283
43.199607436455295,49.88845152757876,26.8084151962825,32.91595216470561,42.74830955970985,24.945958817156196,20.194434931750322
43.1527485118274,49.93882073552534,26.615389042179302,32.82732923719739,42.8432170395647,24.915332460854547,20.070120610273026
43.104949130595365,49.957207193777045,26.42279555378516,32.733960627928354,42.93794329172432,24.87941646889889,19.94654630087181
43.056986261912776,49.94235726264132,26.23104535981611,32.636338597763235,43.0326891021374,24.838204215476722,19.824347289893243
43.009664927137585,49.89326062649409,26.04054599321539,32.53505243353827,43.12765556695567,24.791714088603317,19.704131234683125
42.96380948513592,49.809154310552046,25.85176130877459,32.43076447843544,43.22304292395748,24.739990772931616,19.586478162409097
42.92025372671433,49.68950650589938,25.665245792181146,32.32419183927202,43.319028985568586,24.6831025285179,19.471934350701865
42.879853133461886,49.53399997457545,25.48163881941289,32.21608295139745,43.415751228638925,24.62113833922313,19.36100512732995
42.84350546174524,49.3425213060302,25.301641912170187,32.10718895168054,43.51331293704549,24.554205389550226,19.25415248754757
42.81215383748982,49.115149130244156,25.125998395188944,31.998242936586113,43.611801990964196,24.482423857011447,19.15179860523622
42.78676879542527,48.852137579874984,24.955471914770676,31.889955897266276,43.71129393486735,24.405919051366354,19.054329646000294
42.76831730832153,48.55390465863633,24.790818401467277,31.783019156720627,43.81183188628267,24.324812742223003,18.962093280915457
42.75772767117373,48.22103953779697,24.63275857466258,31.678097713652623,43.913404455383954,24.2392164201488,18.87539166998271
42.75585989023022,47.85432348796017,24.481960998064377,31.575818450807308,44.01594185505861,24.149233846776312,18.79447821710659
42.76348275569886,47.454738600407914,24.339035292383226,31.476772107821123,44.11932469204524,24.054977777542597,18.719560883349388
42.781256708880264,47.02345234199171,24.20452553644874,31.38153295753101,44.223386496431054,23.956590762038676,18.650804467805177
42.80972480930299,46.56179637668945,24.078897758921432,31.29067537411599,44.32791169723734,23.854253701308334,18.58832581552188
42.84930461946041,46.07126090407864,23.962525736331386,31.204769130381546,44.432652448345614,23.748180693601626,18.532188526903884
42.900272572918816,45.55349991836453,23.855681565151134,31.124362135894046,44.537366397449304,23.638613974019226,18.482407287073855
42.962746689307885,45.0103254258781,23.75853255987117,31.049970963844977,44.64184244469345,23.525827644227682,18.43895960943037
43.036682220903515,44.443683048319905,23.67114184754931,30.982082378104217,44.74589279642687,23.410131965912615,18.40179262711901
43.121895563365065,43.855623895433475,23.593470720767428,30.92115163506815,44.84933022868598,23.291866616617753,18.370818985201154
43.21811284572815,43.2482852153927,23.52538817481227,30.86758858535286,44.95196009188422,23.171385015356783,18.345908281612868
43.32500905648774,42.62387432340649,23.466697197577755,30.821739647467933,45.053588837174395,23.049042577986945,18.32688401200767
43.442214982832866,41.98464586153567,23.417172703916467,30.78387923969107,45.15402598417588,22.925198796127624,18.313529040279665
43.56930796739481,41.33287402413046,23.37658788279569,30.754211447600202,45.253070151563854,22.800229591586117,18.305592699302196
43.70580607333303,40.67082959276634,23.344715323831124,30.732870332772205,45.35050441786899,22.674535617493152,18.302791829524978
43.85116521625237,40.0007658253876,23.321312824904954,30.719916080287316,45.446126203693346,22.548537583421677,18.30480703221265
44.00477384816223,39.32490593384288,23.306108886131714,30.71533966775595,45.53979205439023,22.42266238937739,18.311281767868408
44.165950166864555,38.64542404050617,23.298793661839575,30.71908151147229,45.63143365303418,22.297327939851268,18.321828853640778
44.3339520952692,37.964421392087594,23.299013497520495,30.7310487816419,45.72103686065612,22.17293188376381,18.336040221930844
44.50800138402039,37.28390765089111,23.306368143506383,30.75111551850649,45.808616350835194,22.049845796283204,18.353492570437012
44.68731034579255,36.60579723798983,23.320422853101213,30.779110778089887,45.89420967788087,21.928412835701597,18.37374959041484
44.8710928357294,35.93191912799599,23.340752352800184,30.814812027633376,45.97787848759432,21.808950188407085,18.39637059650065
45.058554899375736,35.26402405653944,23.367004070649443,30.857949095530543,46.0596942590678,21.691765539894018,18.42093033594808
45.24888825694137,34.603778800371465,23.398938509981747,30.908207653932614,46.13971072258526,21.577188611919365,18.447039034889343
45.44128683975605,33.952756387478196,23.436425355000246,30.965223653229895,46.21794906618496,21.465597192982745,18.474348717475777
45.63497077136458,33.31243388278019,23.479413281825543,31.02857460055748,46.294414453237216,21.357418913135675,18.502546417331555
45.82919095631762,32.6841949403222,23.52789988063999,31.097778514745016,46.36912725340766,21.25311460494174,18.531345451157847
46.02321721875123,32.06932702958994,23.581914468598654,31.172303171962604,46.44213578881803,21.153159059104883,18.56048215357388
46.21633219038221,31.46901102281052,23.641510202062005,31.251577295861196,46.513506561328015,21.058027270142535,18.58971630075588
46.40783773262011,30.88430939415087,23.70675346507316,31.33499927221893,46.583313311690816,20.968185385497208,18.61882924253756
46.59706579657917,30.31616020416487,23.777709445408366,31.421968779199617,46.651630185652365,20.884079821978712,18.64761937195027
46.783386209256086,29.76537843416084,23.854437710985184,31.51197581103142,46.718517681485906,20.80612075084736,18.675905102729423
46.96620584358092,29.23265796806872,23.937002250305845,31.60471927505736,46.784006900581915,20.734665229024166,18.703544325549768
47.14496251977313,28.718569555550733,24.025478775200092,31.700173049174154,46.84810655007261,20.67000728751896,18.73045988302902
47.31912283147105,28.223565779943463,24.1199451550933,31.79856841335113,46.91083571771186,20.61237460519307,18.756649395995925
47.4881813143357,27.74800934151605,24.22046515101147,31.900342903793316,46.97224797491207,20.56192539701294,18.782173262463242
47.6516586905256,27.292217214605696,24.327083765860397,32.00610615206861,47.03241991333717,20.518744786821287,18.807133516347033
47.809109807989024,26.856489775909928,24.439833795332746,32.11662146626992,47.09141787673824,20.48285213004013,18.831658687086197
47.96013946847485,26.441110077748398,24.558736520061498,32.23277683185848,47.14927322600362,20.45422830269323,18.855899343535494
48.1044050201819,26.04633175426203,24.683789626712635,32.35553706370184,47.20597885821606,20.432848811379962,18.88002563886081
48.24159683302266,25.672376686245418,24.814956586831258,32.4858957899809,47.26149343251495,20.41869737086275,18.90421824794585
48.37141188956386,25.319439325393592,24.952172474227055,32.62484689668306,47.315734797820596,20.411754756847674,18.928658117440637
48.49353875992221,24.98768298010508,25.09535919540984,32.77337015169345,47.36856653879167,20.411978916143404,18.95352597995962
48.60765609266704,24.677227182628265,25.24442946224597,32.93241062465847,47.41979938311569,20.419291451857866,18.97901010692076
48.71343150320623,24.3881396714496,25.39927420771189,33.1028440674463,47.46921452313907,20.43357446553075,19.005308987576964
48.8105123153779,24.120439629340353,25.55974919439581,33.2854396153776,47.51658657747338,20.454672703231203,19.03262357311421
48.8985163653449,23.874101556285165,25.72567383386718,33.48083864675372,47.561684073694785,20.48239516180179,19.061149118571706
48.977032013085505,23.64904879648238,25.89683584019711,33.68955570533928,47.60425579444085,20.51651883975154,19.09107455499904
49.04562410282464,23.445141895536622,26.07298774381477,33.91198263127009,47.64402657708754,20.556800571072884,19.12258300777818
49.10384120568308,23.26217315838246,26.253835790394618,34.14837680387777,47.680706899718714,20.60299229091569,19.15584484732279
49.15122409557943,23.099868463171614,26.439038180794917,34.39883960332171,47.71399801141099,20.654848551090467,19.191006672237563
49.18731349262752,22.957887859319555,26.628223886964502,34.66330016165675,47.74358185735049,20.712123247735448,19.22818869489674
49.21165642226896,22.835819008806105,26.82101875982787,34.941506210335355,47.76910910377746,20.77456045444623,19.267497308456413
49.223811488327,22.733166342285923,27.01705629010456,35.233016080749536,47.79020293552747,20.841885772139726,19.309042650319128
49.22334736233408,22.649343915724877,27.21597078410687,35.53719079433075,47.806475706492996,20.913803293239166,19.352943808859163
49.20983497179657,22.583678970581083,27.417386882767136,35.85319242825915,47.817538622701974,20.98999601737945,19.399318016284955
49.18284973824255,22.53542508708215,27.6209109133228,36.17999803273079,47.822998279975266,21.07012234347155,19.448264814299893
49.1419928272465,22.503774095905445,27.82612000477558,36.5164290724502,47.8224623238822,21.15380986915961,19.49985453775952
49.086913859174274,22.487859949861633,28.032548814107265,36.8611799590349,47.815571553887764,21.240658927455293,19.55412082859086
49.01731420938735,22.48676430995704,28.239681377509015,37.21283144417101,47.80203609132584,21.33026068151368,19.61105309294523
48.93293356573859,22.499537860825313,28.44695833238025,37.569856879856,47.781642074966136,21.4222150228653,19.670590991420912
48.83353752974828,22.525231162185047,28.653800954915415,37.930641675426706,47.75423276282528,21.51613472829484,19.73263251841449
48.71891792694336,22.562912182875007,28.859636892676974,38.29352037502474,47.71969488935563,21.611643878194585,19.797061463371907
48.58890103908129,22.611662917625047,29.063910322624242,38.656811466059104,47.677962782764084,21.708383938664017,19.86377721691944
48.443349683241834,22.670571462586196,29.26607732930724,39.01883382867209,47.62902264534371,21.806025034670807,19.932704282119992
48.28215452710026,22.73873327451322,29.465600822444685,39.377915154302,47.572899921287245,21.904270680346716,20.003781913642527
48.10522366766559,22.81525640572044,29.661952091043727,39.73241023576534,47.50964063261947,22.002851375721242,20.076951111398508
47.9124780174161,22.899260703679328,29.854612077483328,40.080726215177265,47.439313825374015,22.101514493818726,20.152149298450006
47.70384935048293,22.989873337415585,30.04306497215988,40.42133655831602,47.36204105326661,22.200022142558716,20.22930934059193
47.479274875699,23.086231582076724,30.226787304832584,40.752779215769664,47.27802378295196,22.29815840863146,20.30835617822564
47.23868989674467,23.187494745186353,30.4052395496404,41.07365409400415,47.18754077068339,22.395734231488984,20.389204694166867
46.98202772479389,23.29285292371053,30.577861333347713,41.38262948372026,47.090924814542745,22.492581572602106,20.471772445875956
46.70923189061901,23.401523676085244,30.744067829470385,41.6784482297374,46.98854874139972,22.58854448846815,20.556008896358254
46.42027222216992,23.512744442704232,30.903247921256604,41.95992381745676,46.880829411639944,22.683481772026646,20.64191913763041
46.115153079766046,23.625774770749906,31.054767828888217,42.22593275378427,46.768229644226416,22.777282088890818,20.72956259684176
45.793915559298476,23.73991110629605,31.197982844027567,42.475415016557164,46.651242237443235,22.869874255903113,20.819032910694695
45.45664458366918,23.85450168231208,31.33225497407058,42.70738255806976,46.5303670610796,22.961220201453635,20.910436557663548
45.10348265730476,23.968947922675472,31.456969974881773,42.92092608458572,46.40609939385994,23.05129889471283,21.003878286062417
44.73464144319768,24.082693296031064,31.571548848169193,43.1152137779954,46.278927904979355,23.140097660131694,21.099449640304442
44.35040546056316,24.195211717260694,31.675454879270422,43.28948437931372,46.149326455555766,23.227615487019605,21.197215089518117
43.951127986857394,24.306002546523228,31.768200277227283,43.44304091122129,46.01773680847183,23.313866446359707,21.297197424198828
43.537223840943334,24.414587809393485,31.849352887567544,43.57524947832694,45.88455913783828,23.398873102185348,21.399369901529226
43.10917158630752,24.520505728688168,31.91853847874752,43.68554247886358,45.750160608532994,23.482657011224514,21.50365991421557
42.66752966078155,24.623302045092316,31.975435547852463,43.77342032023669,45.61488652269106,23.565236899214117,21.609959477626564
42.21294885902575,24.722525930387476,32.01976543517951,43.83844697591135,45.47905442263517,23.6466316490385,21.71813179560879
41.74616619867668,24.81773488402212,32.05128390775962,43.880244895827175,45.34293806524058,23.726858499913334,21.82800899599669
41.26798981313586,24.908503636958155,32.06978084383416,43.89850596315326,45.206771202451534,23.805923719717633,21.939385720143147
40.77929049377767,24.99442777680565,32.075088680844196,43.89302694047132,45.070786300538465,23.883812460331775,22.052015044269783
40.280999252483575,25.075121239304224,32.067089712334706,43.86374738698672,44.935259675654095,23.960488305526976,22.16560778752425
39.77409999619628,25.150216419881264,32.045714424866226,43.81076088924802,44.80052228023877,24.03590766487409,22.279831137134966
39.259613919440845,25.219374541356263,32.01093616834207,43.73430483232537,44.666935692904026,24.11004102473964,22.39430436875925
38.73858437829224,25.282301889629448,31.96277088022468,43.63475272267234,44.53486757078849,24.18288450957105,22.50859626948773
38.21207143300612,25.338757654496476,31.90128266095362,43.51261101832183,44.40468900723281,24.25445558559811,22.622232599016687
37.68115255867809,25.388547562459827,31.826588293437393,43.36850655002148,44.276781805045346,24.324785623039833,22.734715465991147
37.146916809370936,25.43151560195396,31.73885494682432,43.20316255917797,44.15153270154603,24.393921381503624,22.845543193693285
36.61044881588174,25.467547844792794,31.638296096909027,43.01737550328574,44.02931472552488,24.461928994604342,22.9542187498846
36.07281475138763,25.49658386696306,31.52517562337492,42.81200417582609,43.910474221960186,24.5288908306966,23.06024965850396
35.53506177026613,25.518619360718372,31.399818041411862,42.58796884520412,43.795329108978216,24.594902937059718,23.163147612583902
34.99822544881077,25.533697394720896,31.262611842951546,42.34624576981209,43.684164843270516,24.660083408097307,23.26242732875166
34.46332991845354,25.5419054067664,31.114000174108813,42.08784982883465,43.57722035408549,24.72458190771126,23.357601170985404
33.93137699243406,25.54338851921122,30.954469261454193,41.813818252520655,43.47467718206759,24.788573950167223,23.4481723421268
33.4033375837782,25.53836476929318,30.784556126876296,41.525214974729536,43.376668669905314,24.852240781385337,23.533635321706345
32.880154745375386,25.52712286405147,30.60488522748635,41.22315397015304,43.28330255082425,24.91574801067771,23.61349307190417
32.36274813920528,25.51000359933381,30.416208428317084,40.90881469483828,43.19467134454401,24.979231063750994,23.687289390842306
31.852007120859174,25.487380261498487,30.219414592172896,40.58343065909,43.11084166311828,25.042786358086943,23.754637455881692
31.348776543291038,25.459647302298208,30.015511581119892,40.2482624033978,43.03184316928214,25.106464234673783,23.815227904272454
30.85384906285521,25.427213632222333,29.805605928869028,39.90457724124831,42.957675757155975,25.170261741367646,23.86882040851729
30.367969538192256,25.390492465768872,29.59088691574179,39.553641194943566,42.88832324601532,25.23411697482309,23.915233513782983
29.891842057335584,25.349886217187,29.372603826907515,39.1967101520873,42.823751314078045,25.297909331912134,23.954340632427
29.426127620483438,25.3057760195511,29.152034692514615,38.835011846356835,42.7638949283573,25.3614657329479,23.986067566660545
28.971434520834734,25.25853213291703,28.930459247777613,38.46972701982568,42.708663854255455,25.42456531159538,24.010383695134323
28.528313926158685,25.208545673466027,28.709143211908117,38.10198054791377,42.65797286082828,25.486938096238383,24.02728810783036
28.097265768534264,25.15625439108357,28.48932528082483,37.732841275890834,42.611765675700056,25.548262399086777,24.036799827698772
27.67874565576071,25.1021412651936,28.27219855975032,37.363320728767874,42.57000765869459,25.60816614365275,24.038958293907754
27.273162630823244,25.046716018072313,28.058896588117854,36.994365261665806,42.53266131176724,25.666231997773778,24.033829619990907
26.8808693918763,24.990496776341505,27.850502730950843,36.62684844444677,42.49967732466118,25.72200261281592,24.021507680343653
26.502153475534136,24.93399431922805,27.648080094885064,36.261574914886616,42.4710117337038,25.774982132809793,24.002105920695502
26.13723444204932,24.87769491965137,27.452692990009805,35.89929423698809,42.446643093177215,25.82463497118927,23.975746328351452
25.78626443976657,24.822043436629475,27.26540183267271,35.540709706732166,42.42656387528447,25.870388812229272,23.94255358371788
25.449326431236333,24.767435471481786,27.087246163181113,35.186473961493796,42.410759233084185,25.911647571532736,23.902656114389895
25.126428846186943,24.71422738436168,26.919236377054943,34.83718055679947,42.39920588533414,25.947809869298855,23.856188563227278
24.81750005845719,24.662758835571584,26.76235174803296,34.49336435035965,42.39189773249535,25.97828128380117,23.803289945088597
24.522386689862056,24.61336714161706,26.61752885167955,34.15551059208049,42.388868708759915,26.002476188558596,23.74409899026845
24.240856913687413,24.566382227563146,26.485637354693182,33.82406069735055,42.39018706592254,26.01981770953288,23.678753231042645
23.97260515813797,24.522115302662222,26.367456921042088,33.499409279075245,42.395932764793486,26.02974550865809,23.607394949036458
23.717254974681467,24.480858999515064,26.263666735333242,33.18190441535594,42.40618691396114,26.03173090778907,23.530178817490448
23.47436287828111,24.44289768202864,26.174843281438125,32.871863033797375,42.421038393940364,26.02528973837201,23.447273870505995
23.24342746133382,24.40851178349936,26.101454148213595,32.569591329193585,42.440585015047176,26.009985502614004,23.358862277527056
23.02390231673574,24.37796865781217,26.043844463705273,32.2753902343662,42.46491542428623,25.985426169085937,23.26514945423694
22.815206757285647,24.351510034167198,26.00222308249027,31.989547363077172,42.49408632506586,25.951264062756152,23.166395524949635
22.616730943625463,24.32935020474344,25.97665531295703,31.712339843652217,42.52811133609531,25.907201909735488,23.062953553869132
22.427838572939933,24.311686809989986,25.967064235127275,31.44406005416359,42.566955533301034,25.85299888767849,22.95528637147872
22.247873938713052,24.2987111581139,25.973241184165207,31.185041947311998,42.61052205885918,25.78847395575744,22.843954662927036
22.076175584902987,24.29060931083709,25.99486366700726,30.935660919976854,42.65863284055894,25.713510778720305,22.729595223682754
21.91208957348906,24.287567382130845,26.031512111566045,30.696312296875604,42.71102037803741,25.62806353310306,22.612907443476164
21.754974901981786,24.289797217543,26.082675866279654,30.467395711069457,42.767341538350415,25.532156763828052,22.494647055615015
21.604203101574477,24.297569128001932,26.14774894348391,30.24931943378284,42.82720036130773,25.42587625741412,22.37561473507459
21.459160816036444,24.31122141966572,26.226023412557808,30.042510310679948,42.89015649511551,25.30935417518166,22.256636148444805
21.31925977835423,24.331140299713088,26.31668586645813,29.847407607986142,42.95572006143229,25.182755271540053,22.138545475265232
21.18394722290196,24.357733083968096,26.418819175585284,29.66444109045005,43.02335929844167,25.046272467406,22.022181757008866
21.05270791878393,24.391415728989976,26.531414491065952,29.49401406872778,43.09253087613818,24.90013497771026,21.90838978053955
20.92505957687562,24.432610755407755,26.653397081411374,29.336504478222903,43.162706545110936,24.74462040298487,21.798011336967036
20.800549951358498,24.481737280067147,26.783655794556424,29.19227185559398,43.23337155056995,24.58005922198467,21.691865500576263
20.67876104365384,24.539189625450554,26.92105905823527,29.061651265945997,43.30400586255877,24.406830500009725,21.59072746391977
20.559317920339375,24.605321479600974,27.064454259639405,28.944938452171126,43.3740782785757,24.225353826489645,21.495312272987363
20.44189352353037,24.68044612717101,27.21266108691013,28.842386650206176,43.44306497704587,24.03608110672245,21.4062619393354
20.326206293386914,24.764840205249108,27.364467045464696,28.754217065298384,43.510471056040245,23.839491175679715,21.324133289071074
20.212018153322415,24.85873472513885,27.51862681168276,28.680623673438266,43.57582974867755,23.63608676700551,21.249388458010635
20.0991384716718,24.962294275061208,27.67386915024697,28.6217668186254,43.638683157479505,23.42639165619291,21.1823922641627
19.98742790999775,25.075598653262247,27.82892119498982,28.577772552722625,43.69856802852194,23.21095688810079,21.123417491767395
19.87679407182898,25.19864232843192,27.982553824239975,28.54874237697735,43.755018781357364,22.990389411178143,21.07265310140515
19.767181031022105,25.33135301050069,28.13363057641393,28.534754388151633,43.80757565879012,22.765391353484354,21.030208126772237
19.658562542011587,25.473609444218248,28.281133479699925,28.53584576143497,43.85578041351353,22.53677898694413,20.996109352736656
19.550944028079012,25.62524205862786,28.424160964688777,28.551992262365328,43.899162196384474,22.305475409639666,20.970297428743695
19.444366246114072,25.786027383230167,28.561916886653897,28.583103220538607,43.937235773515475,22.07249853709501,20.952627687750205
19.338901007799965,25.95569472879905,28.69370608169667,28.629028600006315,43.96952692984609,21.83895264056794,20.9428788100905
19.234639915988158,26.13394105296715,28.81893417425161,28.689559633038,43.99560810647596,21.606011419188366,20.94076511438827
19.131684615458763,26.320435767015958,28.937101843528783,28.764415727057102,44.01511315965266,21.37488797914626,20.945943814737934
19.030144528933263,26.514812955683798,29.047790127541674,28.85323063875019,44.02772976149992,21.146801881337765,20.958014999594525
18.93014005036116,26.716669079458434,29.150644163282625,28.955553558411626,44.033196524703165,20.92295285589949,20.976521702829697
18.831802806393323,26.925577831612035,29.24536821082899,29.070863527220514,44.031315091440476,20.704500939902502,21.00095797689025
18.73526849358457,27.141107529774683,29.331735747782304,29.198580218364018,44.021956835466185,20.492548144855338,21.030783421684987
18.640669053058353,27.3628221454696,29.409600519940184,29.33806175840294,44.00504914703589,20.28812117434332,21.065434520818798
18.548134592859178,27.590274125269005,29.478893208921413,29.488599814650303,43.98055621485999,20.09215805126549,21.10432807150065
18.457804171152734,27.82300975360933,29.539607836338373,29.649423193164896,43.94847985697532,19.905498769987997,21.146864370457358
18.369832498915887,28.060584268514315,29.591792697014185,29.81970435213758,43.90888072007012,19.728881632707683,21.192440470150192
18.284385045089223,28.302565043870484,29.635548073476674,29.998558524242668,43.86189048081978,19.56295085955068,21.240470492277293
18.20162929395667,28.54852010625713,29.671019725700123,30.185039762166166,43.80769745812509,19.40827224551068,21.290398073829117
18.121733970978674,28.79801547837182,29.69838548242024,30.378148994506432,43.746525475106324,19.26534243216763,21.34169444371828
18.044876261956894,29.05063332433342,29.71784872465914,30.57685914214376,43.67863042317613,19.1345862157067,21.393852784708844
17.97124552450165,29.305990362493805,29.729648812811416,30.780141592819707,43.60430763731726,19.016352719027235,21.44639333170958
17.901037007841843,29.56373462077747,29.734076850695317,30.98697548380951,43.523886931167894,18.91091807313616,21.49887956461531
17.834442251722077,29.823529293511157,29.73147731963262,31.196345934120206,43.43771462732861,18.818489089673264,21.55092986871822
17.77164546784237,30.085048285471267,29.722232535293458,31.407259581942817,43.34614963236931,18.739204485310758,21.602214955583303
17.712825541891316,30.347987869873236,29.706743330669998,31.618788324646953,43.249589016789585,18.673137799422555,21.652450298897417
17.658154866280572,30.612073542285312,29.685421050969833,31.830110886080572,43.14849806888063,18.620302240536457,21.701393940519512
17.607790326072706,30.87704724540494,29.658694988794302,32.04051942957242,43.04341155817141,18.580653014725428,21.748846381391733
17.5618617061251,31.142646108341694,29.627022775835066,32.24939865120471,42.93491273834785,18.554084365009057,21.794644829946286
17.520465803540706,31.408593204052615,29.590891312358472,32.45620491481687,42.82362683309309,18.540423493318574,21.838651293817858
17.48366830844261,31.674604127853524,29.550814644809254,32.66045481126863,42.710243572089965,18.53943010531838,21.880742339188952
17.45150673968866,31.940392583584476,29.50733786752201,32.86171318010764,42.595539373774216,18.550806581823924,21.920810672318726
17.423988665681872,32.20566127007744,29.4610386405203,33.059573704501005,42.48036974591659,18.57420966673478,21.958777951323103
17.401089387495627,32.470086377451246,29.412515577585328,33.253638252092365,42.36564795134381,18.609253222230507,21.99460351027921
17.38275575458107,32.73331411151002,29.362369601574027,33.443504239844906,42.25234346695458,18.655506542316303,22.0282779124742
17.368914539833455,32.99497296560624,29.311191374368825,33.628761643750224,42.141495566512184,18.71250144725251,22.059806915071213
17.359477503294308,33.25468485379375,29.259556739653345,33.80899295611133,42.03420720346565,18.77975188121672,22.08919613995009
17.354338130498068,33.51206065857487,29.208021064320192,33.98376827227848,41.93160981418622,18.856773104679437,22.11644025427402
17.35336368814268,33.76668994030941,29.157105474298394,34.152635582724,41.83482808586514,18.943087092526735,22.14151509413335
17.356393107732863,34.01814695481022,29.107278094186455,34.3151160401022,41.74496680427135,19.038218749227216,22.164372221327245
17.3632463298742,34.26601532119262,29.058939031428366,34.47071263123288,41.663105368086065,19.14169391192846,22.184943444889115
17.373736090362296,34.509906766315844,29.012412805765027,34.618925618756236,41.59027792653409,19.253036831236642,22.203163974853595
17.387670401225073,34.749455468179875,28.967944218495848,34.7592591842082,41.527445526454706,19.371760791452797,22.219004135832478
17.404849299527587,34.98429881105016,28.92569474482706,34.89121768318831,41.47548040947183,19.497355495429694,22.23248539534707
17.425068631170124,35.214066635194605,28.88574139806345,35.01431030230963,41.43516164260758,19.629277765076644,22.24367296114269
17.448132224215264,35.43838440878506,28.848080427934615,35.12807834528024,41.40716470859763,19.766948690064922,22.252659899025012
17.47386026395866,35.656875955047376,28.81263999306328,35.23212965521743,41.39204223701033,19.909759127973494,22.259558118882516
17.502086284220535,35.86915577627849,28.7793050118754,35.32615260948095,41.39021365691517,20.057080081294885,22.264497945881008
17.532646808971016,36.07482199319064,28.74794397407464,35.40990892901962,41.40197637602758,20.20826919823803,22.267627236685897
17.56537046419697,36.27346700815441,28.718420784311345,35.483227402296855,41.42752550317213,20.362674032951933,22.26910267250025
17.60007268862075,36.46470476886926,28.69059093949702,35.54600598881687,41.466957949616166,20.519644413680158,22.269077382184772
17.63655878404872,36.64819281321415,28.664296509535824,35.59820901934943,41.52025866136865,20.678555831881344,22.26769567280278
17.674628997300484,36.82363162997977,28.639366884641866,35.63985537463536,41.587292934742486,20.838826646258973,22.265097313854074
17.714077467064012,36.99074684665982,28.615618415954028,35.671014756240616,41.6678200683067,20.999916371195418,22.261420878296864
17.754687281200827,37.14927125150931,28.592848038860016,35.69182424520923,41.761511710125895,21.161314357466985,22.256797859040674
17.79623059075126,37.29893554334126,28.570827680528037,35.702509132899316,41.86795147607351,21.322535984098593,22.25134275133613
17.838475305599655,37.43946328009636,28.549308513532285,35.70338321211913,41.986619399286845,21.483128829621812,22.245149781837043
17.88118988120157,37.57056260690462,28.52803252395188,35.69483097991159,42.11688877274756,21.642676167543375,22.238298793775197
17.924140109592948,37.691917168839744,28.506739168736683,35.67729872686256,42.258055087918464,21.800790480288644,22.230860525437276
17.967082434681586,37.80318726453332,28.48516155925316,35.651306625880814,42.4093803275915,21.957106103959955,22.22289305042757
18.00976350576025,37.90402493411119,28.463020141395365,35.61746072163138,42.57011656692544,22.11128319936522,22.21443717275393
18.051929723785033,37.99408975731498,28.440026383782477,35.576441092508226,42.73950269027388,22.263021286829034,22.205524603746245
18.0933389612737,38.0730516985235,28.415899461080585,35.5289723010369,42.91675930054544,22.412067995462507,22.196197106410864
18.133763692073558,38.14058550881326,28.39038282298967,35.4758017744818,43.10109244397596,22.558212881743223,22.186519207483222
18.17298556088534,38.196373381055956,28.363246821777654,35.41769852727899,43.29169137881261,22.701269953523134,22.176576199758824
18.21079281043521,38.240124727750874,28.334279762186643,35.355457759853216,43.48771602515277,22.841059127145833,22.16647138330096
18.246987939415394,38.27160063317333,28.30327791234958,35.28989346225294,43.68829753476004,22.97739351475945,22.156338409196945
18.28139733857707,38.2906225579986,28.270038774348333,35.22182577560954,43.892568840088835,23.11007253030079,22.146361352198415
18.31387152214577,38.29706338606824,28.234354845433124,35.152080503777,44.099701958178166,23.238875971300047,22.136780767326393
18.344278744777895,38.290835010154474,28.196007503675755,35.08149607064205,44.308917640958924,23.363556603560728,22.127879193319167
18.372503339052045,38.27187951486206,28.154770739052985,35.01091675322387,44.519469151015485,23.48383616964943,22.11996023714367
18.398451577761904,38.240159915608565,28.110433833286997,34.941168163529426,44.73062876105907,23.599410269293,22.113336024114794
18.42205570223318,38.19564852719483,28.062831642067888,34.8730332896081,44.941689451846806,23.709957866506734,22.108322759616293
18.443268372380697,38.13831780625526,28.011858431699448,34.80724134820848,45.15196640314075,23.815146452694137,22.105233496913712
18.462052360125927,38.06814056323245,27.957459189858387,34.74446095921116,45.360783002325505,23.9146313033731,22.10436414299095
18.478376419802938,37.98510121128506,27.89961605914573,34.6852859092446,45.56745153252279,24.00805415828844,22.105981106525082
18.492220195075337,37.889208643681826,27.838345614391372,34.630216669897,45.771274409045596,24.095046363381623,22.110317972152952
18.503578958116165,37.78049936352417,27.773702835654927,34.57965239937813,45.97157303145478,24.17523684834428,22.117577188611616
18.512460396934912,37.659034070075485,27.705779062134468,34.533902427288396,46.167717546599675,24.248259464609323,22.127927585922084
18.518879561473845,37.524903023390685,27.63469381152187,34.49320606934924,46.359130673320884,24.313754948932228,22.141495178646103
18.522864571865995,37.37824562099777,27.56059158677662,34.45774080980607,46.54527351108457,24.37137321738524,22.1583518099295
18.524473833027603,37.219268444854166,27.483645755708196,34.42761765326567,46.72563854321007,24.420789973928116,22.178506219147195
18.523809299753317,37.04824433657615,27.404059567889643,34.40288144916509,46.899754178214806,24.461738886146286,22.20189894095522
18.52101391193232,36.86549512069173,27.32206044626408,34.383524267728816,47.0671829111532,24.494036752556877,22.22839928194577
18.51625908596602,36.67137355403965,27.237893731167244,34.369497870667495,47.22750496129629,24.51758414735005,22.257801830233532
18.509734295402964,36.466254268148866,27.151820527629674,34.360711456425,47.38030565259828,24.53235475763788,22.289823144097465
18.501642848496584,36.25053123493112,27.064119453506784,34.35702248536312,47.52519086168816,24.5383965899128,22.32410375235598
18.49219925696922,36.024613940048276,26.975087989630893,34.358239001199316,47.66182576629237,24.535846009238348,22.360219965790247
18.481622245983015,35.78891970253307,26.885039252192286,34.36413486963808,47.7899615451496,24.52493443932161,22.397700998523018
18.470124455986447,35.543869736891324,26.794298034903015,34.37445881510507,47.90943530916837,24.505975579970062,22.436040846962605
18.457906531964035,35.289901588004724,26.703202525298334,34.38892500630265,48.02017355118585,24.47934335498993,22.474701135974193
18.44515869437814,35.02749710656611,26.61210937212882,34.40719854848045,48.12221820798862,24.445456827886368,22.5131113396591
18.432062571120653,34.75720291139924,26.521393103500483,34.42890556897308,48.2157447283817,24.404776832564806,22.55067774416105
18.418787797979892,34.47962599040494,26.431434954218897,34.45368340937902,48.30104187848409,24.357805666789154,22.586808095773428
18.405490372692515,34.19541617883157,26.342604852580642,34.481242741351,48.378468948438154,24.30507826501259,22.620942131224574
18.392322763374967,33.90525536297107,26.255244101788005,34.51139490782704,48.44842362551834,24.247144493100855,22.6525686165559
18.37945274555187,33.60985460676845,26.169654912457595,34.544035940854954,48.51132830105689,24.184553820779023,22.681223865515086
18.367075732763823,33.30994690912292,26.086097909637278,34.579114371192205,48.56761660495154,24.11784922943169,22.706483397157772
18.355410978526102,33.006270384031204,26.0047917597215,34.616601764214366,48.61770654007618,24.047564016470766,22.727955567092838
18.344688438501226,32.699549985536436,25.925909562388945,34.656466258089864,48.66197034650859,23.974213433099145,22.74527541954545
18.335141624340096,32.390488105704684,25.84957392789192,34.69864822241972,48.70072244811738,23.898284017355707,22.75809652007213
18.327014257186324,32.07976420357649,25.775854774108996,34.74304556335798,48.734229330492354,23.820231808838372,22.766086023518657
18.320571406018505,31.768033552004184,25.704770519536,34.78951709599832,48.7627190479993,23.7404938137168,22.768930594759574
18.316099836587245,31.45591879071818,25.636290321390018,34.83789753408271,48.78637283600405,23.659500198403396,22.766351344827594
18.313896398556818,31.14400050871571,25.570334474034176,34.88800521003533,48.805310442325364,23.577672907538524,22.75811541050624
18.31425603848525,30.832816429368375,25.50677376153218,34.93963603437874,48.819589478860856,23.495413356244462,22.74403642871635
18.317465395421,30.522867789201758,25.44543289997396,34.992559902378225,48.82921886815246,23.41309375116975,22.723969014231468
18.323796190083744,30.214621880383742,25.38609988370911,35.04653665880754,48.8341681784363,23.331064538142336,22.697804770323796
18.33349288355648,29.908505478396172,25.328534344868775,35.10134301687365,48.83436076347967,23.249675559264606,22.665469861614376
18.34675833660174,29.604896389540556,25.272467689525037,35.15678396422145,48.829658337547286,23.169291758126693,22.626920492047205
18.36374638742622,29.304124074280885,25.217597917074386,35.21268140105221,48.819856108263245,23.090291802598255,22.582140518212263
18.3845672917074,29.006480815083798,25.163591071659965,35.268862393453716,48.80469928716128,23.013061421398298,22.53115395041116
18.409301029017136,28.712232380396017,25.110098414160465,35.325165596856316,48.78390720876407,22.937993483153505,22.474053394255865
18.438004904994166,28.421618896915394,25.056781676402498,35.381454263581546,48.75718107338012,22.86548745846247,22.411023585465724
18.470710832216113,28.13485057331265,25.00332956925847,35.4376132538108,48.72419348932805,22.795938211012178,22.342341576365325
18.5074244119503,27.852109606577034,24.949465079115516,35.49352951007965,48.6845819461043,22.729718705610846,22.268358567772278
18.548137978390447,27.57356009598221,24.89495686336446,35.54907617611065,48.63796137336481,22.667169844963745,22.18948053163759
18.592850886776326,27.29935471240435,24.839633878659342,35.604113261080045,48.58394370414472,22.608604309891973,22.106158272396776
18.641578822903863,27.029630752337415,24.783389736375504,35.65849518280799,48.52214658629414,22.554315410396324,22.01888435618912
18.694346249090522,26.76450396944216,24.72617649930538,35.71206823759025,48.452197699882205,22.50457647240794,21.928187108399154
18.75117116674752,26.50407127533931,24.66800033249143,35.76465639434514,48.37374855042418,22.459630489466026,21.83461698911405
18.812050249049665,26.24841996473882,24.608922203867756,35.81604651416034,48.28648802640968,22.419681781402428,21.738730332453017
18.876946324947163,25.99763235604572,24.549054509065,35.8659797817806,48.190138852488886,22.38489502062396,21.641080808799995
18.94577926290847,25.75178132677164,24.488547873326773,35.91414747819349,48.08444310957501,22.35539504284022,21.542223954717645
19.01842200784013,25.510922969204348,24.42757445862987,35.96018787237521,47.96915736370288,22.331260163558003,21.442725356179366
19.094704062561974,25.275096379245777,24.36631978720943,36.00368767896364,47.84406330512392,22.31251049620006,21.3431582309428
19.1744229288156,25.044333883838238,24.30498569930027,36.04419541385988,47.70897811947707,22.299100583288034,21.24409101742003
19.257357005911782,24.818671888574926,24.243792165419165,36.08124279341342,47.56375049017473,22.290926037017513,21.14607892287897
19.34327013575953,24.598150791596243,24.182967544977434,36.114358548251914,47.40825061264005,22.287842234052025,21.049666152808822
19.431906566825983,24.38280718451472,24.122733633896047,36.14306851718495,47.24237687613991,22.289679427768395,20.955388953182194
19.522989454939317,24.17267153761067,24.06329917862518,36.16689363961204,47.06608683323017,22.296245357090918,20.86376801177482
19.61624328745873,23.967775410206226,24.004864074803415,36.185356856432286,46.879428288762085,22.307328055803605,20.7752917652511
19.71144084403571,23.768157904919168,23.947623547331194,36.19799352472049,46.682542491368984,22.322713417932054,20.690399501938685
19.808441809324098,23.57386230588311,23.891768175177376,36.20435342541531,46.475644941967374,22.342208674301396,20.609470456192287
19.907195902469564,23.384926651506735,23.837489452558874,36.203994530619546,46.25901256103745,22.365652790174362,20.532819931533307
20.007720143319908,23.201378460117553,23.78499611654457,36.19648167928298,46.03298838381521,22.392912586898326,20.46069938918703
20.110071317448767,23.023238223634362,23.734530813787195,36.18140053233245,45.79798455749292,22.423876458508396,20.393297662361032
20.214321875287027,22.850525122764164,23.686372481369787,36.15837927821744,45.55446797649526,22.45844987095458,20.33074420795048
20.32053958885589,22.683255650661184,23.64082331823143,36.127099328396014,45.3029458752294,22.4965479132455,20.273116725479216
20.428769967125874,22.521437013802096,23.598195015434264,36.08729233044613,45.04397851711581,22.538082455154743,20.220451710884582
20.539021127008038,22.365066681263972,23.55880515987231,36.03874376184831,44.77821260285428,22.58294838915177,20.172751299799597
20.6512540949275,22.214141837321858,23.522976567603248,35.98131342322209,44.50639865070537,22.631016161810958,20.12998171556402
20.765381422465445,22.068667536757083,23.491027763934756,35.914952634191636,44.22937629787387,22.68213379839698,20.092067503996326
20.88127009683855,21.928652813410714,23.46325599328119,35.83969830478211,43.94805643028748,22.736133959712657,20.058889788720986
20.998741598374423,21.79409986159756,23.439925410334418,35.75565262069535,43.66343341064073,22.792836879640344,20.030290460197886
21.11756792756993,21.665001161726074,23.42127272656265,35.66296712120085,43.37661555437014,22.85204449456317,20.006075899966685
21.237469216790213,21.54134964264928,23.407527284568424,35.56183506092369,43.08883268673077,22.91353184975567,19.986015295710992
21.358119108865417,21.42314873670523,23.398925077615985,35.452483448765186,42.80141614492073,22.97704608638231,19.969837192935696
21.479156171479726,21.31041023902371,23.395703342247792,35.33516019014241,42.51579410641721,23.04231329734801,19.95723162661961
21.60019169456294,21.20314954725084,23.39808289890387,35.21012813025912,42.23352125716994,23.10904264689993,19.94786006938145
21.720808353144555,21.10139453879918,23.406249886165185,35.07768917427948,41.95630162458519,23.17692496563212,19.941366479292363
21.84055446932834,21.005203094305596,23.42034155225473,34.938240581413794,41.68596443612666,23.24563934683714,19.937380822601476
21.958942290012207,20.914669047597762,23.440435252536002,34.79232416423443,41.42440794670856,23.31487470482794,19.935515339658274
22.07545356072737,20.829909331858246,23.466537344031853,34.64063113908339,41.173550321499214,23.384349485031667,19.935361352989872
22.189547763070667,20.75104369271397,23.49857254240889,34.48397334859391,40.935298416664196,23.45381189469406,19.93649148773084
22.30066701429599,20.67818100512818,23.536380435367196,34.3232524344996,40.711515407547715,23.523025430196725,19.938464818443613
22.40823766016016,20.611416777491037,23.579722192083167,34.15943520194892,40.50397610785531,23.591757007507432,19.940831232020653
22.511674194292038,20.550834962981444,23.628291099156176,33.993525842809305,40.31432794783281,23.65977988914101,19.94313794378716
22.610389649166986,20.496505001408313,23.681723001004077,33.82653425514197,40.14408318043475,23.726887552543637,19.944946336797827
22.70380813402281,20.448474353962197,23.73961182772577,33.65945171557705,39.99463731988794,23.792901335841414,19.945860441955244
22.791371336592718,20.40676495590666,23.801531219529505,33.49324217202451,39.86727784734646,23.857662695107646,19.94555340904529
22.872538232396302,20.37137890732046,23.867053058345004,33.32884223213842,39.76316672807135,23.921019255917905,19.94377596250136
22.946785627479265,20.34230714954575,23.935754496546714,33.16715456689462,39.68332738816584,23.98281945272668,19.940347763322155
23.013615876440124,20.31952987228066,24.00721277556352,33.009030372637284,39.628671247899064,24.042920640575225,19.93514641404016
23.07256828525844,20.303008549168286,24.080994251318202,32.85525257801115,39.60004880746938,24.101200878126427,19.928102259778896
23.1232250446665,20.292681183217148,24.156647852724635,32.70653434667116,39.59827410751841,24.157561567407324,19.9191937628666
23.16520864587008,20.28846731850476,24.23370745657255,32.56353270215087,39.624101965949286,24.211918775436352,19.908438911599898
23.198174807728638,20.29027621254253,24.31169638876939,32.42685898202953,39.678185507808756,24.264189661972623,19.895887429427983
23.22180510319757,20.298007976717066,24.39012670940483,32.29707340727237,39.761042398833034,24.314280983421753,19.881619561203678
23.235801632450155,20.31154653173173,24.468497130387526,32.17467439369011,39.87303065674014,24.36208208825051,19.865750076318268
23.23988522041044,20.330754014740922,24.54629814754819,32.060096664409166,40.01432351688842,24.4074595655924,19.84842964694109
23.233797740758398,20.355476106565053,24.623023810921563,31.95371324045711,40.18488645748996,24.4502520202439,19.829836840945465
23.217307084940458,20.385554028149514,24.698180733167,31.855829373180697,40.3844750185784,24.49026901112011,19.810162428102775
23.190213242192904,20.420828777145463,24.77128968294497,31.766671690810856,40.612658240503244,24.527297915858938,19.789593631745518
23.15235827056022,20.46113300397073,24.84188773718346,31.686388729334436,40.86884167545153,24.561114739753982,19.76830497835975
23.103640584513567,20.506282705396774,24.90954073385085,31.615068395384487,41.152266136882034,24.5914898530632,19.746456733957146
23.044024607184095,20.556082069527463,24.973860374798033,31.552755723052698,41.46199526042806,24.618185851678685,19.724194832339148
22.973540176770015,20.61033830545243,25.03451030096903,31.49945664814445,41.79692591104731,24.640954465203148,19.701646348203454
22.89227868033253,20.668869736878634,25.0911970641506,31.455143332293122,42.155831874262226,24.659539131064935,19.67891265088288
22.80039220714655,20.731499583188025,25.143657567459123,31.419785993562858,42.53740918595318,24.673680681141793,19.656068122174744
22.69809200277242,20.798047375630492,25.191655877546886,31.39340118327601,42.94028786454858,24.683119393541833,19.63316887810045
22.585641577006022,20.868333765138278,25.234989755358562,31.376077090053567,43.36301721479177,24.687593245568575,19.610264912542906
22.463347407319226,20.942198068271814,25.273494282540423,31.36795938290911,43.804060014144824,24.686839477755722,19.587404397232856
22.331554697220653,21.01951085037127,25.307033548514998,31.369219647858802,44.26180895323884,24.680603449671356,19.564629202842067
22.19065202213648,21.100169612771513,25.335485700900627,31.380032883597693,44.73460266775148,24.66864828488495,19.541971868901758
22.041079160384317,21.18408669718429,25.35873610792252,31.40056900210069,45.220720832737776,24.650756725406584,19.519460315715786
21.883327297081262,21.271184711303604,25.376696888436694,31.430985074055958,45.71837091814612,24.626728212325986,19.497123649455975
21.71792913900256,21.361400058088677,25.389356919618436,31.471407359566793,46.22569248436951,24.596382269319406,19.474990496106667
21.545450250244564,21.45468257749428,25.396832990440338,31.521910357071768,46.74078073467892,24.559570206687138,19.453082892379552
21.36649488290781,21.550985646310384,25.39938495539432,31.582509002148107,47.2617045053394,24.516184176571485,19.431415329367102
21.181722923673007,21.650255162714103,25.397391732065877,31.653164907963816,47.7865035321132,24.46615507066876,19.410001273652284
20.99185832965781,21.752428384406425,25.391311198939416,31.733789116928744,48.31318264099683,24.409442399602653,19.38885917613435
20.797678728473382,21.857441785381035,25.38164165139223,31.824232940765867,48.8397300501437,24.346024825504017,19.36801036873907
20.59999813642905,21.965235304025782,25.368890305590565,31.924287040707032,49.36415701692989,24.275900586900157,19.3474703754848
20.399658916142503,22.0757443634372,25.353549988848567,32.03371546621536,49.884525557515154,24.199100978950266,19.327240696762054
20.197532976016753,22.188885447568573,25.336085500335653,32.15231425119264,50.39894566399877,24.115705548278072,19.30730750467079
19.99451878025717,22.30454658237384,25.316929611308886,32.2799480815715,50.90556043864259,24.025844690928412,19.28764804889014
19.791527076365476,22.4225855452769,25.29648201471598,32.416541124154804,51.40254171881138,23.929691731671003,19.268236888376286
19.589464522625306,22.542828767681534,25.275102736732013,32.56204543291845,51.88809399242229,23.827459505029577,19.249044293432885
19.389228177461245,22.66506558611025,25.253101178437593,32.716415818499094,52.36045301561847,23.719408878082476,19.23002910589651
19.191710003830767,22.789041828853094,25.230732525544457,32.87959327984302,52.81788154044462,23.60585841185682,19.211132634462707
18.99779751874697,22.9144603433569,25.208211788732022,33.051484771206056,53.25868312108683,23.48718238719391,19.192275828207837
18.8083621808936,23.04098872661754,25.185738763789743,33.2319352377947,53.68124156254091,23.363801868374786,19.17335784941453
18.624242154064724,23.1682651326732,25.163512782406613,33.42069824944347,54.08405838089717,23.23617911216305,19.154254354548414
18.446231751326806,23.295895552568656,25.14172721809332,33.617414113745916,54.465759087753675,23.104813526713148,19.13481803642455
18.27508113196399,23.423448028079576,25.12055596061415,33.82160626413532,54.825078462736364,22.97023308835607,19.11488658295727
18.11149720798209,23.55045495085917,25.10014739951868,34.032699944398246,55.16086056754626,22.832980801531512,19.094296568032455
17.956137953465422,23.676426038834922,25.080626830797467,34.250049675746126,55.47208914210515,22.69359921536686,19.07289395570107
17.80960510672111,23.800861176921472,25.06209718690259,34.472962533668834,55.75792252698779,22.552618214712787,19.05053636961034
17.672444112789385,23.923254558441318,25.04463461600422,34.70071833989873,56.017700382814034,22.41055043312683,19.02709265584773
17.545150412088667,24.04310007424273,25.028292550167027,34.932582969757696,56.25092888166672,22.267891342081462,19.002448223814415
17.428172022696767,24.15991226301574,25.013128211933157,35.16780515416782,56.45727254672499,22.125116656326554,18.976516616457925
17.3219024449054,24.273254979169156,24.99923855143659,35.40560479322133,56.636553418984505,21.98267516170592,18.94924713053725
17.226670433469124,24.382754828970963,24.986776110928208,35.64517681425517,56.78873604274633,21.84098281992775,18.920620512916543
17.142737327255173,24.488092275037207,24.97593813775532,35.88571812675049,56.91389668562847,21.70042385934718,18.89063646032841
17.070302272486053,24.588986004704505,24.96694902703886,36.126452532769264,57.01220328800587,21.56135621092303,18.85930086250023
17.009505047059307,24.685188027406603,24.96005031854823,36.3666292973597,57.083925013837515,21.424112960564642,18.82661644424316
16.96042124288819,24.77648975829817,24.95549267637615,36.605505128909215,57.12945295864762,21.288996476397735,18.792575949239804
16.923057854530356,24.862724745442208,24.9535210825283,36.84233828147599,57.14929914026206,21.15626993271771,18.757156722122655
16.897359089899233,24.94376018255273,24.95435570211545,37.07640743922988,57.1440721019753,21.026152713021816,18.720320203255806
16.883219126418524,25.01948575783918,24.958175939753634,37.30703709387819,57.11445811987785,20.898821399643825,18.68202222880053
16.88048898651376,25.08981174788275,24.965108777581417,37.53360676529096,57.061223872684984,20.77441209411202,18.64223102326585
16.88897609931624,25.154676434585213,24.975217756520276,37.755549817670385,56.98522145049618,20.653019758484625,18.60093895186751
16.90845351332461,25.21405136256864,24.98849207145228,37.9723589328157,56.88737354963407,20.53469504207095,18.558160010634545
16.93868984801143,25.26793848249282,25.004840639861776,38.18359552294562,56.76864835068841,20.419441865502623,18.513920707837883
16.979483586457626,25.316370574822127,25.02409936002476,38.38888873650121,56.63004638672938,20.30721788174963,18.46825666591565
17.03067603036729,25.359426491024596,25.046051929167792,38.58792376995554,56.47259777591441,20.197936245113002,18.421217460758015
17.092140468885884,25.39724990331405,25.070448423406116,38.78044598111243,56.29735206527559,20.09146548966791,18.372870905515544
17.16376616949599,25.430050067604597,25.09700917577773,38.96630889672527,56.10536353008202,19.987629003650323,18.32329987920228
17.24544883227279,25.45808348634591,25.125423804204765,39.14554325338362,55.897696541822704,19.886211548026438,18.272597846470067
17.337081878251023,25.481635685600597,25.155360285412872,39.31838680997424,55.67545393633974,19.786977275089374,18.220875149289807
17.438541402202116,25.50101568919924,25.186480475528864,39.48525660615496,55.43979500129643,19.689692234847914,18.168275981166826
17.54966773337152,25.516555909764573,25.218447638850257,39.64669931066225,55.19192088118066,19.594139044879853,18.11499032886265
17.67025123264115,25.528605191537938,25.250922730366593,39.80334756688921,54.933047780332934,19.50011893474939,18.06124975800211
17.800028627775383,25.537515954389544,25.283559705998588,39.955879736936055,54.66439702341903,19.407445197040346,18.007312335836854
17.93868902532171,25.54363689044082,25.31600894405915,40.10497711557637,54.387199000077345,19.31593379843524,17.953447042049472
18.085878160695245,25.5473159989673,25.347926024998497,40.251286455799814,54.10268584515096,19.22539509563075,17.89992451587234
18.24119428889897,25.54890441110382,25.378976208291927,40.39540416607773,53.81206404818626,19.135628917384683,17.84701515695539
18.40418578340746,25.548750081322478,25.40883505117188,40.53788649452394,53.51648672601137,19.04642426173886,17.794987294323324
18.574359038444175,25.547184532445804,25.437196968914233,40.679262621048366,53.21705063133875,18.957563327010853,17.744100426499497
18.75118833776213,25.54451771091551,25.463792820309905,40.820025804341746,52.91481734270514,18.86882645173265,17.694602138312252
18.934117323721054,25.54104890252271,25.48840111337567,40.960609914420324,52.61082916681323,18.779993387884968,17.64673768341718
19.122554992942835,25.53708121696634,25.510842662883697,41.10137643701115,52.30610255163704,18.690840216308086,17.600764034533775
19.315875478632183,25.532922871003787,25.530963833796257,41.24261722567514,52.00162314668926,18.60113507709838,17.55695322392418
19.513423966730393,25.528877521727463,25.54861887455327,41.384554691432704,51.69836948928426,18.51063641342946,17.515583199516193
19.71452174865661,25.52523882353656,25.56366143605909,41.527328192199946,51.39734645625077,18.419098327692975,17.476928382445845
19.918464441982458,25.522295159324965,25.575949027042668,41.670979103625676,51.09958905628172,18.326284773399248,17.441261509289582
20.124517974163627,25.52033473123299,25.585350640986697,41.81545156762469,50.80613753885375,18.231984474923298,17.408863824148575
20.331924381066806,25.519639335986184,25.591745731028176,41.960605725576016,50.51802210812172,18.13601695099319,17.380028747268035
20.53992260564092,25.52046874288576,25.59501573377472,42.106224083040054,50.23627222260588,18.038233039209672,17.35505403438467
20.74777158765795,25.523050149331926,25.595037115782603,42.25200237238861,49.961922054489186,17.938521317351125,17.334236439138976
20.954758575170715,25.52758201023529,25.591680268376674,42.39753819284487,49.69598884038882,17.836821484598104,17.317879190099607
21.160193197019197,25.53424251153735,25.584810909577175,42.54233549404379,49.43944002692708,17.73313351760335,17.30630083218702
21.363401669224142,25.543186941718005,25.574289054781293,42.68582474132808,49.19317677442873,17.627517056800606,17.299829693163122
21.563728942552338,25.554535121596505,25.559965902804024,42.82737870460045,48.95803451651427,17.52008655287084,17.298785066688943
21.760542158803215,25.568364380101233,25.541683969159312,42.96631013959145,48.734776748523224,17.41100663010031,17.30345749713303
21.953226592577085,25.584715750929973,25.519283676157034,43.1018593022554,48.52407126050995,17.30048697157098,17.31409749972891
22.141177981265702,25.603603573940855,25.49261158667341,43.233185285817505,48.326467700567065,17.18877441198927,17.330912208996317
22.323805193139098,25.625015277568647,25.461521984371053,43.35936861585752,48.142393644100444,17.076141354808307,17.35406223097741
22.50054793001382,25.648902099203028,25.425870426500932,43.479427719952376,47.972158904520064,16.96287690838007,17.383653886739648
22.670894733748035,25.675173175969068,25.385507232898963,43.592348839877594,47.81594968130036,16.849292414727017,17.419729240025916
22.834385730449892,25.70369944410334,25.340279854132767,43.69712727017513,47.67381125730303,16.735741966824506,17.46225781044578
22.99060419276951,25.7343190222437,25.290042997547886,43.792811043113,47.545632095961366,16.6226411872776,17.51113124307986
23.139172775488003,25.766834141900972,25.23466610625626,43.8785276745581,47.431142530377585,16.51046927334266,17.56616179216383
23.27976064883226,25.80100263717826,25.174032581794293,43.953483027896084,47.32992894455585,16.399756715432105,17.627086743611894
23.41209097348016,25.836535087746007,25.108035390559017,44.01694498224906,47.24144805761042,16.291070803163198,17.69357891243773
23.535936568390998,25.873102510734387,25.036575346361225,44.06823296886098,47.16503023061516,16.185007234101455,17.765260230020033
23.651105713577465,25.910347030693718,24.959563232088104,44.106721399910306,47.09988515044442,16.082186252090068,17.841714834082538
23.757429745095557,25.947884819644816,24.87692217120363,44.131846769493436,47.04512886385339,15.983245050314972,17.922497377330313
23.85476017568173,25.985301504507373,24.78858866594976,44.14310513856082,46.999823006804014,15.8888226120811,18.007133408666544
23.942972143382786,26.022151172766456,24.69451739345126,44.14004273358906,46.96299711442819,15.79954335788305,18.095114412036278
24.02196509891561,26.057967455289877,24.59469235110944,44.12225704174625,46.93364691349507,15.716009030840484,18.185894588518053
24.091657423329618,26.092280653739902,24.489136187047322,44.08942090448461,46.91073328846275,15.638800557973124,18.278894054899183
24.151982541492963,26.12462652400373,24.377909450422575,44.041317169567776,46.893201383232324,15.568481243434288,18.373505928903803
24.20289619997461,26.154543642193392,24.26110416098776,43.97785470463928,46.88000677959516,15.505591777079132,18.46910177681921
24.244391490040464,26.18157221256569,24.138843380941026,43.899059449522674,46.870124947414034,15.450638379336919,18.56503486548665
24.276506892953797,26.20526437985341,24.01129025783264,43.80506841995354,46.86254554035448,15.404086802241292,18.66064621404761
24.299321403977594,26.225198879454425,23.878656599426666,43.696144515192934,46.856273537652136,15.366373685742728,18.75527760045683
24.312945250121608,26.24098663857846,23.741200295606703,43.57269084048678,46.85034342019775,15.33792916884481,18.848287735779092
24.317515268522328,26.2522667113373,23.59921240926088,43.43523930986354,46.84382911883722,15.319189714434133,18.93906194443981
24.31319522608438,26.25870507956779,23.453003197401795,43.28442237207095,46.8358446457001,15.310589960139406,19.027012444620244
24.300174857579005,26.260005140255974,23.302896818836174,43.120955166230736,46.825559436530035,15.312543666304611,19.111576770894406
24.278663379512256,26.255922236436227,23.14923658242054,42.9456365471891,46.81224393539884,15.325428829706945,19.192220934097982
24.248881161418243,26.246268324651293,22.99239068287371,42.759350213001284,46.795319193066504,15.349579457422891,19.268444895725377
24.211057066751096,26.23090791748742,22.832750204366146,42.563049936337585,46.77437094301638,15.385276453311851,19.339783729547786
24.16543262091013,26.209759923755154,22.6707244642045,42.357740099998,46.74912344644175,15.432735546914921,19.405802521691502
24.11226488988348,26.18280949284477,22.506741000405007,42.144469711417266,46.71940236072551,15.492098900644244,19.46609152183746
24.05182268379805,26.150115694146752,22.341247957703125,41.924334051078816,46.685113445562635,15.563433455318014,19.52027403243803
23.984383589038377,26.11180353334257,22.174711714389815,41.69846307312349,46.646237337763345,15.646730815481805,19.568031976863317
23.910242811366743,26.068047723491382,22.00760954579873,41.467993167546545,46.60282053637349,15.741903054875781,19.6091336096056
23.829731198602857,26.01906633827343,21.84042578101126,41.23404096105545,46.55495364258716,15.848774675402481,19.643443173878698
23.743226438674114,25.965132198334523,21.673655722154916,40.99769276521398,46.50275443068032,15.967076406062702,19.67091217403684
23.651147459877386,25.906587083763377,21.50781037884045,40.760001423295634,46.446371916668845,16.09644708391205,19.691565728385594
23.553939090400664,25.84383868914522,21.343413485559505,40.52197571071843,46.385997163556254,16.23644301765511,19.705491166658742
23.452061318303745,25.77734197470135,21.180990613377528,40.28456358617969,46.32185605833923,16.386546488813366,19.71282656755827
23.345989503826694,25.707583345095934,21.021058090846598,40.04864726514904,46.25418665127803,16.546169162139005,19.713747232189125
23.236218076754025,25.635076435237252,20.86412034588745,39.815061867025946,46.18322770005155,16.714660174202617,19.708453651489062
23.123256685190594,25.560359949200684,20.710675508910253,39.584622147639344,46.109230495049246,16.891331517394953,19.697166292165555
23.007618458410757,25.483987013567354,20.56121924682112,39.35813002204042,46.03247293427844,17.07549375852886,19.680126961152688
22.88981014322549,25.40651060227134,20.416240700740193,39.13636016190537,45.95325253867458,17.266478592213858,19.65759885232538
22.770330295071822,25.32847925908757,20.27621609581111,38.920045954608696,45.87187036119992,17.4636379276093,19.629858854949333
22.649669867739522,25.25044655937256,20.14160596963073,38.70987847160577,45.78864035640985,17.666332099096113,19.597185829439304
22.52830648234416,25.17297818330038,20.012852554186768,38.50650688004497,45.703929478367996,17.873924045597963,19.559854320624886
22.40669241911201,25.096642256993807,19.890371371835414,38.31052650403155,45.61818875936567,18.085784170487248,19.51813714924656
22.28524461541349,25.021989299352335,19.774537862572306,38.12246030047938,45.53194874447504,18.301296806997577,19.472309375441146
22.164344893918013,24.949536630535235,19.66567401129965,37.94275524230911,45.445809088067975,18.519858546996794,19.42264572031544
22.044348556426044,24.879762264784034,19.564038911293164,37.771804252295695,45.36045919780443,18.740870782896117,19.369414853103805
21.92558951177714,24.813101666520623,19.469826011617272,37.60997279038023,45.276711661478004,18.96373607219339,19.312880830829304
21.80837694243809,24.749941243712584,19.383166062705914,37.457603591530116,45.19550120421916,19.187860823186828,19.253314269193602
21.69299258332472,24.690614068611715,19.304129709238335,37.315005791839155,45.117841958784545,19.41265620889601,19.191002708945142
21.57969506229479,24.635408632759788,19.23272574631867,37.182452504737476,45.0447823475931,19.63753127822836,19.126249958690828
21.468724253048237,24.58458811294116,19.168897013975428,37.06018955117054,44.97738865244795,19.861882830890483,19.059366289650264
21.360297718580423,24.538402044052617,19.112518433901805,36.94843609208924,44.9167442335141,20.085092213913192,18.990656331572985
21.25460267310326,24.49708048779321,19.06340353666941,36.84736769124421,44.863932768458035,20.30653571916364,18.920408825291187
21.151794200193365,24.460823504681755,19.021322471121856,36.75709485359833,44.820003152258394,20.525602406834736,18.848891871719825
21.052006890221982,24.42980459803644,18.986021937038352,36.677650499659414,44.78594292447535,20.74170455303058,18.776356012428483
20.95537344197836,24.40418767931413,18.957234177869914,36.60898300491031,44.76267228016233,20.954276478666085,18.703044331069496
20.86203412289911,24.384137841567394,18.934675282247035,36.55094709272187,44.751039312443226,21.162770959499305,18.62920864029072
20.772130596503896,24.369815639203324,18.918041043000173,36.503296356201766,44.751798245533976,21.366659012384652,18.555127207789532
20.685793590674702,24.36136910300124,18.90700322998077,36.46569075844202,44.76557871036329,21.565429469939726,18.481112954594074
20.603136458210212,24.35893880530382,18.90120481614714,36.4377301345719,44.792863526287704,21.758587855994268,18.40750650474318
20.524256244658776,24.362669283672055,18.90025556239215,36.41900350879895,44.83397774794592,21.945664598048285,18.334660742526683
20.44923437745714,24.372709325175357,18.90373113821735,36.40912148388282,44.889079134390464,22.12623679764673,18.26292802760273
20.378135826215612,24.389197184525226,18.911175738217427,36.40771743519809,44.95814430184103,22.299947919871055,18.192658455727578
20.311018816741502,24.41224406164221,18.92210566124651,36.41444472905587,45.040958835791905,22.466509270618282,18.12420728504993
20.247958530727352,24.441929199287724,18.936012712785914,36.42899319782188,45.137128889830564,22.62568612286226,18.057938586409904
20.189066604825264,24.478303901284296,18.952369749562273,36.451106379467916,45.246118570433296,22.777281809365505,17.994217733829114
20.134490423924923,24.52139127714733,18.970643462873493,36.480573434934435,45.36728877627041,22.921132461194606,17.933399641602648
20.08439886632524,24.571180905102853,18.990315843062497,36.51720104224455,45.49991080646928,23.05711551261726,17.87582023327485
20.038972373602085,24.627632469508114,19.010905576536338,36.56078893148715,45.64316034034255,23.185159100853937,17.821789217406028
19.998404688602445,24.69069142150096,19.031977340612933,36.61112278361705,45.79611838048956,23.30524074615522,17.77157974271718
19.962905799764453,24.760300646093032,19.053138315132625,36.667976709202364,45.95778869095746,23.4173813209853,17.725416938126152
19.93269387515147,24.836396073049148,19.0740328216146,36.731108088839065,46.12711456357072,23.521642414185095,17.683474993733267
19.907978876243433,24.91889062405994,19.09434186626019,36.80024440380617,46.30297954818505,23.618122682113018,17.64589213648101
19.88894901246334,25.007656130201774,19.113782605938912,36.87507856117568,46.484200879687045,23.706947716052063,17.612797260110383
19.87576545422425,25.102507891994982,19.13210218489605,36.95527656042666,46.66953478038992,23.788257209396928,17.58432690739589
19.868560650820832,25.203191471522203,19.149071669350185,37.04048105753512,46.85769567202088,23.862198258457312,17.560621332446726
19.867432333679847,25.30937068275143,19.164492065309755,37.13030018687793,47.04737079274781,23.928931359724846,17.541810316103597
19.872431971838157,25.420618774185687,19.178213446608424,37.22428948058597,47.23721789569776,23.98864393600758,17.528006035942905
19.883555044201934,25.536416417464668,19.190151530243423,37.32193979108511,47.425856449215466,24.041555518599292,17.519308463571377
19.900742366386474,25.656158251411874,19.20028718383853,37.422678949167775,47.61186882134666,24.087909220548962,17.51581222975193
19.923891826101823,25.77916478507884,19.2086509965735,37.52588415236621,47.79381199740363,24.12796351449836,17.517603327611823
19.952867484947017,25.90469166698446,19.215303599740455,37.63089159931781,47.970226408345276,24.161995481949003,17.524748802944412
19.987497473555546,26.031931598697955,19.220317983161316,37.73700093451487,48.13963624002753,24.190306840226814,17.5372893131668
20.027566206983064,26.160014376978094,19.22376469218681,37.84349317760075,48.300554784484994,24.213220587517355,17.55523702704637
20.072809197927086,26.288016072764506,19.225699238449973,37.949667909252746,48.45151067514126,24.231073944292742,17.57857348135851
20.122912176039666,26.41498060823176,19.22615115498327,38.05487263557669,48.59108709015743,24.244220689182754,17.607243547288
20.177510960770338,26.539942342460556,19.225116380077043,38.158505590889604,48.71794647874917,24.253039869984434,17.641148265571108
20.23618890729186,26.661937352411467,19.222558759991426,38.260011808535204,48.83083069237845,24.257935848864356,17.680141809558194
20.298474251806603,26.78000614048134,19.21842252301904,38.35889539631939,48.928559427938445,24.259324872060372,17.724034227113393
20.36384345737953,26.89319908209428,19.212645115391915,38.454737461785065,49.010051388450314,24.25761735438229,17.772595789533717
20.43173218099381,27.000588376201986,19.205160638574075,38.54719565680807,49.07435881113345,24.25320509910898,17.825558022674056
20.501546780910605,27.101279152479876,19.195900841336364,38.635985145326785,49.12068389946811,24.24645400067925,17.88261314655358
20.57266894153111,27.194412254307487,19.1848062856539,38.720861895580505,49.14836884097235,24.237698255966485,17.943419047429828
20.644455464582645,27.279163025309,19.17184641816469,38.80161910182916,49.156888699507185,24.22723539287367,18.00761170203755
20.71624175446309,27.354751883594492,19.157034876572496,38.87808623516247,49.1458738735714,24.215323033001035,18.07481645815223
20.787353586291232,27.420475817740524,19.140431243799213,38.95011764137865,49.11514530453122,24.202175944913726,18.144649948277717
20.857121941943973,27.475744563292594,19.122132335732672,39.01757212175147,49.06472312730133,24.18796545788345,18.216716109303135
20.924891579755737,27.52009562673675,19.1022607455543,39.080295275151,48.99480083502176,24.172826132677802,18.290606155979393
20.990021779688,27.55318557318812,19.080957413817032,39.13811174714614,48.90571337325934,24.15686583349677,18.365905330566626
21.051887741883917,27.574774580167436,19.05838002833084,39.19082249126255,48.79792127164263,24.140170028248715,18.442198993348686
21.1098900841418,27.584713800174903,19.03470171933441,39.23819863123898,48.672002725609296,24.122800511544554,18.519072533729577
21.163468611782477,27.582932587026335,19.010105393867388,39.279970679591734,48.52863687387241,24.10479801502187,18.596110859748823
21.2121099708031,27.56942265504538,18.984776220134176,39.315820585729995,48.36858209612816,24.08619500210054,18.672906368141238
21.25534554420291,27.544223210833263,18.958895029009213,39.34538943830522,48.19266501274327,24.06703248965862,18.74907397037389
21.292745460020086,27.507415222883544,18.932631227544938,39.368303282340406,48.00177845202251,24.047367524667692,18.82426131094561
21.3239165528422,27.45912645876718,18.90613490711137,39.38419786150862,47.796870701520795,24.027270037874516,18.898145925180792
21.348507494261323,27.39953650759414,18.879531836028892,39.392729054646274,47.578923013297675,24.00682433157797,18.97042447974567
21.366216406241744,27.3288710871567,18.85292443722084,39.39358606474648,47.34893802744168,23.986142557289078,19.04080792084732
21.376793153595607,27.247388064478347,18.826397518296208,39.38652216090441,47.10795566152429,23.96537565196412,19.109031002397398
21.38003531750727,27.15536572636454,18.800025085126737,39.371382756537756,46.857076023530006,23.944706930165122,19.174867813437128
21.375784596031533,27.05310024492938,18.773873864925193,39.34810432565889,46.59745735383852,23.92433267783926,19.23813794805483
21.36392872460613,26.940909043716015,18.74800056698051,39.31668931514171,46.33029067761191,23.904444241553648,19.29870245089716
21.344405389713952,26.81913049777858,18.722445444971633,39.27718445771997,46.056779647870975,23.88522059105218,19.356461198827322
21.317201561225282,26.68811615171524,18.697228117209068,39.229681560274436,45.778137919119445,23.866828350054583,19.411355254210974
21.2823489149659,26.548221687854824,18.6723470864763,39.17433345663776,45.495586467490256,23.849420753698354,19.463365747712583
21.23992273403367,26.39980704018819,18.64777906303759,39.11136018818157,45.210335023208614,23.833134809186326,19.512504088393296
21.190047682644796,26.243249233661718,18.623478300004635,39.04103335117028,44.92356017487765,23.818091112940536,19.558799302248598
21.13290375056802,26.078956819777762,18.599385315825415,38.963649615130514,44.636401847118634,23.804393685517812,19.602291493569556
21.068723774490294,25.907372585201735,18.57545112088461,38.879506405479376,44.3499746902052,23.792124559027627,19.64303243902415
20.997783120174777,25.728966590511213,18.551664985100874,38.7888818147006,44.06536935074308,23.78133433606311,19.681085346848704
20.92039040859261,25.544230060302482,18.528068038486282,38.69201712521886,43.78363312457368,23.77203399509893,19.716518783244158
20.836887471627247,25.35367247459957,18.504753516073738,38.589103169783364,43.505747669767494,23.76419521229239,19.749401220541618
20.74765665712352,25.157816009218777,18.481864833793882,38.480273507495525,43.23262396882007,23.75776321956676,19.779805528675478
20.653123926342204,24.957185580284303,18.459590512596925,38.365605514216426,42.96511095103,23.752672788190157,19.807821086784745
20.55375109068074,24.752303173979836,18.4381496610659,38.245125811083696,42.70399699820716,23.748853765466695,19.83356077556558
20.450024006881,24.543695638817457,18.41777200200578,38.11881432384956,42.44999576471112,23.746226234925096,19.857155245681987
20.342447793360733,24.331910183670463,18.398683394358372,37.98660463896278,42.20373005761441,23.744693671290428,19.8787383722752
20.23155079886017,24.117521222537736,18.381104891253045,37.848385181209245,41.96572708003555,23.74413798862034,19.898432539861265
20.117887474302712,23.901122943337676,18.365261636618825,37.70401125149208,41.73641932080744,23.744416792992894,19.91634001926645
20.002031314229693,23.6833192474676,18.351387026714793,37.553330087975766,41.51614023627821,23.74536197554212,19.93253989754353
19.884560184164926,23.464724410902353,18.33971370862736,37.39620691883474,41.30512112787184,23.746777701282415,19.94708488223801
19.76604270905668,23.24597284960737,18.330460620957826,37.23254687747873,41.10350565926836,23.74843987556472,19.959995924670604
19.647030496943735,23.027723906411303,18.32383585450327,37.062319470015574,40.91137980633158,23.75010255144459,19.971261422632928
19.528053230203696,22.810654717095204,18.320064550342323,36.88557906780506,40.72879266308989,23.751509108161805,19.980851039447746
19.409613615619026,22.59545100606668,18.319422616158732,36.70246612968339,40.55575293012078,23.752398076655165,19.98874284720062
19.29218624307728,22.382808903461545,18.322247169967955,36.51319366272483,40.39221635190706,23.752500178548434,19.99494568625181
19.176224536066755,22.173444730373934,18.32892068034547,36.31804114972436,40.23809203330952,23.75153408986457,19.999501754802587
19.062171745516533,21.968095758745164,18.339850775786147,36.11736772422567,40.09327302671832,23.749206545831594,20.00247528225691
18.950467184672977,21.76750487195507,18.35546226351681,35.911632591512884,39.957663854283155,23.74521344241482,20.003943017967913
18.84154249614374,21.572400849109034,18.37619596524708,35.70140272885744,39.831181466054204,23.7392393224264,20.003992447327164
18.735810381473378,21.38348786485821,18.40249969656119,35.48733896172164,39.7137463957608,23.730961400582753,20.002720511532978
18.63365469270469,21.201444449569312,18.434808500568202,35.27016830492911,39.605298413904535,23.7200631984805,20.00022665784952
18.535430082440897,21.026921519410056,18.473522821843606,35.05066335702184,39.5058344307137,23.706253347229286,19.99660679669509
18.44146839090946,20.86053291235683,18.518990012116017,34.82964303198652,39.41542833857206,23.689284463916426,19.99195947672667
18.35208027200096,20.702842694810062,18.57148798099417,34.60798315806712,39.33421238274349,23.66897103368216,19.986402046526734
18.267548309827763,20.55435671786012,18.631210141171493,34.38661318036574,39.26234526141796,23.64521110490439,19.980080166229843
18.188121857216185,20.415520130001642,18.698254063802448,34.1664930916983,39.19999699622521,23.61802401360602,19.973163021564464
18.114024491895062,20.28671550495812,18.772617930240802,33.948585667190216,39.14734746179096,23.587597120982245,19.965836939071036
18.045470023843755,20.168255730970248,18.854206763537025,33.733837772652805,39.10457589539471,23.554308549154836,19.958309694281976
17.982671112363406,20.06037321609852,18.94284392349749,33.52316844156879,39.071835642183984,23.518721164505482,19.950819103199162
17.92583234565662,19.963213932865383,19.03827947435215,33.317453069778225,39.04923694712826,23.481584779912648,19.94363205222064
17.875136446251762,19.87684114984365,19.140192012166498,33.11750514082223,39.03686426707427,23.443857772266625,19.93703218010899
17.830738120174974,19.80124261509593,19.248187918294143,32.924074430651025,39.03481874641172,23.406713017696475,19.931307423332285
17.792769416490252,19.73633319451504,19.36180335627094,32.73787090441196,39.04324469613438,23.371508027824323,19.92674767170959
17.7613454641212,19.681955724927153,19.480510189966996,32.559590746474086,39.06232569476575,23.33973670142807,19.923649346921803
17.736561082953042,19.637889676526942,19.60372224372184,32.38991602965101,39.09227363851207,23.31298377740069,19.922314292683648
17.718483812094426,19.603869350736595,19.7307980263626,32.229492182070715,39.133319222770346,23.292895808401873,19.92303806785595
17.707152824019936,19.57960038038563,19.861041825927803,32.07890926798446,39.18569059567592,23.2811758714742,19.926094939497595
17.702582550131222,19.564765650576646,19.993710310893338,31.93870028064201,39.24957961723889,23.279591236061577,19.93172790811549
17.70476252781565,19.559033878973555,20.12802683747058,31.809345124033975,39.32510973575199,23.28997466054317,19.940145072055408
17.713650400443576,19.5620990587451,20.26319522497983,31.691265660471725,39.41231746590384,23.31421529328826,19.951516927515364
17.72916530835811,19.573754091034502,20.398406137602723,31.58481670734241,39.51115093599828,23.354247186360862,19.965969505992394
17.75119123303427,19.59395785012212,20.532841563401703,31.490287339109027,39.62147706809538,23.41203348300255,19.983574958096227
17.779588982606093,19.62285352873846,20.665686367492327,31.40791116678405,39.743085068609936,23.489551827256456,20.004344203757153
17.814204076257113,19.66074126119607,20.79614584846745,31.337873377601472,39.87569464607533,23.588825843635064,20.028222685604845
17.85486357938274,19.708047162559666,20.923460310902733,31.280321128986923,40.01899386664448,23.71202541571102,20.055087451730866
17.901369687238176,19.76532908085042,21.046910845992326,31.23539695157055,40.17270014143828,23.861580810131315,20.0847455914513
17.953500817858412,19.83332379343247,21.165816740018915,31.20329464008712,40.33659997866547,24.040274208303508,20.116937813126516
18.011020062233815,19.91303869521621,21.279527848621743,31.18432279475793,40.51055328797791,24.25131641734013,20.151350703096806
18.073680305243183,20.005917691659153,21.387416383592107,31.17895787117984,40.694505271348746,24.498355851472926,20.187633618497728
18.14121897659532,20.11404999198738,21.488871218789512,31.187862855111597,40.88852827503797,24.785382136705874,20.225410179197358
18.21334838457729,20.240329850320677,21.583294504055612,31.211880950799564,41.09284752301103,25.1166241835543,20.26428031701251
18.28975348416043,20.38854702630208,21.670099700145194,31.252044603685864,41.30781622988458,25.49653008387495,20.303820174831273
18.370100935452573,20.563416252417504,21.748714888660633,31.30959362102977,41.53388189880946,25.929755052491064,20.34359004201883
18.454050205395877,20.770499905877575,21.81859873287916,31.385962190632466,41.77159299616619,26.421073924383464,20.38315185324365
18.541256141065613,21.016044383322374,21.879266875357825,31.48274546383023,42.02162314611952,26.97530865781798,20.422086748273628
18.631362795683167,21.306843348859573,21.930312534867422,31.60168430775478,42.28476298789685,27.59742727497455,20.46000234625511
18.723994043577015,21.650154337022947,21.971410297337968,31.74465772570103,42.56189590048421,28.292774499004633,20.49652972450483
18.81874448889548,22.053578854045817,22.002310657379027,31.913651909124113,42.8540190394104,29.067213046658473,20.531320568089782
18.91517231653364,22.524885398537236,22.02283746621284,32.11073599248659,43.16230470456983,29.927087179901825,20.56405451859322
19.012797299901703,23.071873778276718,22.032889896837045,32.33811888591891,43.48813139488923,30.879126513964085,20.594452531151827
19.111108529494256,23.70233657466678,22.032443386938215,32.59829842527016,43.83308059473621,31.930373729422946,20.62228119140086
19.209581072691773,24.42405902413832,22.0215454595657,32.894199859738386,44.19896948704218,33.088114617464825,20.647342907541738
19.307691673780848,25.24477188103886,22.000307094969653,33.22918745442845,44.58791473034054,34.35978421534472,20.66946203316854
19.404923799430428,26.172018763586635,21.9688942151349,33.606966660589904,45.00234134781201,35.752823001900644,20.68847710924751
19.500762967628273,27.21297322898582,21.927522060794466,34.03149575050091,45.44493238584979,37.27447028154359,20.70423972227511
19.59469183302554,28.37429446958926,21.87644980881165,34.50695864722556,45.91862328524408,38.93155180471483,20.716613092591636
19.6861949342403,29.66206224710443,21.815972182771425,35.03776807195949,46.42669288906936,40.73032801892061,20.725465321430566
19.77477423920396,31.081746944661656,21.74640844658166,35.62858447932768,46.97285801245632,42.67639626704896,20.73066124738399
19.859964292889448,32.63818884648038,21.668092270248376,36.28432574577581,47.56124346621478,44.7746105934362,20.73206185450887
19.94133687376885,34.33559936717148,21.581368828217126,37.01010198817614,48.19623082823204,47.02901921376918,20.729533114938498
20.018499015514468,36.17755959183607,21.486602161654442,37.81107453826073,48.882311041674875,49.44282989773956,20.722954659518113
20.091094563892593,38.16697863967148,21.384184391593795,38.692341167477146,49.62400726254019,52.018371543057164,20.712219483306516
20.158811410266242,40.306011566705955,21.274535947938013,39.658914010989044,50.42580606860401,54.757009425150166,20.697228229032564
20.221386427847182,42.59596788247264,21.158098554597856,40.71572339408294,51.2920521383896,57.659022359968134,20.67788753992619
20.278601502997134,45.03725935291804,21.03533118982632,41.867569440380656,52.22685878896485,60.723493902093225,20.654114470740467
20.330275177720566,47.629406839160616,20.906711896505822,43.119046955440275,53.23407653492201,63.94827275210926,20.62583953280292
20.37626017180689,50.37106535805277,20.772737934978643,44.4744780891525,54.31727930905129,67.33002878342685,20.59300328324718
20.416448562433196,53.26001303664573,20.633918993104196,45.937829854497515,55.4797038554703,70.86436305763681,20.555552575490783
20.450774422494767,56.29309457652536,20.490767393178842,47.51261725995135,56.724132149157455,74.54588078017926,20.513448915687015
20.479206448987522,59.46615404976734,20.343793176531452,49.20185098213841,58.052766584827964,78.36820442555296,20.466693572433197
20.50173644917481,62.77400104987642,20.193508653869248,51.00807165525262,59.46714924044771,82.32399915922919,20.415355846407927
20.51837464941284,66.21042909362515,20.040437326737827,52.93342502906693,60.968129860391116,86.40506244116753,20.359584519318503
20.529154835331646,69.7682567927712,19.885116436861832,54.97968883644816,62.55585007501521,90.60246560889301,20.29959945842124
20.534140766894648,73.43935109054847,19.728093285150408,57.148222377967336,64.22973808224762,94.90670719031498,20.235677108764403
20.533424418762092,77.21464043123203,19.56992732597645,59.43990257629949,65.98855142187048,99.30783419561108,20.168139714021102
20.52711809260785,81.08414885983989,19.411200011112793,61.855146360285865,67.83046531519237,103.79550441585799,20.09734554698467
20.515350039555816,85.03704809779053,19.25251841361122,64.39402391304472,69.75313810965847,108.35898187172782,20.023675350684414
20.498267337846862,89.06170833638319,19.094506076189514,67.05634441574692,71.75370929397747,112.98708609302574,19.94751792341214
20.476038931487135,93.14576073573511,18.937793974613413,69.84166358567042,73.82875426927137,117.66815633349272,19.86926295615155
20.448850733041684,97.27620688866232,18.783026858229977,72.74930135134515,75.97424732921856,122.39008958456078,19.789304637760893
20.416895940657618,101.43957358300075,18.630881841836118,75.7784312727018,78.18556582503135,127.14044263656162,19.708048276133624
20.380372574712215,105.62205762545516,18.48207872490052,78.92822251153642,80.45752583963187,131.9065219918104,19.625908404511364
20.33949411251401,109.80962029952717,18.337369216032155,82.19798942936234,82.78441937650786,136.67541651300854,19.543297510238073
20.29450342240833,113.98805979141387,18.19751623945131,85.58725338058487,85.16005439544617,141.43401686002082,19.4606160968544
20.245675158226845,118.14310561119319,18.06328428381812,89.09567620585787,87.577816034661,146.16907522148972,19.378252806617862
20.19330526631405,122.26052551514387,17.93544633884463,92.7230228865949,90.0307413611825,150.86729287119405,19.296590445153793
20.137699335334773,126.3262099149394,17.81479038819608,96.46926470882984,92.51160840052718,155.5154013725287,19.216006958128013
20.079168717212944,130.32623218275378,17.70210871877217,100.33464817418844,95.01305703938262,160.1002367790801,19.13686860504841
20.018031688403234,134.24691180515293,17.598173490587364,104.3195465811972,97.52770849605413,164.608813521928,19.05952473469287
19.954610969440157,138.07489061848355,17.503711668909794,108.42417702299892,100.04822603724746,169.02838861781137,18.984315331938717
19.889225052639702,141.79720159498092,17.419388020574818,112.64837068805092,102.56732300067797,173.3465243576278,18.911588301312424
19.82218071684672,145.4013205156122,17.34579719572076,116.99146924046421,105.0777581213181,177.55118193563453,18.841708657348015
19.75377490272148,148.8752186001621,17.283457996620964,121.45228596884475,107.57232437811226,181.6308630363204,18.775049944732906
19.684303243879043,152.2074207370966,17.23280322716535,126.02904064726525,110.0438303436017,185.5747671564895,18.711978186688377
19.614063172644485,155.38705762740443,17.194167676452405,130.71927978011828,112.48511396804281,189.37290175223288,18.652842060985577
19.543346573457566,158.40391479169784,17.167781649392737,135.51987997145565,114.88913715805808,193.01613490952207,18.59796996021576
19.47243080083494,161.24848042265106,17.153772485692354,140.4271309553648,117.24913232220888,196.4962315332757,18.54766514877903
19.401576379108082,163.9119752392672,17.152169962733062,145.43677418539622,119.55870127429716,199.8058714097049,18.502194458258657
19.3310281734706,166.3863550620653,17.162911349016284,150.54395862537078,121.81183305166185,202.93862574391244,18.461775458771687
19.261012612338494,168.66430119642277,17.185844553278127,155.74320690392358,124.00290898765334,205.88891672557432,18.426570645272832
19.191729447705846,170.73922359149023,17.220728676885845,161.02844499852856,126.12673463925118,208.65200321330465,18.39669115757742
19.123343559166468,172.60529688601045,17.2672326730962,166.39303103732036,128.1785595683216,211.22399527056285,18.372202170748682
19.055985905218616,174.2575241097758,17.324934080695286,171.82970915714418,130.15405130452683,213.6018598282719,18.35312147519241
18.989766960155002,175.69178568010798,17.393319171313856,177.33050521440413,132.04925099169216,215.7834004791185,18.33941433269157
18.92479185746925,176.90483768001297,17.471785581965644,182.88665491465648,133.86055112045207,217.76722478797313,18.330995728174344
18.861164607157214,177.89427706488064,17.559649616928695,188.48865214224378,135.58468056168158,219.5526888862925,18.327743407884153
18.79898629390214,178.65852114471673,17.65616194247486,194.12641127608347,137.21866183777755,221.13980968364226,18.329510999801077
18.73836503970238,179.19681859388632,17.760531569220596,199.78943985136502,138.75975559745447,222.5291852369098,18.336131248884442
18.679442273245385,179.5092713423,17.871950688975847,205.46695098901125,140.2054313170379,223.7219637164362,18.34741291361792
18.622415814751783,179.59686012070782,17.989624408577473,211.14794343631496,141.55336287086615,224.71983517397342,18.363141103847447
18.56754160019003,179.46147615375244,18.112826826770064,216.82129356567194,142.80141547247527,225.52498782487706,18.383084106740572
18.5151194895506,179.10592511896664,18.240976862931728,222.47587112321887,143.9476215828119,226.14001781432,18.406999318852353
18.465478324624222,178.53388795382682,18.37368632797429,228.1006664159695,144.99019709527414,226.5678321634036,18.434630240975103
18.418964519979497,177.74989668050208,18.510762481415963,233.68488281772508,145.9276336326195,226.8115746610011,18.465697205964513
18.375928833803666,176.7593580817615,18.652204719888186,239.21796655237563,146.75881133812064,226.87457022472165,18.49989239885377
18.336709163126947,175.56855919230514,18.798218510421087,244.68959514555212,147.48303998010965,226.76027689352503,18.536885008156176
18.301614868895058,174.18459504608495,18.94922936355597,250.08962624966475,148.10001704484063,226.47225370288038,18.57633079952285
18.270919685484664,172.61525353935616,19.105911200317763,255.40800075527014,148.60976399476507,226.01415646444318,18.617876762178398
18.244864629579826,170.86892407509114,19.269252971587104,260.63463486954544,149.01257861414012,225.38974991053843,18.661158967733005
18.22366362451975,168.954545725897,19.440608729944667,265.75932722114777,149.30899312991681,224.60291618374796,18.70580104605715
18.207502594142472,166.881558888964,19.621665688137472,270.7716815318213,149.49972353542418,223.65765705241645,18.75142499559546
18.19653177459837,164.65983410966396,19.81435156554356,275.66106609509825,149.58561670360294,222.55809309513015,18.797675534060303
18.190860509754824,162.29959143491428,20.020738636469606,280.41664560339456,149.56761050150584,221.3084569987868,18.844240430290718
18.190563812615718,159.81132360213326,20.24298336869181,285.0274977036662,149.4467153338141,219.91308483574346,18.890852672922307
18.19569816867591,157.20572051915917,20.48332820066745,289.4827926866434,149.2240145534842,218.37642136868283,18.937281934982522
18.206312292617085,154.49359773907452,20.744154319100307,293.77198852165577,148.90067264137488,216.70304760833147,18.983328389604434
18.22244450672511,151.68582964091053,21.028019193890675,297.8849827950417,148.47795683078462,214.89771469681864,19.028820290296583
18.24411385685375,148.79328408507513,21.337628830743576,301.81217216296056,147.95730793138395,212.96536418925098,19.07360963598022
18.271316174539287,145.8267700191285,21.675774810929678,305.54443014442467,147.34046012738895,210.91113641228893,19.117563354864235
18.30402683920895,142.79701235788212,22.045288017329625,309.0730858466442,146.62954438209536,208.74038186058834,19.160552605287165
18.342201668899786,139.71465588106122,22.449015142872245,312.38996126672197,145.82715082572355,206.45867449441764,19.202444524968886
18.38576965574162,136.59028969704792,22.889817558897487,315.4874574667249,144.93638251662054,204.07181146621897,19.24309830430711
18.43462218454419,133.4344599330497,23.37060410676195,318.35865539598126,143.9608801156173,201.5858155724942,19.282363116155228
18.488606250869722,130.25763687631883,23.894369916974306,320.9973790759972,142.90477296647438,199.0069677354186,19.320075181228585
18.547522471166637,127.07016034151154,24.464200199713055,323.39820072110797,141.77257738554144,196.3418394996754,19.35605542261898
18.611125201390006,123.88221546108568,25.083252954101095,325.55646295210204,140.5690992964826,193.59728340466816,19.39011281283175
18.679128763524904,120.7038333275929,25.754754025430866,327.46838691374893,139.2993818911984,190.78039523914788,19.422057606711302
18.75122847632806,117.5448665589505,26.481983521264915,329.1312185551761,137.9686948773576,187.8984835550008,19.451719297452154
18.8271316569138,114.41493078849354,27.26820441766271,330.54333140052444,136.58251722591504,184.95905029290415,19.47895604455691
18.906577787588663,111.32334534564319,28.116532524358654,331.7042544355082,135.14648932593798,181.9697608386576,19.503650181764613
18.989335779990174,108.27908168220786,29.029791920482804,332.61463813512205,133.66639086326944,178.93841255502602,19.525697706020033
19.07518704071159,105.2907006021646,30.010397840427622,333.27622138959146,132.1481993967475,175.87293154949435,19.545000074301647
19.163909972061113,102.36627665605687,31.060294013222332,333.6918419823789,130.59817104254992,172.78136893260083,19.561458438873665
19.255275408538612,99.51333197202919,32.18094272183118,333.86545704242076,129.0228478542507,169.67184415128852,19.574967683309705
19.34905066965948,96.73880249041909,33.37332816308819,333.80215217550665,127.42899370240345,166.5524442539863,19.58541190701017
19.445000703059705,94.04903816746877,34.63793611729271,333.5081278580685,125.82350843758806,163.4311220009387,19.592666606748093
19.542880618563753,91.44982267312066,35.9747103963816,332.9906038069898,124.21333261229705,160.31561782131962,19.596610361290974
19.642427848899093,88.94640691195724,37.38300995359566,332.257631572586,122.60534682361335,157.2134088953584,19.597140138814797
19.743364327755604,86.54354362133331,38.86160217453358,331.3178835241074,121.0062896338526,154.13167272107356,19.594178984719488
19.845406154236358,84.24549650116697,40.40874019991202,330.1804535070317,119.42271567469491,151.07725057701487,19.587673134507888
19.948268111954036,82.05603529867443,42.02232750034356,328.85466560207533,117.86098273710284,148.05661486276853,19.577589190584995
20.051657695918557,79.97845419061917,43.700089923984024,327.3499169490983,116.32722071572503,145.07586018918252,19.563923293137986
20.155268691509132,78.0156100822171,45.439699949063055,325.67559702292544,114.82726015201082,142.14072197995733,19.546719340381145
20.25878982555979,76.16995575305744,47.23886737233769,323.8410753698516,113.36656894291482,139.25659469585148,19.5260801355369
20.36193004468027,74.44356587046266,49.09537187709475,321.8557078268196,111.95024950049458,136.428528004152,19.502162883662482
20.464441330290448,72.8381651962422,51.00699924151541,319.72885906807744,110.58306919735169,133.66121623472063,19.475167888962787
20.566122001483055,71.35515381785147,52.97142447765711,317.46997214080227,109.26946057032568,130.95899581586957,19.445331327001355
20.6668046705382,69.99560465443183,54.98611648883103,315.0886519572444,108.01348060335557,128.32583304758109,19.412920206459066
20.766342554312708,68.76022506457129,57.048314821928805,312.5946976694555,106.81876164011263,125.76528896530952,19.378221991890484
20.864600360242278,67.64931110549205,59.15509293892351,309.9980578190633,105.68847137181191,123.28047666781119,19.341529888872557
20.961447169781287,66.66272294958807,61.303452377255184,307.3087123471013,104.62527289218446,120.87403481702111,19.3031337705418
21.056748240816386,65.7998986984053,63.49037982222582,304.5365184543008,103.63128118710783,118.54813979401153,19.26332330742485
21.150358659475017,65.05991279685206,65.7128960046211,301.6910801465169,102.70804462780022,116.30455792212076,19.22239638555842
21.24212607863743,64.44154116381296,67.96814907091849,298.78167417615396,101.85657843062535,114.14469930025874,19.18066016257528
21.331903544760983,63.94327501501454,70.25352491053977,295.8172432525158,101.07742064954716,112.06963962562112,19.13842214944721
21.419560853118547,63.5632757998135,72.56676941168234,292.80645024965725,100.37065646010463,110.0801180566822,19.09597979730936
21.504983658745658,63.2993161394619,74.90613400813808,289.75774193205257,99.73590615317242,108.1765336996692,19.053618118700545
21.588063954879065,63.148753612778,77.27044748778349,286.67938076147954,99.17231236131906,106.35895824218801,19.01161580379331
21.668691799559358,63.10854895066671,79.65905736654688,283.5794567176462,98.67854066739375,104.62717332724313,18.97024908481624
21.746751467793782,63.175307089571035,82.07172716079887,280.465882181288,98.2527794780247,102.98071538380717,18.929785021827062
