HandOpen,HandClose,Wrist Flexion,Wrist Extension,Supination,Pronation,Rest
2.706619171457774e-06,0.0,1.353309585728887e-07,1.2179786271559986e-06,5.413238342915548e-07,2.706619171457774e-07,2.706619171457774e-07
2.8410519654754934e-05,2.706619171457774e-07,2.002449104601168e-06,1.2473472639922077e-05,5.573839164092676e-06,3.3282434163378926e-06,2.786919582046338e-06
0.00014911305558237863,2.9222505406192265e-06,1.417831705681216e-05,6.363878867142861e-05,2.865371090022804e-05,1.9968360093493136e-05,1.4394520929400463e-05
0.0005302365664912464,1.6126308116855853e-05,6.538395752208845e-05,0.0002195811124954511,9.997571673551103e-05,7.957512834099768e-05,5.051542456505098e-05
0.0014577602049727339,6.271880779125414e-05,0.00022457020090136133,0.0005862255201753235,0.00027096166151063073,0.00024140915050835897,0.0001374560508376378
0.0033415898246186276,0.00019761823192790217,0.0006213673130765456,0.001309351051369705,0.0006162038131353771,0.0006036112559163664,0.00031297883899995376
0.006701751312638985,0.0005396605845391876,0.0014596199418709457,0.0025729757218258226,0.0012342678971293643,0.0013090481087043374,0.0006265143011855522
0.012147165582124435,0.0013161677472774273,0.003021152065120184,0.004602390803253064,0.002248737256749321,0.0025473351245693778,0.0011402783738353984
0.020353091657871532,0.002906544868486031,0.005660984420439649,0.007673447821937693,0.0038127840660498505,0.004551747191252368,0.0019310908479390023
0.032039679035324946,0.005866783780735831,0.009797188625658567,0.012127927069763225,0.006126238837195465,0.007592088934732072,0.0030914947890225883
0.047951998788615696,0.010926349053254021,0.015898758367872603,0.01839363449711078,0.00947764378564247,0.011967049747007514,0.004728909799191417
0.06884157824832361,0.018963708520645394,0.024473084953779152,0.02700611566007751,0.01431244772727866,0.017997312526400636,0.00696263297373927
0.09544999348845112,0.030972520922217008,0.036052998272709844,0.038626546924092016,0.02130539946244619,0.02601773781464784,0.009919795395382815
0.12849549422347176,0.04802645422658929,0.05118363296845259,0.054048566133645295,0.031405938919887265,0.036368361170605656,0.013732283821969758
0.1686663942061117,0.07124595301020856,0.07041083742395433,0.07418899966820311,0.04584116049654426,0.04938605097220038,0.018536794384210034
0.21662889541437322,0.10176830845121411,0.09427548898734657,0.10006435075726205,0.06608210678738949,0.06539846654137169,0.024481217858168005
0.27305316788364126,0.14072061898531632,0.12331947566166784,0.13275945125427,0.09378866084844055,0.08472134930634574,0.03174214533930781
0.33865029287961423,0.1891942004501613,0.15810390118625772,0.17339367434040587,0.13074742430049155,0.1076593912609032,0.040555419879178094
0.4142060825779837,0.2482208969862423,0.19923160468794407,0.22308878621877412,0.17881085712447659,0.13451013779288667,0.051253994345649145
0.5005995657223997,0.3187542262449227,0.24736324022492803,0.28294163458810706,0.23984054878280067,0.16556961054031824,0.06430187170540982
0.5987999464255418,0.40165850092302524,0.30321945402224726,0.3540021965937439,0.31565681406013235,0.20113651012460448,0.08031513113080545
0.709843867445055,0.49770741406289537,0.36756791782746157,0.4372555822914364,0.4079967519236109,0.24151218641133115,0.10007007443213024
0.8348009408186075,0.6075901579927082,0.4412005814821727,0.5336074753316988,0.5184809197384352,0.2869968644489087,0.12450455659478675
0.9747357811554525,0.7319191664182951,0.5249085639705022,0.6438749807866276,0.6485897150492125,0.33788367894721183,0.15471296108777635
1.130671742963754,0.8712331329041751,0.6194589127468916,0.7687858917293209,0.7996563017114123,0.3944512895747676,0.19192840688988325
1.3035591285848354,1.0259927831937619,0.7255739689309539,0.9089858416088282,0.9728852971704239,0.4569568243357526,0.23749071716343953
1.4942487281814318,1.1965708654237504,0.8439132410002991,1.0650469404033875,1.1693962737709096,0.525631120827567,0.29280641084734804
1.7034709256339937,1.3832399731408005,0.9750583614056553,1.237469930143128,1.3902742948906253,0.6006758074235592,0.35930682374905143
1.9318222479001506,1.586162290669219,1.1195025062061985,1.4266771326790977,1.6366031859890406,0.6822603331318005,0.43840793215691315
2.1797614522505384,1.8053830906625494,1.277647774371983,1.633000096904326,1.9094675353376824,0.7705183557917958,0.531474673105368
2.4476131790551703,2.0408264441519237,1.44981473098324,1.8566672773082675,2.2099263636173623,0.8655446480524404,0.6397910537995367
2.7355733652560845,2.2922911802780783,1.6362614977825336,2.0977940823059744,2.5389712831543254,0.9673948162706286,0.7645358181878166
3.0437120553925276,2.5594475298267096,1.8372009968373952,2.3563751436968703,2.897483051282583,1.0760897914738543,0.9067638177686144
3.3719729414086435,2.8418371048137967,2.0528062536915335,2.632278524470623,3.2861988931945185,1.191623623693989,1.0673947528566476
3.720170368962727,3.138879000622782,2.28320331436619,2.9252424233444585,3.7056948558584373,1.313969930512201,1.2472110695686807
4.0879851440371215,3.4498813405695548,2.5284582782085496,3.2348747961255473,4.156373568106377,1.4430840362243047,1.4468617098640433
4.4749632381520374,3.7740532712076544,2.7885652292418617,3.5606552430583327,4.638447175764395,1.5789014372070156,1.6668625542304056
4.880523668897654,4.110513589301263,3.0634403303905526,3.901937917385369,5.15192142816971,1.721334263990716,1.9075891244815766
5.303975230505907,4.458298894825991,3.3529260040483577,4.257954829748068,5.6965987906539715,1.8702676858657334,2.1692682340212563
5.744531079456992,4.816378778176672,3.6568019911397505,4.627821739940882,6.272107250606097,2.0255592054799023,2.451978001785269
6.201313042762197,5.183678884767824,3.974793905765523,5.010552165902782,6.87793391946094,2.187041574293843,2.755656731011077
6.673351108416509,5.559100334694153,4.306578704764525,5.405081158073801,7.513436922611309,2.354525391682408,3.080111559508475
7.159588600205394,5.941526006334962,4.651793552423912,5.810289293415963,8.177838693182224,2.5277980436237852,3.4250204091549525
7.658894735782371,6.329818622549198,5.010044637423953,6.225015147750745,8.870223592423851,2.706620380974241,3.7899326344296096
8.170075796113842,6.722821317769139,5.380907847398734,6.648057960461234,9.589545906593962,2.8907242204264687,4.174280518907145
8.69187898299098,7.1193652956117095,5.763921611138423,7.0781853301289335,10.334634155509434,3.0798129026650245,4.5774041565410535
9.222994954342573,7.5182810302398755,6.158576373413767,7.5141574103465905,11.104183552718842,3.273564781892706,4.998574334722501
9.762067738857871,7.918406522990782,6.564304015234244,7.954759587747763,11.896747917515974,3.4716361051152127,5.436999663029952
10.307710462649073,8.318592777786236,6.980470480078044,8.398823376033315,12.710752059916814,3.6736609417234134,5.89182527357844
10.858516556770358,8.717717499880312,7.406372867026365,8.845231087274714,13.544528421717278,3.879250639853923,6.3621392429919625
11.413061470208799,9.114715291408318,7.8412384271029225,9.292921651661906,14.396350812406814,4.087996600120626,6.846988673065586
11.969903721826187,9.508611543082186,8.284223611987413,9.74090834793772,15.264440795043729,4.299477367788564,7.345391392464767
12.527599413860584,9.898537288791482,8.734415593474276,10.188295605693288,16.146958394014447,4.513266985654085,7.8563347353106385
13.084730374632807,10.283722495974141,9.190839673042223,10.6342780373809,17.042004675992857,4.72894005092215,8.378771172997746
13.639927383603023,10.663486559276935,9.652471606224378,11.078123298799083,17.947641013870467,4.9460723835648635,8.911623577525473
14.191874760203804,11.03723812147965,10.11824853283263,11.519154602154819,18.861903872167193,5.164239877055396,9.453796967151954
14.739304264720351,11.404476349299502,10.58707378664278,11.956744329351647,19.782800755882853,5.383017799204505,10.004182532603485
15.280992845597794,11.764782201779406,11.057819008395802,12.390314628538457,20.708297202871616,5.6019806272476425,10.561648717677786
15.815766416321452,12.11780230003627,11.52933168268987,12.819332844485542,21.636312264810485,5.820701529446283,11.12502914023624
16.342501990777706,12.463238909231105,12.000449883673722,13.243298462264246,22.564731018155772,6.038751723575071,11.693119878124694
16.860124109022646,12.80085343706551,12.47001511966651,13.661731472758648,23.491426410242337,6.255701527665964,12.264687785336013
17.36760005421539,13.130473811532134,12.93687518741613,14.074173750638506,24.414272196506072,6.471124688210368,12.838479487261557
17.86394094283226,13.451991432153507,13.399879951707716,14.480201161436169,25.33114400459307,6.684604508635232,13.413223535588566
18.34820853905019,13.76534730833668,13.857877029286069,14.879430115589987,26.239928110632942,6.895737555825716,13.98763107839554
18.819518762282293,14.07051715817887,14.309710914198613,15.271510382617837,27.138547670653608,7.104133027565254,14.560404180095478
19.277036197081127,14.36750049941087,14.75422647591268,15.656115875421893,28.02498789258751,7.309410084953746,15.130251925884043
19.719964467524488,14.656311010600803,15.190275748687156,16.03294584817445,28.897302459937958,7.511196016965189,15.695903976999949
20.14754085883346,14.936966064192358,15.616725303792697,16.40173144870756,29.75360781014647,7.709126210336995,16.256112499183946
20.559038165384038,15.209480106317718,16.032463600027086,16.76223473053485,30.592079136205882,7.902845062207059,16.809645415648124
20.953768212882725,15.473869019192145,16.436409705962806,17.114238671025568,31.410950468390705,8.09200643679761,17.355281407170345
21.331080323486965,15.730164182850647,16.82752192454355,17.457540581002498,32.20851405297371,8.276274156443476,17.891812567231668
21.69035636084711,15.978423628979002,17.204803758949513,17.791958551399816,32.983119873964334,8.455325226342268,18.418050865835212
22.031010253367217,16.218729903148212,17.567311395492375,18.11734313558928,33.73318236562262,8.628856994862616,18.932831282723424
22.35249687036188,16.45117804316821,17.914172433979374,18.433578995734937,34.45719302534145,8.796594954786181,19.435011254568604
22.654325251385533,16.675864630745277,18.24461572880681,18.740574109620216,35.1537270595682,8.958296581083538,19.923472980100044
22.93606538207017,16.892884549389258,18.557996021312782,19.038246045820113,35.82143826673921,9.11375062703503,20.397132650413695
23.19734454203523,17.10233260505678,18.85379970264289,19.326511374393245,36.459048470921736,9.262775548729616,20.854952072919303
23.437839781195457,17.304302321356936,19.131634964732257,19.60527648781402,37.065342721352025,9.405221151669808,21.295945009087184
23.657276552263575,17.49888204903659,19.391217541690438,19.874428003712996,37.63917930842115,9.540973490425513,21.719176918541237
23.8554379160529,17.68616073674933,19.632360732569115,20.133824660137236,38.17951114330875,9.669958108685416,22.123764062831526
24.032177027941003,17.866250279005126,19.8549721254324,20.383292787221446,38.68540218809951,9.792138177150004,22.508878326456493
24.187421195251737,18.03930986411702,20.059051161640387,20.62262605025875,39.15602894020012,9.907510632374196,22.873756877427457
24.321165944399926,18.205552512326246,20.244680305335436,20.85158887313907,39.59067423636079,10.016105729665664,23.2177084071618
24.433467887802394,18.36523500421624,20.412012968475274,21.06992041954597,39.98872607793267,10.11799003355565,23.540111833230437
24.52444183074156,18.518650487878837,20.561269357023104,21.277336029357492,40.349683086640226,10.213266572472241,23.840415203300587
24.594257819825586,18.666133913141085,20.692742981953963,21.473527955026935,40.673156134775546,10.302068306175517,24.118144628204252
24.643133274172477,18.80806749195128,20.806806201301285,21.658172194292646,40.95886147000534,10.384548927589153,24.372919836165785
24.67132377349452,18.94487099402967,20.9039034131955,21.830945088398487,41.2066175073682,10.460877315507338,24.60446219354033
24.679121000924066,19.076979923151253,20.984534074382374,21.99154246986814,41.41635758976836,10.531237618953963,24.812591073265345
24.666860179519887,19.204824587338898,21.04923780437234,22.13969053144386,41.58814990540431,10.595831208572813,24.997222608278108
24.634928307836105,19.328820418130963,21.098591555996308,22.275146483658407,41.72220516943025,10.654875085602624,25.158383591260478
24.583763908234324,19.44937089400759,21.13321527570193,22.397694644480683,41.81887174479425,10.708595512169413,25.296231556937137
24.513849523105144,19.56687189771662,21.153772551946545,22.50714332878561,41.87863589208234,10.75722068388987,25.4110603296172
24.42570527691588,19.681707549922958,21.160962224102853,22.603323928454092,41.90213119794442,10.800978023928177,25.503286291071625
24.319888517842436,19.794244575106372,21.15551150498582,22.686090165827984,41.89014027342406,10.840097457491822,25.573429855097807
24.196995668998067,19.904837486470008,21.13817663524411,22.755316818630078,41.8435777625835,10.874815167400286,25.622103260025224
24.057659568446013,20.013840068815917,21.109742578754005,22.810905203014716,41.763465422163975,10.905373059264177,25.65000078394334
23.90254393375484,20.121607027830564,21.07101362844561,22.85281029793168,41.65092229339119,10.932015127997396,25.65788437788171
23.73234392077255,20.228482291941948,21.022798611776107,22.881091080187304,41.50718320503597,10.954983246665265,25.646566945993758
23.54779511068331,20.334784617218173,20.96589760908119,22.89595577252425,41.333627856533,10.974512961211875,25.616903134672537
23.34968089077779,20.440796139194177,20.901092159172592,22.897772588186946,41.13178763004021,10.990828824623177,25.569796361423087
23.138829111603478,20.54675180659478,20.829139834568544,22.88704896396698,40.903326043088356,11.004139174484957,25.506216181361346
22.91610227948268,20.65283098705526,20.750773969034487,22.86439990399083,40.650020177020146,11.014631645397158,25.427204860228365
22.68239300541129,20.759154705917524,20.66670488819142,22.830517211395367,40.373758210257215,11.022471409868075,25.33386177933743
22.43862809228843,20.865786779862393,20.577620313913243,22.786141924549927,40.07653628021286,11.027803457171725,25.22731737717012
22.185771000147,20.97273546300297,20.484190770646748,22.73204100641191,39.76043625745322,11.030757467741227,25.10871478557439
21.92481352933831,21.07995500210344,20.387081675418568,22.66898990206173,39.42759209970527,11.031450670862295,24.97920519559128
21.656761900368853,21.187345392959116,20.28696225153995,22.597760705924543,39.08016616944498,11.02998590326907,24.83994728734349
21.382628879686827,21.29474870897893,20.184508815781804,22.519112255663412,38.720340897605716,11.026447424554448,24.69209910881673
21.103434588579248,21.401947508291123,20.080411092833636,22.433778447027876,38.3503088023235,11.020898515715395,24.53680376197647
20.820206619757535,21.50867505727369,19.975379623319885,22.342455716369287,37.972248661056,11.013381816865627,24.375176628595174
20.533971146022658,21.614636567313347,19.870143455257253,22.245794824172577,37.588295613996046,11.003920699119028,24.208294748097472
20.245739234567147,21.7195259516115,19.765435971244717,22.144400790428765,37.20051412511915,10.99252025994988,24.037184625540295
19.95650056836819,21.823027146953645,19.661974230937414,22.03883815864931,36.8108729447571,10.979168150749228,23.862809265572917
19.667230208458815,21.92480582067761,19.56043811862321,21.929634041071107,36.421220828320095,10.963836221762657,23.68606052563802
19.378898269543967,22.024501539289645,19.461455133034157,21.817275125090276,36.03326810226587,10.946483501691196,23.507763434288325
19.092468226207444,22.12172375091824,19.365592521783174,21.702202675299873,35.64858166962473,10.927059959782254,23.32869023483456
18.808884311809965,22.216050329427322,19.273352614263356,21.584814550574617,35.268592515426306,10.905510311205092,23.149570227152388
18.52906077882141,22.307026803454114,19.185166972266668,21.46547984406333,34.89460605388297,10.881777799058842,22.97108641030311
18.253879629237215,22.39416608260447,19.10139095709707,21.344558297865085,34.52781143766023,10.855808571547875,22.793866309167417
17.98418987752763,22.476951498050223,19.022305432629903,21.222411619511124,34.16929114182246,10.82755809054104,22.618478405168993
17.72080035838505,22.55484715391201,18.94812784644319,21.099411080908983,33.82002579156397,10.79699921037164,22.445435545004504
17.464468619464746,22.62731451228323,18.87902364756258,20.975956806081513,33.480893325621004,10.764127667458345,22.27519806499123
17.21589414684111,22.693826758671374,18.815109563711896,20.852504979300257,33.15267525949135,10.728961815527168,22.10817124995772
16.975719065617916,22.753873938831287,18.7564564472194,20.729580775209495,32.83607410631987,10.69153913448663,21.944699068679327
16.744530490389483,22.806961293442473,18.703107459803906,20.60776725801222,32.53172434194822,10.65191474992546,21.785058824725688
16.522857846972787,22.85260912068621,18.655110498650288,20.487681141472194,32.24018752088269,10.61016390026041,21.629458334794247
16.311167390612283,22.890358635454948,18.612542290936464,20.369948485178536,31.96195096947848,10.566384849581267,21.47803447426969
16.109862156302896,22.919779235918675,18.575508025604336,20.255185340073204,31.6974450352734,10.52069842889081,21.33085266447727
15.919291258774493,22.940470962172245,18.544124913648183,20.14398276455965,31.447060853203485,10.473246158661633,21.18790910632331
15.73976235841144,22.952065007979524,18.5185075243041,20.036894188675213,31.211149685773616,10.424192632963301,21.049138942993768
15.571546628875069,22.95423128500077,18.49876321936585,19.934426426184125,30.990014970487096,10.373732523772826,20.914431346160097
15.414872934206723,22.9466941551395,18.484992524976892,19.837038182861747,30.783912933246807,10.322094691087653,20.78364570089029
15.269918070646701,22.929245164269712,18.477286621648705,19.745143790738354,30.593055066363103,10.269538260681934,20.656620716339944
15.136802675960269,22.901743567373995,18.475726183381653,19.65911331665158,30.41759884836095,10.216343797837817,20.533175866822614
15.015596350969446,22.864109662844584,18.48039067934426,19.57926567884198,30.257628671931844,10.16280466328939,20.41311198832643
14.906325512662628,22.816324774010916,18.491371029287716,19.505861769750396,30.11314353773493,10.109220135978793,20.296217833182766
14.80897511575689,22.758443633077643,18.508768503937695,19.43910506464912,29.984070468403253,10.055888728897225,20.18228247052157
14.72348470015327,22.69060670517504,18.532677392424016,19.379147294822726,29.870303880035873,10.003100282376554,20.07110493054386
14.649748178735143,22.613037936228267,18.56316420917058,19.32609021168599,29.771740683354952,9.951128011545396,19.962495195037523
14.587623764081455,22.526031228866167,18.60025692689177,19.279980385803796,29.68828459240555,9.900222967069714,19.856273921681417
14.536947829483909,22.42993843786613,18.64395060673218,19.240802124849704,29.61983414429052,9.850612202395087,19.752281825058482
14.497540383073051,22.325164163269687,18.694221601038613,19.208475410434843,29.566286467115837,9.802499608530733,19.650395531775434
14.469200232444864,22.212163002165077,18.751034029783966,19.182866834255094,29.52755801803546,9.756067166864202,19.550535402261918
14.451701997470371,22.09143323858957,18.81433646145443,19.16381465741751,29.50359372523038,9.711475452932131,19.452659570952406
14.444806486801106,21.96350659414081,18.884062719700974,19.15115157546362,29.4943513022411,9.668864347284249,19.356754114279344
14.448279100996087,21.828940037570256,18.960140792380944,19.144709102439105,29.49977990721493,9.628355947842064,19.262832654963095
14.461898478679053,21.688315330126684,19.042496420887502,19.144310398983777,29.51981338435596,9.590059238670644,19.170946617072403
14.485448755236142,21.542242677628984,19.131043352099752,19.149768428625464,29.55437242125598,9.554073002758805,19.08119216546391
14.518707787060302,21.391358410520965,19.22566871509471,19.160892028391395,29.60335757274397,9.520485088976892,18.993703024848898
14.561442184645035,21.236314260900112,19.32622242830324,19.177488591596184,29.666631589528812,9.489369941725982,18.908636999302203
14.613404487582361,21.077767783793423,19.43250864214832,19.199356364410765,29.744003255296025,9.460788015344548,18.8261705511831
14.674324713970794,20.91638400290497,19.54427526368125,19.22627180497914,29.83521510511205,9.434789319214442,18.746502324009732
14.743898855371457,20.75284533808653,19.661205017784308,19.257982104629804,29.93992865284681,9.411418787837933,18.669853713399334
14.821782981307795,20.587856153521606,19.78291545046268,19.294207374670762,30.05770713626503,9.390718713564812,18.596459672898526
14.907596682070492,20.42213533621942,19.9089711868604,19.334647336163325,30.18800275793597,9.372727789857619,18.526554937649582
15.000930060079972,20.256405148965435,20.03890414730877,19.378984016866376,30.330159332227662,9.357482142706168,18.46036175275237
15.10134636236599,20.091387900654095,20.172231825007575,19.426878600585216,30.48343815215218,9.345022565756588,18.39807918809653
15.208379834026097,19.927810241061163,20.30846475366463,19.477968198762305,30.647054601242143,9.335404105588001,18.339873007915905
15.321534224459342,19.76640273431932,20.447104234058408,19.531867800130268,30.82020021155816,9.328700197370205,18.285867556529382
15.440285016934112,19.607889053066955,20.587641927518547,19.588174825796695,31.00204789943722,9.324999545593373,18.236144481081933
15.564082270155561,19.45297688677331,20.72956899638235,19.646469402748867,31.191763864722393,9.324400771564683,18.190758464885665
15.692350031729386,19.30236244151111,20.872387206902623,19.70630928047119,31.388533139685205,9.327009783230245,18.149772670010147
15.824483421925626,19.156740513587255,21.015611427090125,19.767226872631742,31.591575251091744,9.332939939569956,18.113292551956892
15.95984703795963,19.01680265545642,21.158767500045446,19.828736389944908,31.800134198703784,9.342310957334458,18.081473317249788
16.097776689754994,18.883220754533983,21.30139599949457,19.890348713510544,32.0134546963408,9.355243547896663,18.05450472460406
16.237584152990774,18.75662968480174,21.443060179865483,19.951582866859148,32.230760789559,9.371850928194217,18.03259508034944
16.378562324059715,18.637618320203412,21.583348132357294,20.011971133909697,32.45124091415993,9.392231182965634,18.015963898903856
16.51998836054869,18.526723899136247,21.721866105643034,20.071068514384766,32.674038689699046,9.416463988032422,18.00483497311192
16.661126659083862,18.424422892264836,21.858227443265065,20.128470684923396,32.89825595381886,9.444610423997513,17.999421900443856
16.801236701005866,18.331120305182168,21.992044651718178,20.183827180843345,33.122982055262895,9.476710863938878,17.999910689895067
16.93958612048618,18.247143501170605,22.122933660358175,20.23683821591434,33.34734450254725,9.512779451271085,18.006451416809153
17.07546186746065,18.172742866420403,22.25052945674404,20.28723952017251,33.570545125652366,9.552799168757108,18.019163800950874
17.20817421241744,18.108094865920307,22.37449745587356,20.33478671654822,33.791857324304054,9.596721030294312,18.038146218875355
17.337057010039675,18.05330070120102,22.494529662891292,20.379249068323055,34.0106007691911,9.64446628026618,18.063475189708196
17.46147127219318,18.008380934100163,22.61033119086707,20.420415720389823,34.226124398068464,9.695928063593447,18.0951984657575
17.58081462604415,17.9732770122399,22.721606462711552,20.458105651315677,34.43781137344085,9.750971313499363,18.133335640512946
17.694531874126703,17.947869578905767,22.828049077196887,20.492169488588743,34.645093201424885,9.809434198964404,18.177888694166185
17.802120148614396,17.93200561095624,22.92933690847618,20.52248300162421,34.84745033891548,9.871135454247572,18.228848291167708
17.90312844713191,17.925514982444284,23.025132684059425,20.548941616212474,35.044396729352684,9.935885455020953,18.286185813805517
17.997159190877642,17.928212163717433,23.115088382868738,20.571460854927526,35.2354690863348,10.003493264211667,18.349838925707797
18.083880705948282,17.93989998785483,23.19885189144032,20.589977258939122,35.42023607927041,10.073766209025308,18.419704603211144
18.16304779696914,17.960389394748457,23.276073242518798,20.604443307994185,35.59831478426271,10.146505409349382,18.49564357420367
18.23451412583856,17.989524944339937,23.346405682137277,20.614818740762423,35.7693714864023,10.221501074520086,18.577488342603985
18.298226348490758,18.02719355999356,23.409502109365395,20.621064370355448,35.93310722809191,10.298528527906,18.6650463134343
18.35420824896653,18.073312071339096,23.465015540816193,20.623138458087514,36.08925131713348,10.377344381051905,18.758097000653155
18.402549232799934,18.127812126528536,23.51260842136856,20.620992000894496,36.23757767393084,10.457682658856701,18.856386658954047
18.443401251271904,18.190636472684584,23.55196344723109,20.614563096501712,36.37793001203891,10.539251802941159,18.95962271432394
18.476975282166535,18.26173887864956,23.582787576204346,20.60377392721158,36.51022921048103,10.621734651916023,19.067467913090827
18.503529187649576,18.341075104304036,23.604813917924332,20.588533343641398,36.634458501642825,10.704793870530168,19.179534137949542
18.52335140455326,18.428588208788643,23.61781402982775,20.568745753415698,36.750645514122105,10.788081628488868,19.295379383156046
18.53675069069383,18.52420223635598,23.62162251574894,20.54432216482075,36.85885123293916,10.871247456003514,19.41451204069583
18.544054080242137,18.627827471506514,23.616158575914337,20.515186022788903,36.95915746301313,10.953940292604612,19.536400607940674
18.545605454917002,18.73936300712985,23.601429167357306,20.481272112024815,37.05164745912877,11.035806995281526,19.66048189014287
18.541758524506673,18.858685580557186,23.577516875032757,20.442525365837675,37.136390264352144,11.116491657209481,19.786164366318033
18.532868734016045,18.98563121992371,23.544569385131464,20.398905028110917,37.2134439411668,11.195637514807785,19.912833558916272
18.51929525485188,19.119982635449045,23.50280161689018,20.350389849905522,37.28287525937366,11.272889597082372,20.03987130862931
18.501414670904715,19.261468221419836,23.45250333057257,20.296977929485113,37.344773909195524,11.347895782727665,20.16668770138255
18.47963161174847,19.409767234111605,23.394037172441763,20.23868473825234,37.39925249317375,11.420307229863274,20.292746089398154
18.454373934827625,19.564510505818603,23.327825477531903,20.175549159382893,37.44645085879521,11.489781954048988,20.417566695662135
18.426077239801213,19.725274862237484,23.254339156051127,20.107650532586078,37.48655428450864,11.555993491677153,20.54071412437691
18.395170406600403,19.891581374021676,23.174097073257403,20.035127694540048,37.519805129313966,11.618640443136751,20.661781273853823
18.36206817633721,20.06290577974053,23.087667300615745,19.958186377029495,37.54649005753892,11.6774508652196,20.780378171827753
18.327168530351802,20.23869506760174,22.99565829281111,19.877089988539645,37.566910756042766,11.732181551219087,20.896128142382523
18.29084889224368,20.41837611402095,22.89870139542101,19.79214099096683,37.58135589720594,11.782615976424205,21.008666104343437
18.253460092760886,20.601352044985475,22.797433989339346,19.703662193394447,37.590087760803534,11.828562528400072,21.117632691086044
18.21532621257472,20.78699519166942,22.69248870688083,19.611981936938378,37.593346496099954,11.869853392028853,21.222666027210465
18.17676101443929,20.97464435678617,22.58448804890751,19.517423652430402,37.59135802878966,11.906344650352889,21.323398801837808
18.138096664972025,21.163604766002386,22.474039433255204,19.420300793196418,37.58433019373884,11.937916817962954,21.419462585028345
18.099702711622545,21.353146760115497,22.361726617190662,19.320918681223883,37.57244435327294,11.964474481740737,21.51049177269835
18.061985743593,21.54250382529286,22.248100349079262,19.219581011388573,37.55586489212153,11.98594628385618,21.596122979119205
18.025387582086932,21.7308735778972,22.133676017763143,19.1165940742488,37.53476990985299,12.002287465463644,21.67600048795806
17.99039496406797,21.917425143871064,22.018940049607355,19.012263477119955,37.50937603416185,12.013483482940094,21.749801176105503
17.957546446138494,22.10131236946582,21.904355760439312,18.906885197755575,37.479936555685384,12.019551427554438,21.817271339488624
17.927420590995034,22.28168578869668,21.79036135423585,18.800737993605612,37.44672779304865,12.020540001106133,21.878249630827874
17.900611999018054,22.457697314046833,21.677365753700382,18.694083964407337,37.41004771916028,12.016531934280158,21.932663948242066
17.87771377775022,22.628502192328295,21.565751141865043,18.58717725380984,37.37022404138745,12.00764885802632,21.98051407013459
17.859316786621275,22.793268340292762,21.455880269079458,18.48027165400643,37.3276116697941,11.99405303602156,22.021854807787935
17.84601754870542,22.951193725969006,21.34809912986108,18.37361931740915,37.28257327299604,11.975942124953834,22.056783751444684
17.838417355485987,23.10152053463995,21.242732702295875,18.2674650676321,37.2354558367279,11.953539107866002,22.085430233024493
17.837106991933013,23.243539272274905,21.14007903565131,18.162047098854142,37.18657724611236,11.92708181983043,22.10794273894795
17.842647969533136,23.376590522565937,21.04040333009771,18.05760760814816,37.13622306982649,11.896814743010392,22.124476752227505
17.855561401903145,23.50007610590294,20.943930786681413,17.954404963547972,37.084642685042006,11.86298265187123,22.135187080239444
17.876322792849564,23.61347956833412,20.85084105174264,17.85271685945549,37.032041582320716,11.825824657229774,22.140225604768084
17.905354052933095,23.716382483996338,20.761268163467587,17.75283304799653,36.978582102060514,11.785569494410105,22.13974011559681
17.943011133121246,23.808465459996924,20.675307738110398,17.6550426455316,36.924398252401375,11.742434758225244,22.13386958643352
17.989573229186743,23.88949817647494,20.593032405326046,17.55962047663023,36.86960824238675,11.69663073114775,22.122738401343135
18.045236913142013,23.959333300581047,20.51451006044245,17.466815317920183,36.814308967818725,11.648364914078925,22.106460671546916
18.110112573292643,24.0179122556462,20.43981244510706,17.37684086861953,36.7585614396555,11.597842578535085,22.085163409760852
18.18422031559571,24.065273028470195,20.369011203796045,17.289868460592256,36.70239104762339,11.54526365183054,22.059017889621412
18.267486404627274,24.101546134938257,20.302172176380278,17.206021222191527,36.64580984289124,11.490820319453139,22.028255815460962
18.35974396444442,24.12693845977354,20.239353768143683,17.125372016300652,36.58883826456852,11.434698370595369,21.99316393373238
18.460741983946754,24.141713498795408,20.1806039421091,17.04794779405965,36.53150476169156,11.377080897461335,21.954073530370252
18.570161033753237,24.14617396475288,20.12595141118239,16.973737528592963,36.4738312999033,11.318150190494247,21.91135725186235
18.68762559751934,24.140648889023375,20.075394303892377,16.902697147485114,36.415828731276704,11.258085955875462,21.865427569295008
18.81270604692937,24.125486349399313,20.028893906906504,16.834751692738525,36.357513841594425,11.197062454980072,21.816730189894418
18.944915045740306,24.10105075668133,19.986377845779383,16.76980346993878,36.29893321404207,11.135249010550382,21.765736928998166
19.083706996882064,24.06772050067085,19.947747022546444,16.707749700747744,36.24016904543729,11.072816768245096,21.712942282485162
19.22848277340537,24.02588374211454,19.91287713372014,16.648498821241272,36.18132697443644,11.009948806845738,21.658859380939404
19.37859456164424,23.975933559333182,19.881614415851665,16.59197345973693,36.12253364564092,10.946845603946196,21.60400938010533
19.533346591887142,23.91826223446352,19.853773290792027,16.53810207042386,36.06396063773817,10.88372252453093,21.548904302980155
19.69199772356584,23.85325547286936,19.829143494054836,16.48680822277639,36.0058535782195,10.820804202859364,21.494029438618096
19.853778433908126,23.78129695476497,19.807507146981933,16.43800169744457,35.9485353655675,10.758320936482196,21.439834232512897
20.01792269828817,23.702796654389424,19.788655664540837,16.39157123490107,35.89238485512254,10.696507447123603,21.386738410819067
20.18369550300329,23.618237050416408,19.772394986430662,16.347379467340396,35.8378184293449,10.635601684703405,21.335148272771267
20.35039924005267,23.52821297096359,19.758539145418204,16.305264223411832,35.78528677916896,10.57584204927047,21.285467176974574
20.51736341871867,23.433448593123764,19.74690268782099,16.26505194463513,35.735269614643045,10.517463766237935,21.238092693260747
20.683932993764184,23.334792341807912,19.737301908876923,16.22658035442959,35.68825329777386,10.46069692898454,21.193409273008598
20.84946485540474,23.23320355205044,19.72956380415143,16.189716214736467,35.64470438703932,10.40576728494473,21.151784834061495
21.013330246635153,23.129745884757668,19.723531404944836,16.154358168336202,35.605058593612405,10.352896668072464,21.11356762413758
21.174914543244626,23.02558377315327,19.719059287227346,16.12042840972488,35.569721713402956,10.302299609084407,21.079077417534776
21.33361192182983,22.921967573379316,19.71600546638849,16.08786484002352,35.539064221818016,10.254177426341396,21.04859320947117
21.48882287447748,22.82020541884115,19.714227122128037,16.056626734570678,35.513402424218796,10.208714296478142,21.022344395612453
21.63996196299998,22.721631376822817,19.713579667589467,16.026714828939962,35.49297659898954,10.166078403787505,21.000508651313517
21.78647041826801,22.62757756953022,19.71391505297734,15.998187465650666,35.4779420397095,10.126426815041969,20.98321238546497
21.927821501642537,22.539348756402195,19.715080567516207,15.971158549283079,35.468377229914154,10.089909384212492,20.970527921987777
22.063515795085014,22.45819448138039,19.71692430627079,15.94578387353443,35.46429428950527,10.05666868097371,20.962467168728402
22.193073903485978,22.38528095668317,19.71930706414178,15.922246407308974,35.46563802795304,10.026836810348957,20.958976929091765
22.316034354251023,22.32167071943156,19.722111130248695,15.900742175572281,35.47228228762238,10.000531515479357,20.959941800809634
22.43195794712105,22.268312309125424,19.72523906643179,15.881465908812597,35.484040868930954,9.977852991920733,20.965194773183566
22.540431740371233,22.226033785377744,19.72860485761374,15.86459878455422,35.50069076884144,9.958881352427968,20.974527209428327
22.64106603208258,22.195538638962265,19.732123454750674,15.850303381121993,35.52198682309881,9.94367454898378,20.987690755835587
22.733487708173513,22.17740815955444,19.735702852134054,15.83872854400279,35.54765989807421,9.93226780736086,21.00439389926698
22.81733846525579,22.17210520582608,19.739239200090378,15.830017522402247,35.5774158017743,9.92467662749381,21.02430307523035
22.892279350794436,22.179970086259342,19.742613553754424,15.824309421702885,35.61094877821401,9.920903198641282,21.047053212384025
22.957994828249156,22.2012093768467,19.745692203512718,15.821734088746414,35.647958289691566,9.920941300990126,21.072259745227903
23.014191234071205,22.235885939370032,19.748333328155734,15.822410258916403,35.68815153644393,9.924775559220224,21.099522035507484
23.060591765924002,22.28392039767507,19.750395995869344,15.82645330464053,35.73123781269142,9.932377867889034,21.128422326699106
23.09693482306271,22.345111156186686,19.751744833764715,15.833985801813968,35.77693525791685,9.943707134716016,21.158534912685276
23.122981881943204,22.4191639078193,19.75224837215287,15.845138413662982,35.824988547526885,9.95871526764109,21.189449320824252
23.138532326610527,22.505710187013282,19.751772936377858,15.860038373797492,35.87517392151893,9.977355854321555,21.220791248182504
23.14343378149819,22.604310511463243,19.75017559680998,15.878792926014276,35.9272821240368,9.999588111713077,21.252225561979266
23.137582052869682,22.71445810776132,19.747300285113738,15.90147518864171,35.98109268622003,10.025372836918164,21.283444310328182
23.120918100498365,22.8355911187481,19.74297956466412,15.92811783379629,36.03635340610023,10.05466393139512,21.314151904609503
23.093431398664244,22.967101573425012,19.737039786095984,15.958716952628492,36.09276976463609,10.087402022009746,21.344056517224644
23.05516745771638,23.108331878651466,19.729303243866617,15.993240681445748,36.15000188902822,10.123514930466595,21.372869828832574
23.00622907533196,23.258565464309104,19.719585289394143,16.031634142603195,36.2076634644376,10.162922654376416,21.400309001669715
22.946767652287424,23.417024285527486,19.70769294753631,16.073820231152744,36.26532854969296,10.205539453031827,21.426094351204036
22.876972731401022,23.582881129163784,19.69342994728577,16.119701353227995,36.3225646762434,10.251270427722044,21.449944642858632
22.797069571691296,23.75528102088766,19.676602985077807,16.16916206904838,36.378990474708935,10.300006796086661,21.471575423907826
22.707324228990466,23.933354305946956,19.657022121321436,16.222068523682747,36.434321781590064,10.351623587578443,21.490700286423127
22.60804582392614,24.116213546393347,19.634496118982856,16.2782646140377,36.48837858884295,10.405979106861386,21.50703032085688
22.499579112000266,24.30294598547424,19.608828353265213,16.33756897454237,36.54106887483393,10.462913571642144,21.520270226594512
22.38229193427346,24.492616671498343,19.579816932921766,16.399775561257297,36.592378400152356,10.522246314779212,21.53011841940235
22.25656761542748,24.684282587482695,19.54725813848819,16.464655842751963,36.642366416814546,10.583774060339584,21.536281789563308
22.12280692276713,24.877004727860793,19.510949406360965,16.531957829603087,36.691151038866536,10.647272169772593,21.538502289215607
21.981433430303856,25.069849926809464,19.470690410572484,16.601400682747876,36.73888894264679,10.712497103406408,21.53657642587576
21.83289272981709,25.261887302911003,19.426284747869083,16.672669644382577,36.78577078742782,10.779187694329362,21.530355573631528
21.67764416127397,25.45218555723456,19.37754642306838,16.745417870429055,36.832033019029716,10.847065460303202,21.51973504069145
21.51615210770459,25.63981146599993,19.324313923402237,16.81927594157713,36.87796111307233,10.915836456549657,21.504646163842164
21.348882890920766,25.82382833853319,19.266466559807263,16.89386114784874,36.923870549602064,10.985196953263785,21.48505612491892
21.176305463932295,26.003295200098677,19.203931634055234,16.968779684894567,36.97007871044536,11.054841207804147,21.460968623295244
20.998889485893706,26.17727028550316,19.13667880069614,17.043625762930546,37.0168846135504,11.124466625560482,21.4324180247065
20.81709830154651,26.34482101163552,19.064709994672327,17.11798771734999,37.06455731095234,11.193774676424997,21.39946191466463
20.63137977518432,26.50503489732601,18.988056311248585,17.191463401048047,37.113322249615564,11.262470234873579,21.3621861285399
20.442158247800158,26.657024315984003,18.90678450983675,17.263674353488714,37.16334354886305,11.330262632756252,21.320724575862265
20.249828514662244,26.799928313626403,18.82100309383224,17.334269232833204,37.21471794361376,11.396869452489879,21.27527583420481
20.054751579285192,26.932922571255755,18.730858954508403,17.402918952467612,37.26749114814576,11.462020867888553,21.22610116506107
19.857251958455848,27.055240572805236,18.63652849550551,17.46931027037565,37.32168036321718,11.525461510262762,21.173508680683657
19.657616736701197,27.166193496616795,18.538211278876396,17.53314039550211,37.37727908877548,11.586949601220718,21.117835906954788
19.456098668144516,27.265175395289493,18.436127030310203,17.594111578248274,37.43424540708002,11.646255897926672,21.059436856543588
19.25292580192793,27.351655273828957,18.330512839172922,17.651926337390243,37.492498007333595,11.703164938323413,20.99867271403971
19.04831424560765,27.425168855739447,18.221624736521623,17.706292646298014,37.551933397275945,11.75747800127657,20.935901690562176
18.842477037754986,27.485321026843906,18.109753748820236,17.75695218330015,37.61244563914644,11.809014291994528,20.871465802500055
18.635627785470206,27.531797034138105,17.995252746158727,17.803725377959662,37.673925464744954,11.857608618087268,20.805677955898847
18.427984691652068,27.564368516444585,17.878553123868045,17.84654301440088,37.73624854265958,11.903108807764768,20.738814947743023
18.219779820416694,27.58288782562805,17.760159247187246,17.88544465712847,37.79928205915285,11.945378237089955,20.671117210892913
18.011270684091194,27.587282161731064,17.64063029706484,17.920554378052827,37.86291331069459,11.9843038249661,20.60278963155625
17.80274521952707,27.577560450173813,17.520563311324054,17.952052919805155,37.92707014357463,12.019802236279553,20.53399825150389
17.594515684403817,27.55382743407365,17.40058028173426,17.980155235927377,37.99171335117611,12.051818258437208,20.464864115020124
17.386908318120597,27.5162867877353,17.281314678670725,18.005093862933688,38.05681874165168,12.08031801273485,20.395459950537596
17.18026093571232,27.46522631019773,17.163395139929076,18.02710570101559,38.122371385171846,12.105283603165008,20.325812930972674
16.974931475560123,27.40099570623197,17.047429282838223,18.046420855512117,38.18836637485838,12.126713216235597,20.255910770623032
16.77130622332847,27.32398947421078,16.933992641997413,18.063254715295145,38.25479863773261,12.14462551659218,20.185708720187307
16.569797151565766,27.23463827431727,16.823628494251015,18.077804313867556,38.32164155942684,12.159062575508047,20.115140725405258
16.3708317303182,27.13340339933846,16.716859151511127,18.090247182377965,38.38883056208891,12.170088275995093,20.044136650185116
16.17484580738102,27.020768419542375,16.614197065976562,18.100739566180376,38.45626189346537,12.177788038641406,19.972639001651075
15.982283015504088,26.897228230594823,16.516143521389246,18.109412819922,38.52379821462744,12.182276777473302,19.900610137896138
15.793592988819597,26.763278321116548,16.42317882880429,18.116369623565017,38.59126614481548,12.183710684982083,19.82802858167017
15.609222655254094,26.619404941868442,16.335757945592533,18.121682315522317,38.65844232917672,12.182291592117858,19.75488326129039
15.429608918202929,26.466076863127938,16.254315474552477,18.125393151372243,38.725035873750485,12.178261208060624,19.681179686900784
15.255185854613448,26.303743321296547,16.179269428323206,18.127513997348665,38.79067647937894,12.171892701631291,19.606962772511288
15.086404554373338,26.132844371004463,16.111015928132968,18.128024791401973,38.85491201369189,12.163486175086375,19.53234005990669
14.92374703729597,25.953830629376395,16.049920932994773,18.126874583500687,38.91721137076134,12.153367354111563,19.457485016177515
14.767721625904034,25.76717730983912,15.996317556402499,18.123990790197016,38.976968054069125,12.141884147457725,19.38262081747702
14.618846730925256,25.573382338160773,15.950507329977125,18.119295825320062,39.033510488930176,12.129398108061789,19.308001023584623
14.47763761473611,25.372954179336958,15.912757778372526,18.112720526914107,39.08613006035641,12.116273346727391,19.233899793645143
14.344601617765921,25.166399851318523,15.883294341004682,18.104207008036255,39.13412061182887,12.102867744850176,19.160610840691685
14.22023440165301,24.9542184355753,15.862293000092613,18.09371012542882,39.17680428316812,12.089529712377727,19.088446327398284
14.105010171802114,24.736900129703574,15.849881779050152,18.08121551151337,39.21353206757136,12.076598577189996,19.01773407425128
13.999372031492333,24.514926448981363,15.846151387254935,18.066774822493958,39.2436779411636,12.064402376879436,18.94881895635772
13.903732910282018,24.28876675313995,15.851163557107036,18.050532667598496,39.266650326778816,12.053250185263511,18.882066438662036
13.818484975577249,24.05887169885499,15.864947625404833,18.032725176246135,39.281917623317135,12.04342364382533,18.817858818789574
13.74400442480146,23.825669178731502,15.887491671757312,18.013658854534114,39.289022788689756,12.035174375742193,18.75658135410258
13.680644970043753,23.58956616175805,15.918741189405337,17.993687723853043,39.287578113933655,12.028727215512312,18.698605099471333
13.628727356550781,23.350952482104304,15.958606946487848,17.973196170006883,39.277258219983324,12.024282324928501,18.644277924548998
13.58853586224338,23.110200604813322,16.006971037088743,17.95258576456837,39.257802238750436,12.02201258996057,18.59393090150131
13.5603224698647,22.86766130601285,16.06368433841481,17.93226187525588,39.22901324581463,12.02206183661891,18.547891300476063
13.544308036420256,22.62366165686322,16.128561366715502,17.912619512298313,39.19074796232678,12.02455162101525,18.506484622952655
13.540673156662946,22.37851468124734,16.201379641791945,17.894033267374446,39.14291652124844,12.029594910341958,18.470021682326898
13.549544598497047,22.13254147959561,16.281882380542644,17.876854027789044,39.08551638575376,12.037305262054188,18.43878183579525
13.570989512214037,21.88609024484282,16.369778894187135,17.86140749934754,39.01868679911024,12.047794982761307,18.413000435375416
13.60502331369756,21.639538277840405,16.46473949523597,17.84799072573323,38.94273824385937,12.06116716410585,18.392859171499303
13.651622674465656,21.393281939331043,16.566387422536284,17.836869218866116,38.85813709333022,12.077508283247138,18.37847724012632
13.710729891278735,21.14772840429561,16.67429612192913,17.828274932295862,38.76547165385411,12.096883169740623,18.36990529673269
13.782248413498255,20.903294960096478,16.788001977637837,17.822401871998512,38.665430005763255,12.119330524796856,18.3671252471916
13.866040070097501,20.660409028764526,16.90703123696304,17.81939989074733,38.558790037424956,12.144856967576754,18.370057043837896
13.961926482677129,20.419502116799215,17.030923711138502,17.819368642107595,38.44640283332748,12.173431373995378,18.378568842297934
14.069686603291577,20.181004848675276,17.159241507769664,17.822351553236093,38.329164329064284,12.204984334686491,18.392483280102994
14.189046039721923,19.945355675521824,17.29157011802854,17.82833092847839,38.20799230036304,12.239413873553376,18.411577148212885
14.319664130321097,19.713019741850033,17.427519053428504,17.837226567528564,38.083818615515064,12.27659215001877,18.43557871162917
14.461128428587017,19.48449859374973,17.566717624558915,17.848897348006226,37.95758225444531,12.316368138364949,18.46416823002139
14.612959754181883,19.26032242747933,17.708802898837277,17.863142564245596,37.83020801030922,12.358567006501426,18.496983580338544
14.77462017792287,19.041038727998984,17.853405018089486,17.879702304831266,37.702579148280336,12.402989551908211,18.53362729419137
14.945516300407306,18.827209216679346,18.000138499030754,17.898262122521025,37.57552634263072,12.449413217477066,18.573669804361018
15.125002636302497,18.619407498725412,18.14860726730826,17.918468503669647,37.44984108089773,12.497593600586322,18.61664877950474
15.312394170522131,18.418206859526418,18.298420563898908,17.939951574504114,37.32629350533839,12.547265423927328,18.662068040483202
15.506984479614943,18.22416237830921,18.449204047213502,17.96234129033414,37.20563026299959,12.598145384176378,18.709397972289683
15.708056070510736,18.0378004923837,18.600597974498182,17.98527031555185,37.0885585091163,12.649939761109447,18.758077614419058
15.914878130117854,17.859624305395794,18.75225353327899,18.008370740754117,36.975749632048355,12.702353767250042,18.807518141985273
16.126700310790653,17.690127718362266,18.903838965099183,18.031272207933494,36.86787944490213,12.755096748808015,18.857106663474877
16.342753323798235,17.52980092160227,19.055049774799162,18.05360150859972,36.76567368261057,12.80788229106672,18.906210938907666
16.56225797087994,17.379119780360003,19.205609621080846,18.07498205800722,36.66991522823376,12.860425931170594,18.9541903623914
16.784433767534924,17.23852712886445,19.355260861472928,18.095033434479845,36.581410402142005,12.912442188639062,19.00041568535597
17.008500208695263,17.108414846790314,19.50375723843261,18.11337154388571,36.50094444864508,12.963642325208307,19.044287952648453
17.233674612026267,16.989109365795038,19.650867646668587,18.12961283252284,36.42925119076745,13.013734516873788,19.085248057086424
17.45917373975929,16.880860828767787,19.796384402642598,18.143388376527064,36.36700076813961,13.062426143838263,19.12278656794726
17.684220133331877,16.783838197966848,19.940122571601854,18.15436482966921,36.314792507216,13.109425752262629,19.156466430806308
17.90804747050638,16.698137906079754,20.081909016746845,18.162258520456987,36.27314606320475,13.154443643111005,19.18594852724382
18.12990017830738,16.623809829418718,20.221574353541566,18.166835272446722,36.24250314368572,13.197192695980666,19.210999796098612
18.349032178192804,16.56088573277179,20.358956086666165,18.167902189617358,36.22324371337957,13.23738965222198,19.231483489357316
18.564717421063023,16.50938933093734,20.493904049792537,18.165300036504046,36.215695359386885,13.274754459395863,19.24734859661822
18.77627554809055,16.469327917558388,20.626278012221405,18.1588986499514,36.220122459700846,13.30900710968082,19.258626676786548
18.983096013296702,16.44068345816806,20.755945295052047,18.14859326005587,36.23671440941414,13.339864806425055,19.2654276634901
19.184643279185256,16.42341398254972,20.88279373046805,18.13430065174758,36.26559703982629,13.367041769109997,19.26792656445434
19.380446147281294,16.417458096779843,21.00675661945554,18.115956872731235,36.306858615582264,13.390251078688435,19.266345330077872
19.570086740182283,16.422731011929226,21.127827900204032,18.09351690606898,36.360558864128826,13.409207224575368,19.26093984600216
19.753198971130598,16.43911279543399,21.24605545503284,18.06695404139749,36.426711835106246,13.423629057510775,19.251995356087626
19.929472987104315,16.466439862239834,21.361521105526535,18.036256965822847,36.505266973110196,13.433243031640675,19.239823797433623
20.098655430063957,16.504505535792028,21.47432021835785,18.001425574933435,36.59610659749713,13.437787037625252,19.22475891349419
20.260542310265024,16.553062634721908,21.584546488402186,17.96247000163027,36.699047277279135,13.437016817031468,19.20715515444103
20.414970135315247,16.611819728465,21.692280680829604,17.91941566313381,36.81382846203177,13.430715580103293,19.187393710845743
20.561810210727426,16.680432754573307,21.797579843582255,17.87231081184309,36.94009452678879,13.418702257342309,19.165887040932883
20.700964657410694,16.758497264396045,21.900465636930548,17.821231502190653,37.07738812094583,13.400833858265294,19.143072155383884
20.832360089374635,16.84554275306869,22.000913007198232,17.766281621136958,37.225161377411204,13.377004165497594,19.119393586334976
20.955938531922843,16.941029692478747,22.098841161899514,17.707588586882196,37.38279254224739,13.347143896616299,19.09528579863784
21.07164949274209,17.044351624569025,22.19410841438611,17.64530056922143,37.549590317866134,13.311223786700847,19.071165607064227
21.179448396063382,17.154842524000703,22.286512386727395,17.57959133562878,37.724784549190524,13.269257659089273,19.047436550954295
21.279301728256183,17.27178476357894,22.375797367787293,17.510668221083804,37.90752107225448,13.22130173300157,19.024494417517317
21.371190796036206,17.39441345161448,22.461669480746455,17.438772714299446,38.09687723034921,13.16745015135005,19.002722901707262
21.45510764442428,17.521917541845124,22.54381584196892,17.364172525882086,38.291890973010105,13.107831523489807,18.982480886053658
21.531046811793274,17.653441350750704,22.621918954314822,17.287155065779885,38.49158083478199,13.042611597168623,18.9640886724127
21.598999931863474,17.788092148459338,22.695661560679564,17.208030952539016,38.69495221677205,12.97200043301978,18.947817289687404
21.658955203239707,17.92495508258885,22.76472932689708,17.127144253274423,38.901005966494736,12.896256031226308,18.933882712287346
21.710898145231507,18.063107112170442,22.828821734092827,17.044877287587756,39.10875210789437,12.81567992924445,18.922444376287963
21.75481015237895,18.201623434440123,22.887668391848464,16.961643406619743,39.317213617892875,12.73060762292239,18.91360538926228
21.790665832889093,18.339580960100303,22.94103809381202,16.877872203727808,39.52541919875832,12.641398135908197,18.907417152350988
21.81843280220306,18.476065040572873,22.988739457425087,16.793994193872074,39.732405238081704,12.548425209568052,18.903894319196144
21.83807674807675,18.610180383153708,23.03062805117013,16.710428294360145,39.93723460302605,12.452070621654228,18.903034438351597
21.84956922756736,18.741065611490686,23.066626494039664,16.627571947889233,40.139012198188624,12.352718392742842,18.904827274689982
21.85289078721194,18.867908644786414,23.096741987620568,16.545792368663033,40.33688067922479,12.250748857849187,18.90924999853197
21.848027095835697,18.989956495685682,23.121065375857626,16.465419015794687,40.53000938833219,12.146534078401842,18.916259604430408
21.834966349883146,19.10651597665234,23.139754378837964,16.386740208624044,40.71760720175277,12.040437809185471,18.9257918903766
21.81370737754272,19.216948973061207,23.15301212373984,16.31000578656256,40.89897183843525,11.932820395549474,18.93776353258208
21.784275103315565,19.320670241864725,23.161068397147154,16.235432382989416,41.07354482134032,11.824043940163588,18.95206963450238
21.74672953518515,19.417152290344468,23.16416775255371,16.163205755344592,41.24092824162629,11.714473113177252,18.968576706990802
21.701163313866928,19.505932254245614,23.16256448656422,16.093478936195716,41.4008587965728,11.604472509800868,18.98711587309084
21.647700224682815,19.586612387848866,23.156518420807252,16.026371231054917,41.55316746482968,11.49440555345327,19.00747818421703
21.58650747998403,19.658854742559548,23.14628599067215,15.961975534312728,41.69774420487022,11.38463764249796,19.029411796957664
21.517815041247218,19.722379951293618,23.132109692139647,15.900373270629993,41.83450774302532,11.27554011266146,19.052621318800778
21.44192280313999,19.77697542893846,23.1142142377777,15.841645686161348,41.963377739343436,11.167489626905102,19.076768861323675
21.35918953729839,19.822504282855576,23.09281070630321,15.785876402213525,42.08425725675559,11.060862468323466,19.101476123695726
21.270015602307076,19.858903878744535,23.06809902881975,15.733153009197514,42.19704117231402,10.95602868454564,19.126329235683855
21.174830429839606,19.886175512493423,23.040262854215328,15.683571897466956,42.30165036180404,10.853349995403484,19.15088704095242
21.07408395292116,19.904375744193786,23.009464527424967,15.637240076280689,42.39806272918482,10.753179041426545,19.174688298825252
20.968237037443032,19.913615819792685,22.975848931465066,15.594268934001295,42.4863137061885,10.655855537194041,19.197254398222636
20.857750839501218,19.914064125178673,22.939552342990307,15.554763417372369,42.56647217789576,10.561699018540832,19.218090432339515
20.74308046968374,19.90594234479656,22.900705886529007,15.518816871008186,42.638618817990675,10.471000842320223,19.2366876647336
20.624678231474302,19.889514189850924,22.85943046111753,15.486521015297072,42.70284247142789,10.384018714382059,19.252526855561825
20.5030031110355,19.865073899819485,22.815828056833695,15.457986195999657,42.75924496221381,10.30097570360393,19.265081725387887
20.378525427207904,19.832941764138504,22.76997368509779,15.433353379407942,42.80793779011884,10.222061606751462,19.27382358529864
20.251721056394626,19.79346663451372,22.721909338477786,15.412787782627271,42.849030771124774,10.147432849076324,19.2782299769305
20.123060478091837,19.747026882144194,22.67164110668038,15.39646233223498,42.882621486298774,10.077210000906227,19.27780037247008
19.992999328157914,19.694023393535055,22.619141127711252,15.384544605871312,42.90878519166742,10.011474507847526,19.27207654063484
19.861971434015874,19.634868189492305,22.564357279897227,15.377193343044501,42.927560714306146,9.950266363818452,19.260658478957883
19.730381977573362,19.569974931494546,22.50723039969616,15.374559307718984,42.93893459279781,9.893583448604591,19.24320935935641
19.59859981851066,19.499753967006825,22.447710980479346,15.376782647169648,42.94283090528661,9.841382008626315,19.219452044732186
19.4669513263825,19.424611970521276,22.38576742475253,15.383990553823383,42.93911466452359,9.79357756550358,19.18916564316312
19.335719243002305,19.34495303097946,22.321385749323003,15.39630740107013,42.927608060491465,9.750047691721266,19.152190768419068
19.205146112419147,19.261176422808365,22.25456433445838,15.413876085006684,42.90810477540092,9.710640093280487,19.108443512121024
19.0754372146156,19.173670078683514,22.185307554421808,15.436871039635346,42.88037033503657,9.675185048429572,19.057925910519003
18.946760096051026,19.082802837507586,22.113621447795726,15.465490234707932,42.8441399057208,9.643504703277824,19.00072325562978
18.819243531403163,18.9889178716377,22.039510724692363,15.499935812461086,42.79914103129493,9.615415046726703,18.936993064454153
18.692981219637847,18.892327076590483,21.962973809891125,15.54040202570521,42.74514526886332,9.590725406637363,18.866954531020813
18.568042693842578,18.79330664234413,21.883995976484517,15.587078820353966,42.6820114471819,9.569242306026485,18.790879572391972
18.444486288745022,18.692097623898213,21.802545664768118,15.640160936945044,42.609692801727846,9.550778033943486,18.709082835342357
18.32236544126436,18.588915754302246,21.71857849676725,15.699846173823266,42.5282268587046,9.535157223336386,18.621910708255424
18.201726461418374,18.48396701833557,21.63204602751483,15.766319947984497,42.437733125392256,9.522216532201185,18.529731703935635
18.082604395563838,18.37745803950196,21.542901309966375,15.839735585868247,42.33841385429763,9.51180031819612,18.432932293703608
17.96502513167693,18.269596083542478,21.451100002478825,15.920198006219408,42.23054245592032,9.503757719604994,18.33192061506218
17.849014191648305,18.160586535061295,21.356605128303944,16.0077521342349,42.114441010808285,9.497942695222822,18.227132167418628
17.734602834074646,18.05063850186202,21.259400679063912,16.102375310434898,41.99046520147472,9.494214176352937,18.1190281834426
17.62182494073289,17.939977613773348,21.159507972374794,16.203976415719964,41.85900878748517,9.492433329031158,18.00808530024574
17.510710763851623,17.82885414691359,21.05699458182235,16.31240489831294,41.72051550188114,9.492459727749194,17.894782071849523
17.40128864693729,17.717539840020233,20.951972254829414,16.427463454004055,41.57547723014596,9.494152265305278,17.77958678128207
17.293596467997823,17.606320783252844,20.844587183310335,16.54891282216964,41.42442095866046,9.49737648756911,17.662947338514094
17.187691862837607,17.495497757929684,20.735008091982138,16.676466053943003,41.26791082707191,9.502011351101237,17.545282661906285
17.08365217404003,17.385394378930307,20.623418550025185,16.80977976817949,41.10657526223147,9.507949015791986,17.426976794752232
16.981568967216432,17.276361130431752,20.51001582237612,16.948451843010847,40.941131931307034,9.515089894019587,17.308378631103945
16.881547800280078,17.16876767555946,20.395009642182913,17.092028133875058,40.77238150878595,9.523338108230954,17.189807466100866
16.78371415557147,17.06299084043973,20.27861537065098,17.240010825843637,40.60117733629099,9.532599528465104,17.071559563719816
16.688215331388175,16.95941008648228,20.161044716374633,17.391862757720503,40.42840171436228,9.542781545914398,16.953909493754576
16.595213826394435,16.858411183162545,20.042497469175593,17.547013046909775,40.254962851374515,9.553792374089442,16.837104616910764
16.504882807557408,16.760387547326165,19.923153675697346,17.70487239539354,40.08179417416476,9.565539302929828,16.721356669174675
16.417414976689848,16.665732588252013,19.803166602938536,17.8648578217269,39.909836426518154,9.577927893978734,16.606836168925525
16.333039604851677,16.574828756530724,19.68265893221959,18.026414773934448,39.74001181555394,9.5908641288893,16.493674679845242
16.252030576262833,16.48804383771672,19.561724258941023,18.189024515859153,39.57321268636847,9.604258932053702,16.381975509910106
16.17469835906825,16.4057368752699,19.44043360031295,18.352199209400897,39.41030739072285,9.618031704514904,16.271825577638865
16.101377744457285,16.328263307603493,19.318842916945226,18.51547677602962,39.25214179484343,9.63210986811993,16.163300856526877
16.032426112927897,16.255970693642382,19.196996874305615,18.67842094048458,39.0995224341816,9.646425697590242,16.056467300320346
15.968230817977318,16.18918939648476,19.074928396199436,18.840621026772453,38.95320015862219,9.660916136882737,15.951382942809108
15.909210016618603,16.12822405830194,18.952657105357126,19.001685997104076,38.813882647149725,9.67552911128204,15.848100110791291
15.855798335879289,16.073345073771186,18.83018946980929,19.161234709345493,38.682269316452114,9.690231632000135,15.746663767219495
15.808426066616862,16.0247787494939,18.70752143588756,19.318887061714733,38.55907014402384,9.705012835828914,15.647107408033879
15.767504801078964,15.982697415695963,18.584641701477057,19.474257933883838,38.44498850902725,9.719881729604245,15.549450971613497
15.733421833780747,15.947213515033066,18.461534243284778,19.62695340908791,38.340688214067804,9.734864150472536,15.45370165908604
15.706535322851892,15.918385355748491,18.338182496478762,19.776567467052548,38.24677540470176,9.750002233705805,15.359854420726705
15.687164215699454,15.896235714369357,18.21457873304679,19.922677802099226,38.16380301634265,9.765355103860006,15.267889737500344
15.675576273828865,15.880768710329328,18.090739262136317,20.064842802701122,38.09227690263894,9.780996199037302,15.177770469223008
15.671981704561533,15.871972123282752,17.966720423958257,20.20260377360998,38.03264389315823,9.797005576021043,15.089443296041903
15.676534509149212,15.869813081000956,17.842625826674915,20.335492521697496,37.985269824475424,9.813460413299213,15.002851344089922
15.68933460374467,15.874243456595268,17.718601782793073,20.46303902152829,37.95042555069518,9.830427192414094,14.917955713382169
15.710423815389577,15.885215810670005,17.59483180571952,20.584774704120026,37.92828061468465,9.84795661712729,14.83475100311802
15.739778091784348,15.90269357012499,17.47154040326854,20.700232544982377,37.91889309547913,9.866080197068726,14.753265739422195
15.777303326802521,15.926645070867089,17.348999865927357,20.80894848794693,37.92219338359824,9.884806511929176,14.673560043462693
15.822837806680912,15.957031433795171,17.22752861792029,20.91046598630904,37.937970874962375,9.904117037004523,14.595741891071407
15.876156978028545,15.9938047898084,17.107482781757714,21.004340046171368,37.96587548943144,9.923964559327084,14.520003059369458
15.936976714749239,16.03691823609913,16.989250688897013,21.090138909126342,38.00543507462959,9.944276476997995,14.446646968908805
16.004960381395712,16.086331917424225,16.87325213926521,21.16745218004896,38.05607139516523,9.964960024833546,14.37608558365137
16.079738542711308,16.142004591007083,16.759934726491167,21.23591706000569,38.11710168636818,9.985904402453093,14.308815712282808
16.1609374644402,16.203877421713017,16.649764263211043,21.295255870028967,38.18774112574695,10.006979684665119,14.245399245130923
16.24819858849484,16.271861085766048,16.54321728821444,21.345299973316607,38.26713348689083,10.028037077868385,14.186454843263759
16.34117878074847,16.34583098340203,16.440782138210874,21.385987306836586,38.35440840489084,10.048913545987727,14.13264901290941
16.439539885199792,16.425628653713076,16.342963296170815,21.41734521607631,38.448727021913115,10.069438723516823,14.08467890272954
16.54294152004695,16.511062445573014,16.250278410648566,21.4394734237175,38.54928957661174,10.08943979639055,14.043256437384894
16.651041940652032,16.60190706904912,16.163244474545177,21.452530450814933,38.65532410392104,10.108743023123903,14.00910203015154
16.763500203867736,16.69791581772543,16.082358900112354,21.456721005819418,38.766086313599075,10.127173984924953,13.98293941126396
16.87997124550336,16.79885187111044,16.008084074846668,21.452282849826208,38.88087021405665,10.144559104037459,13.965479914363245
17.000094739334333,16.904518353981697,15.94084235866128,21.43947546218159,38.99901119163888,10.160729259728594,13.95739869118782
17.123485068399415,17.01476446653281,15.88102065914523,21.418577389120568,39.119879609710104,10.17552342994403,13.959318847974707
17.24972702962829,17.129471116359465,15.828973417916243,21.38989543547502,39.242878277195146,10.188789580502284,13.971819677941399
17.37837580252727,17.24853439536165,15.785017493890182,21.35377560101646,39.367445138251504,10.200382884174264,13.99546428556385
17.508957200887632,17.371856512982447,15.749428668450017,21.310602603420524,39.49304743622832,10.21016409366367,14.030818022119584
17.64096685002577,17.499339317646683,15.722449984633547,21.260790448290134,39.61916549756815,10.218000913068467,14.078439022446613
17.773870046007467,17.63087422934058,15.704304467509663,21.20477813423882,39.74528878241848,10.223772196904184,14.138852075546456
17.907104937677445,17.766338235701898,15.695197796150143,21.143034590950627,39.87094056878705,10.227371532913786,14.212525206278027
18.04008936493573,17.90561468493556,15.695309076461774,21.0760615389849,39.99570943266321,10.228707946508004,14.299855150454183
18.172226680865055,18.048633930191087,15.704778040277185,21.004384938824693,40.11925371019535,10.227705991656146,14.401155799549974
18.302905810832847,18.19539974497283,15.7236954095422,20.928538049435133,40.241279169160116,10.224308710633215,14.516643931995969
18.431497870661513,18.345982045342,15.752098902676192,20.849043197100116,40.361520356791054,10.218483000146087,14.646425647761653
18.557356719396502,18.500492455078398,15.789973154994183,20.76639579195905,40.479748137171796,10.210223572500828,14.79049225613106
18.679827229053405,18.659063986678383,15.837249097341996,20.681051291481946,40.595791666482526,10.199552827597374,14.94872921155584
18.798256495617302,18.821837257263493,15.89380133533006,20.59341550880762,40.70954395180666,10.186516954448228,15.12093009804352
18.91200078098885,18.988945772167256,15.959445494194675,20.503839760798634,40.820942345286284,10.171180353204049,15.306803212383363
19.020427920683915,19.1604967881162,16.03393565046159,20.412622536789044,40.92994242741885,10.153620661073633,15.505968161459606
19.122921285608793,19.336551508480156,16.116960464919664,20.320017723717203,41.03650062121576,10.133925562695659,15.717950568103308
19.218888338428975,19.51711312222357,16.208140300723283,20.22624644847313,41.140565060704056,10.112191101036638,15.94218139987248
19.307768187533632,19.702129235137505,16.30703475746609,20.131506272231455,41.24206701355999,10.088521366732326,16.177999120826843
19.389032226992423,19.891503084665185,16.413170829023354,20.03597293361592,41.34091117639054,10.063030117835254,16.42464976541841
19.46218250020926,20.085099048154937,16.526083912443035,19.93979721584759,41.436973923747445,10.035843119047325,16.681284361099014
19.526758650921057,20.282736133164747,16.645345829380588,19.843104003920672,41.53011326144009,10.00709816606687,16.946958294923835
19.58235620674841,20.484175218320328,16.770566557441082,19.7459965533314,41.62017640576316,9.976941442985916,17.220637427001698
19.628645350762262,20.68910677676454,16.90138121348561,19.648561706247055,41.70699082945684,9.945522427487722,17.501209873612886
19.665378051172656,20.897141877280994,17.037437130680104,19.550870523323617,41.79034593657683,9.912991212784624,17.787497056184588
19.692383594754975,21.107807751132455,17.17838435599032,19.452975178258455,41.869987371876974,9.879499197038818,18.078260419555487
19.709561028322966,21.320548496040253,17.32386654768059,19.35491072749496,41.94563344522639,9.845199523468839,18.37220650802085
19.716874291153207,21.534732376516033,17.473511165148558,19.256711264287592,42.01699541157085,9.810244188396057,18.667994921131367
19.71434889174105,21.749668411343638,17.626920778836727,19.15843656973494,42.083780525022775,9.774779425272165,18.96425061587291
19.702065647688823,21.96462830548986,17.78366779457566,19.060190574856026,42.14568560449419,9.738943149348618,19.25957706080602
19.68015059655879,22.178861593443184,17.94329522228884,18.962120842504355,42.202403844069984,9.702866298998025,19.552565603388228
19.648767194916694,22.39160042650949,18.10532268438381,18.86440860521234,42.25364530693482,9.666676116624307,19.841801114433405
19.608118469246495,22.602067922495827,18.269250411076822,18.767263410819393,42.29914764173772,9.630497568147218,20.125868084445713
19.558456932239764,22.809501226671205,18.434558179789594,18.670923883822972,42.33866440230251,9.594451861602531,20.403361105836556
19.500089905517836,23.013177653694864,18.60070723037775,18.57565543456527,42.37194423393505,9.558654518924097,20.67289988328591
19.43337335131426,23.212424996116315,18.76714989582886,18.481739251248072,42.39871978747801,9.523215555116591,20.933143511525707
19.358700165460288,23.406617485069827,18.93333862160303,18.389456106233,42.418710762095415,9.488241645455998,21.182799183183615
19.276492907495257,23.595174847496317,19.098726497840975,18.299070270869457,42.43162979351076,9.453837438282916,21.420630266132353
19.1872042974788,23.777570111665526,19.262764264104185,18.210815845565165,42.43718151717089,9.420104520010002,21.645474548272173
19.09131830950028,23.953333145787017,19.42490412673479,18.124886548145376,42.43506449845079,9.38714037614348,21.856271238999764
18.9893432908491,24.122042358100995,19.584611120233696,18.041431115399224,42.42499146337658,9.355039938800786,22.052079955769983
18.88179851900854,24.283317007319898,19.741371227363352,17.960559770769674,42.406718686096696,9.323899620614851,22.23208218973407
18.76920251912493,24.436822984183028,19.89468858916231,17.882366272114886,42.380061714097565,9.293821267618869,22.395574315298788
18.652067613286487,24.582284577450466,20.044076303594075,17.806956736439606,42.34490745822783,9.264912579530215,22.541963621564392
18.53089734129376,24.719485570828066,20.18905124150456,17.734465452019077,42.30125983935913,9.237283274170158,22.67076788021357
18.406181931840482,24.848256421414575,20.32914064611099,17.665050407825724,42.249313623824115,9.211040682376657,22.781612305785135
18.27839293805879,24.968459613414787,20.46389770021938,17.59888206108818,42.189497197047565,9.186289826662653,22.874221647794673
18.14798297524579,25.07998811089055,20.59291383887625,17.53613894613372,42.122451724475845,9.16313891301772,22.948414459649207
18.015392201561035,25.18277897097427,20.715822208670197,17.47700730108918,42.04897787360075,9.141705476453444,23.004108774509504
17.881053684023048,25.276824967291383,20.832298551346337,17.421674892499727,41.969992549427474,9.122123472687507,23.04133594643367
17.745390710871323,25.362169437862853,20.942064136911092,17.370319392088486,41.8865034847827,9.104563167014959,23.060247527921096
17.60880933382628,25.43889086987581,21.044887034841327,17.323101450660324,41.79958274788618,9.089266061890259,23.061107417919402
17.471693110056385,25.50709031557093,21.140577233163597,17.280169046586536,41.71032687292441,9.076572558671927,23.04427647646776
17.33440420915078,25.566883759824,21.228979093990596,17.24166825263425,41.61981565545843,9.06692235463385,23.01019941642557
17.19729024332625,25.618394050685456,21.309973520689734,17.207748616190525,41.52909114750717,9.060833263040708,22.959396262922354
17.06068996088874,25.661742207676753,21.38349772463544,17.178556724171703,41.43915960227624,9.05887528217792,22.89245381216264
16.924932084293737,25.697048804268103,21.44957000858078,17.154222672137152,41.35099356485255,9.061650372163195,22.810012962095723
16.79033141338418,25.724452885727295,21.508298214928278,17.13485019965081,41.26551617387317,9.069779489289754,22.712755399713313
16.657191023635715,25.744135088774183,21.55986917919802,17.12051908392183,41.18358667249551,9.083891257660147,22.60139873797085
16.52581102045192,25.75632369375222,21.60453374592458,17.111296564294115,41.10603240019409,9.104606456378805,22.476702906240703
16.396494082397673,25.761280763941944,21.64259525969504,17.107244161548948,41.03373950994107,9.132519348950893,22.33947728275847
16.26954122848601,25.759282800058006,21.67439683821493,17.108413983852508,40.96774288992123,9.168181643481647,22.190576719539354
16.145242513616253,25.750608073892586,21.700303632312657,17.11484315590287,40.909250658432335,9.212092831562002,22.030887008311215
16.023871329824082,25.73553071574223,21.720683040318775,17.12655508340724,40.859620120898654,9.2646944479901,21.86130761320115
15.905684869785636,25.714314734211616,21.735887793129262,17.143564657925488,40.820345746032494,9.326362800119815,21.682737717432133
15.790925148343625,25.68720538776207,21.746246971621915,17.1658779257309,40.79306654539945,9.397398869888585,21.49606952606092
15.679815592332206,25.654423303819232,21.752066517839378,17.19348386718951,40.779547629542606,9.478018185220883,21.302189887001166
15.572558414489206,25.61616908932493,21.753631951643275,17.22634558644368,40.7816167052603,9.568342958436775,21.101985666081617
15.4693439188155,25.57263927904855,21.751205679407807,17.264395536362056,40.80108766205958,9.668398067642652,20.896345693661154
15.37037167517014,25.524042585647027,21.745023069347926,17.307531178436882,40.839709978881466,9.778111564933617,20.686156864390522
15.27586662704956,25.470605121170724,21.735296817518904,17.355607461859698,40.899147131846625,9.897317484528376,20.472297262990352
15.18607692674402,25.41256920614965,21.72222977833117,17.408427705458514,40.98095456754625,10.025758416563963,20.255627909521255
15.101259970912919,25.350199122692775,21.70602635465584,17.465735975749357,41.086541108573954,10.16308943819571,20.036982428753817
15.021672026538702,25.2837934794662,21.68689437831759,17.527212522158827,41.21713710932066,10.308885893872686,19.817156291270585
14.947567997029104,25.213688895569106,21.665039727730484,17.592472819418525,41.373792504725316,10.46265238221462,19.59689929225501
14.879203362180768,25.140248359652173,21.640662826107004,17.66107101084059,41.557386428786266,10.623828599472473,19.376911503869138
14.816828366591677,25.06384834955592,21.61396160905926,17.732509808239715,41.7686165920987,10.791792468386738,19.157839318317684
14.760678143114875,24.984882467030044,21.585134976819173,17.806256911856753,42.00797153795224,10.96586419923057,18.940273156451195
14.710970390653491,24.903778854001168,21.55437872212991,17.881761371423494,42.27570924317817,11.145313293093757,18.72475676249702
14.667911292509592,24.821009806916493,21.521874035486995,17.95846179745117,42.571843943766645,11.329366821291023,18.511812983748314
14.631697764423835,24.737081924922062,21.487775720546807,18.035785914664658,42.896128521517284,11.517215426174596,18.30197305946286
14.602509490134876,24.652516988346576,21.452208124806543,18.113147291271808,43.24803265101975,11.708015668263386,18.095790072365944
14.580497374646644,24.567836947923077,21.415270446983488,18.189944195569385,43.62672835190983,11.90089185871993,17.893831873179185
14.565778505631759,24.483555765011044,21.37704353472802,18.265561606868793,44.03109342710487,12.09494360194711,17.69666464612202
14.558439791119966,24.40017264525006,21.337590620989065,18.33937485981443,44.459731957897084,12.289261040194937,17.504840475824015
14.558541597411525,24.318163142318294,21.29695636724552,18.410753106996108,44.91099597408886,12.482940338112057,17.318893398572822
14.56611349277549,24.237975185273537,21.255174983048477,18.479061930976897,45.38299652480869,12.675091808423991,17.139337703079555
14.581145954266965,24.160035836378803,21.212287375104097,18.543666873755665,45.87361503395017,12.864842722464502,16.96666105424571
14.603587629970528,24.08475775312174,21.16835357131507,18.603941200912992,46.380535859794634,13.051340896942804,16.801312842946196
14.633351557503273,24.012532701628366,21.123450891017665,18.65927727400386,46.901302373382954,13.2337606258266,16.64369346954995
14.670323202289111,23.943716114039187,21.077663202122434,18.709095257602645,47.43337049098959,13.41130785728363,16.49414948620906
14.714361068389708,23.878613571917718,21.0310728335403,18.752845297615384,47.974136895700745,13.583221822578462,16.352974593431995
14.765290997447535,23.817476318210304,20.98376048351217,18.79000622332116,48.52095452420562,13.748774418073637,16.22041083358636
14.82290398493477,23.760507106310826,20.935808134373143,18.82008495150031,49.07115648930391,13.907271284603448,16.096646038873224
14.886962361949811,23.707867653531046,20.887300844561537,18.842617823940632,49.62207982324374,14.05805655181722,15.981811697678502
14.957207856371788,23.659677018874863,20.838333945818807,18.85717308628739,50.17107062315416,14.200518990845191,15.875987205447473
15.033362680169326,23.61600250829468,20.78902883565448,18.86335275479577,50.71547552543841,14.334095805377222,15.779208348185374
15.11512371764651,23.576852954015656,20.739545177508255,18.86079271872007,51.252640164062505,14.458272645830824,15.691472088413134
15.202159887775574,23.54217966304837,20.690078395334595,18.849161928097462,51.779927960998194,14.572582277075046,15.612735035326704
15.29412395967979,23.511882180926875,20.64084651842,18.82816286526893,52.29475148290656,14.676607425749381,15.542911835913937
15.39067678869255,23.485812661255306,20.59207449377478,18.797534256932064,52.79459433651917,14.769989664213618,15.481881017215915
15.491506228237496,23.46377690949281,20.54397805151263,18.757054461785227,53.277015789035886,14.852436792873695,15.429496705747056
15.596327665725227,23.445538706027477,20.496748039424375,18.70654383318744,53.73965626861898,14.923721503391551,15.385595889370553
15.70487196828723,23.430835983814855,20.450538555764833,18.645867119364446,54.1802627306994,14.983674928139965,15.34999881678622
15.816874732591925,23.419404528961728,20.405460866072215,18.57494001086593,54.59672503706662,15.032182310563288,15.322514636221241
15.932073022084763,23.410992109227863,20.361582056976403,18.49374175066043,54.98709598511627,15.069181521346986,15.302958258027948
16.050204220142188,23.405354651721325,20.318927084222786,18.40232752901623,55.34958673189463,15.094660899804747,15.291165779684759
16.170999737335453,23.402243660780748,20.277482651273118,18.300832143798804,55.682555411261525,15.108655725498936,15.286995578251725
16.294176003385996,23.40139769161673,20.23719944144965,18.189464350294806,55.98450129770669,15.111247380952163,15.29031712103441
16.419433042591645,23.402541913310998,20.1979903013885,18.06849728618024,56.254058393796996,15.102570228386325,15.30099603385405
16.54646430022212,23.405389569408555,20.159727229387332,17.938259174351764,56.48998359327271,15.08282432984278,15.318882479843516
16.674967235635254,23.409637677226318,20.122243313353334,17.799125435052513,56.69115086367218,15.052283158434768,15.343808422414149
16.80464393614686,23.41495867585056,20.085341023677366,17.65151148749343,56.85656676962509,15.01128982473345,15.37559275018286
16.93519480184999,23.420997080878838,20.04880057688593,17.495865647129076,56.98540048294694,14.960249058124209,15.414045433053502
17.066314960512344,23.42737493307091,20.012383503463987,17.33266299177333,57.07700140776854,14.899622963527053,15.45896554710921
17.197696512676046,23.43369922314498,19.97583524658569,17.162401573475922,57.13089744214298,14.829927287538707,15.510138543121506
17.32903131495008,23.43956392709967,19.93889453109633,16.985600571369353,57.146801412560954,14.75172213794401,15.567339868596484
17.460008888078764,23.44454818138623,19.90131040722851,16.802797584749513,57.12464135594302,14.665598413421248,15.630342506452534
17.590310942877785,23.448218956072374,19.86285645139431,16.614542933729897,57.06458622877433,14.57216552607747,15.698919054823511
17.719609359031615,23.45014631575389,19.823332087835922,16.42139348213917,56.967036452847665,14.47204482586668,15.772834583845123
17.847573134390753,23.44992747435561,19.78255362854322,16.22391156803061,56.832588400441956,14.36586979164734,15.851835899556923
17.973880923191295,23.447202827659275,19.74034492524074,16.022669582652444,56.66199969610174,14.25428899718459,15.935644864523042
18.098228168471447,23.441654562881933,19.696535723967877,15.818253222850878,56.456166050274845,14.137965292147989,16.02395789252856
18.220324277259685,23.432997677313455,19.65096850220632,15.611258421355608,56.216102344787,14.017569026242073,16.116446739270497
18.339888081728628,23.420981183695886,19.603506143267886,15.402284220964159,55.942919938006334,13.893769748841752,16.21275604432522
18.456649837227026,23.40540488944373,19.55403648557003,15.191925552484653,55.63780658097428,13.76723220258306,16.312500745716424
18.570356083615195,23.38613500125596,19.502480443238273,14.98076956314036,55.302023333081095,13.6386174957046,16.41527011615686
18.680768630580392,23.363103130307227,19.448805568286993,14.769399493345468,54.936915834695,13.508584260291471,16.52063852709759
18.78765862753034,23.336298875743402,19.393033608058992,14.55840380931311,54.54391706765311,13.377784610334999,16.628174368304748
18.890807288593226,23.305771044666436,19.335233492499306,14.348380630004177,54.12452877285459,13.246855638302552,16.737440558169954
18.99001961506117,23.271630824194094,19.275504670325052,14.139932241331651,53.68029311166314,13.1164110681226,16.847990101647863
19.085140746178727,23.234043154263013,19.213962714060827,13.933654701034714,53.212771674445115,12.987035757126485,16.959365702049983
19.17605964304839,23.193208428536536,19.150741360610784,13.730128476643428,52.72353688398355,12.859281816071375,17.071109620763096
19.262698810434298,23.149346873959512,19.08601723875109,13.529911844830899,52.21416765139109,12.7336639655933,17.182779710856426
19.345002254558537,23.102692812798786,19.020040155159418,13.333537472993845,51.686239589415656,12.6106535593097,17.293959779456227
19.422932622232302,23.053495309405584,18.95314291509837,13.141512067326206,51.14131456636447,12.490672735692868,17.404261741032336
19.496476138715465,23.0020155990921,18.885726579682277,12.954317179178787,50.58094787170206,12.374091115828564,17.513331169278867
19.56564486569945,22.9485170426662,18.8182361378548,12.772408508792969,50.00671728861557,12.261226166979778,17.62086226688122
19.63047142790653,22.893253617748755,18.75113793106268,12.596212646569688,49.4202483207165,12.152345239026728,17.726611276932257
19.691002676229566,22.836466492768967,18.684901578655495,12.42612287405226,48.8232121608487,12.04766653432131,17.830395600933002
19.747299620809077,22.778389970074354,18.619987907987372,12.262498348472484,48.21730972914824,11.947358825798037,17.932080127773933
19.79944138385236,22.719255897676433,18.55684564521082,12.105670951809396,47.604269703670695,11.851541962592275,18.031563749580936
19.847524626694682,22.659288354418507,18.49591544211212,11.955956791254483,46.9858595266877,11.760290085028469,18.128777068867496
19.891656296549815,22.59869414831516,18.437632631122273,11.813662081736767,46.36388381114614,11.673636901110575,18.22368816569443
19.931948619392312,22.537657524818513,18.382421569138057,11.679079321540053,45.740162902904466,11.591579747695906,18.31630315975979
19.96852575265816,22.47633923587942,18.33068402336745,11.552482784856592,45.11651110521404,11.514081134901593,18.406656383986554
20.001537785886836,22.414874467270486,18.282789541920817,11.434133960499848,44.494726045725514,11.44107149380918,18.494797099918344
20.0311667822072,22.353366917577045,18.23907304825804,11.32429419146853,43.87657846926285,11.372456004197534,18.58077916351514
20.057617784159625,22.291883258617805,18.19983758231544,11.223230627138486,43.263790737896386,11.308121273321078,18.664653415333113
20.08110255343393,22.230454542221366,18.165354984934794,11.13120900615871,42.65800837427615,11.247936381094856,18.746460134026147
20.10182699978714,22.16908504769275,18.135860986068195,11.048482707976094,42.06078066153497,11.191749602043323,18.82622128424717
20.119985907902432,22.10776070983799,18.111547330170303,10.975292079643767,41.47355862569381,11.139385474935468,18.90393546540186
20.13575952570245,22.046450036112034,18.09255328727212,10.911875944114593,40.89769793837211,11.090644135053719,18.97957924396396
20.149306060038132,21.98509930551001,18.078956865003065,10.858481183830579,40.33445174494298,11.045302538028356,19.05311451023378
20.160752883369952,21.923628629255372,18.0707670794499,10.815359454084776,39.78496099975191,11.003116967358608,19.124494818499574
20.170194863564024,21.861934097188094,18.06792082140766,10.782758571068937,39.250260599326744,10.963826169312663,19.193664029629442
20.177702359808915,21.79989677761894,18.070290510563936,10.760920250493603,38.73129930343007,10.927154295111427,19.26054952460411
20.18333049137172,21.73739216166765,18.077705630125084,10.75008292042276,38.22895137003776,10.892813523600571,19.32505871342663
20.187121444253428,21.67429209752006,18.089977805729298,10.750480487129103,37.744007715870374,10.860516008389949,19.387082926261492
20.189104994102607,21.610459759918008,18.106914001109807,10.762332392626924,37.27715585203028,10.830025436790818,19.446502546388317
20.189309622919616,21.545745540108566,18.128318299237602,10.785827825696174,36.82896381540101,10.801274030847104,19.503187128846527
20.187783704356946,21.479990008414326,18.153994495001307,10.821109794462474,36.39987735343368,10.77451683481839,19.556994423085065
20.184609476060118,21.41303234263124,18.18375255627578,10.86826252262197,35.99022929385374,10.750448024547381,19.607776796389963
20.179898517665773,21.344716577564686,18.217412032362894,10.927302514879187,35.60025201624573,10.73022580450163,19.65539751967667
20.173777596298812,21.27489055280791,18.254797896263614,10.998172031523524,35.230090690489206,10.715415323895089,19.699748712286052
20.16638096155426,21.203399466626166,18.295730151464287,11.080734181671776,34.879824689437996,10.707894700989755,19.740758110624423
20.157854931335734,21.13007935192904,18.340011932757147,11.174772759275534,34.549494118794364,10.709759947052968,19.77838209467634
20.148364826003306,21.054754550719874,18.387422708544317,11.280001048337347,34.23911260899198,10.723241059113226,19.812596802702643
20.13809121465625,20.97723987304519,18.437720674653676,11.396075163056478,33.948659339198755,10.750627674212344,19.843398519849355
20.127217213194413,20.897346018852673,18.490649659738537,11.52260090235697,33.678070386308114,10.794200579065024,19.87081011879882
20.115921015663876,20.814887037872342,18.54594095096026,11.65913119320613,33.4272477128338,10.856169268626937,19.894882008843066
20.10438081374275,20.72968797071713,18.603307041036395,11.80516219682094,33.19607483170804,10.938619868852939,19.915684631782145
20.092782284642233,20.641589519875378,18.66243298867197,11.96013442696381,32.98442032165491,11.043477496112821,19.933303105195073
20.081315842677594,20.550448309823203,18.722971986060898,12.123436528802012,32.79213488921906,11.172479666767549,19.94784425326963
20.070165438801986,20.456135022948505,18.78454733163294,12.294407313943491,32.61905865562155,11.32715133429311,19.959450073060356
20.059502439097848,20.35853678318398,18.846760184444495,12.47233614380022,32.4650343561892,11.508777526026678,19.968302902038474
20.049491749223844,20.25757174832847,18.90920071987557,12.656467858680884,32.329907383904775,11.718379037917696,19.97462218060438
20.040300511844176,20.15321296551424,18.971458776314527,12.846022908151498,32.21350845316221,11.956699413306696,19.9786661393553
20.032096284847878,20.04550400271466,19.033135265598183,13.040233773043079,32.11563837269019,12.224205273914057,19.98073945098821
20.02503584839861,19.93455614001973,19.093858336170978,13.238378744966381,32.036077577215444,12.521092122323088,19.981192689899167
20.01925577487075,19.8205373883355,19.153297694779315,13.439793832584057,31.974614758164943,12.847286790986056,19.9804088256772
20.01487071367249,19.70366728474649,19.211166849727626,13.643866430061713,31.931061583114058,13.202447932596304,19.97878866667485
20.011974772824733,19.584216971729667,19.26721596368519,13.850029071746675,31.905237900086725,13.585971962327111,19.976745011305393
20.010638788886304,19.462504180577362,19.32122661805248,14.05776254516684,31.896951920316965,13.997006480782726,19.974701272550444
20.01090350111867,19.338879481725495,19.373014162536176,14.266600460993644,31.906003734937784,14.43446633365667,19.973084950171053
20.012776439947398,19.213709802557513,19.42243198824428,14.476125009890783,31.932205509926025,14.897047488867072,19.97231293319205
20.01623978753668,19.087364176093374,19.469368597337258,14.685955973964749,31.97539528067205,15.383238081453527,19.972772560472137
20.02126504696712,18.960202362570424,19.513737868091905,14.895742527203453,32.035444830936456,15.891329664076165,19.97480458553847
20.02782123941445,18.832566287343234,19.55547258258438,15.105160961221838,32.11227094517157,16.419432759681186,19.978694671295262
20.035871584719178,18.704774614059698,19.5945280257027,15.313911451928245,32.20583642641059,16.96549645459537,19.984674888913915
20.04536721223441,18.577122964068,19.630890061912286,15.521708405183087,32.316126981093454,17.527326724852557,19.992927446589487
20.0562460201556,18.44989389442964,19.664581003978313,15.728269254027804,32.44311785784382,18.10260161169439,20.003583991270602
20.068435096377605,18.323373983137852,19.695673818990954,15.933310054814374,32.5867597945272,18.688888117127544,20.01672555510773
20.081851008643152,18.197866507038412,19.724324730991263,16.13654862098967,32.74700616173439,19.28366407422845,20.032392282838714
20.096396876677186,18.07369132873474,19.7508053941447,16.337707266869476,32.923868071543275,19.88434239670557,20.050600600108925
20.111962167938938,17.95117580292896,19.775511797723322,16.53650869662639,33.1174503563194,20.488297283823577,20.07135452767889
20.128431911439066,17.830648645000707,19.798952784355937,16.732668553649795,33.327945718419656,21.0928954924123,20.09464404084948
20.145701544192875,17.71244470046746,19.82173214215321,16.925893928615984,33.55560664067811,21.695527512039448,20.12043723246902
20.163684167792248,17.596914845136563,19.84454161340142,17.115890029938786,33.800709038441376,22.293627901620354,20.1486766529046
20.182304291041987,17.48442835323885,19.868179317960614,17.302365697841307,34.063514107980915,22.884685398716787,20.17928186048991
20.201486874041265,17.37536416494968,19.893580575183883,17.485030172980625,34.34425198415104,23.466252270531214,20.212151066239798
20.2211547836485,17.270099178130895,19.921832779374338,17.663585780628242,34.643137167443925,24.035955493040998,20.24715675841506
20.241237359157132,17.169001749513807,19.95416608012858,17.837727318400503,34.96038630974654,24.591506949875022,20.284139504162795
20.26167854604666,17.07242914807317,19.991930088773405,18.007152499525294,35.29620915466302,25.130715641761412,20.32290623660948
20.28243395975772,16.98072231757285,20.036564412213952,18.17157461099062,35.6507789367877,25.65150551238683,20.363232683975188
20.30346098829875,16.89419772540682,20.08956342986789,18.330725652016216,36.02420416631796,26.15193169329894,20.404865794992315
20.32471449082766,16.813144569201498,20.15243538723032,18.484350425243967,36.41652078261752,26.630185782571367,20.447527242568153
20.34615282891696,16.737831155576167,20.22666480983618,18.632201068227356,36.82771845656062,27.08459364917465,20.490923196989506
20.36774409762596,16.66851121101359,20.31371317402762,18.774036787676973,37.25778700900372,27.513621331629732,20.53475933837199
20.389461841169645,16.60542000841133,20.415106759195076,18.909624468583733,37.706752673113094,27.91590739558765,20.57875311883282
20.411274561427106,16.548761852567928,20.532595651951205,19.03873512145679,38.17471563854722,28.290327416513932,20.6226374674914
20.433140373158075,16.498697934303152,20.668290714845334,19.161137956474175,38.66192250120319,28.636064232353423,20.666156628337575
20.45500894648518,16.45534407901952,20.82471759399602,19.27659765407178,39.16884498328385,28.952641558572548,20.709058494941434
20.476822876296957,16.418780168470864,21.00479089917531,19.384878645490982,39.69619113727411,29.239913227403566,20.75108802242134
20.4985132918938,16.389060016077437,21.21172704950057,19.48575559412386,40.24483076011101,29.49803691294869,20.79198422448278
20.51999424574664,16.366214281841494,21.448927631409674,19.579023744376205,40.81569522218667,29.72745510714081,20.831478816171384
20.54116353887204,16.350257823448565,21.719863293213578,19.664502877571916,41.40972563422374,29.928895980132765,20.869292997510126
20.561910701174828,16.341211236223785,22.02796194968495,19.742035019518543,42.02788865959894,30.103395533384326,20.905135646088194
20.582123778202927,16.33912260522989,22.37650983602244,19.811479651311164,42.671215882738416,30.252313214323117,20.938711787807343
20.601687178897638,16.34407059195548,22.768603252186608,19.872708857922728,43.34082162139647,30.377313767087706,20.969742297577906
20.6204734961059,16.35615191961118,23.207167077548238,19.92560521926399,44.037894676259086,30.480318757530103,20.997982253302528
20.63833964407499,16.375469450918327,23.694982390783807,19.970069556511053,44.76367895220383,30.563451333455692,21.023225111967793
20.655132026596096,16.402126496057562,24.234662280957444,20.006045096843756,45.51944547811962,30.62903232413524,21.04529466835901
20.670693045364086,16.436220070615697,24.828607097171428,20.033551040880152,46.30644643385876,30.679701896787115,21.064039075859355
20.684860070730913,16.477828001909824,25.479004986979376,20.052705928039863,47.12585946189013,30.71862935724758,21.079337331506768
20.697461813324917,16.526994644212458,26.187864194492157,20.063728340041784,47.97874103296004,30.749653254631728,21.091112539710494
20.708325786443304,16.583724814041496,26.95701526519457,20.06691966126634,48.86598878172964,30.777288349866932,21.099337296452173
20.71729807684219,16.647990129043965,27.78808466170168,20.062641206888063,49.78830762282515,30.80667496355409,21.104026675642796
20.724258713732105,16.719738889258863,28.682485285213886,20.051294535801343,50.74618946484368,30.843514444732826,21.10522848856803
20.729120144502286,16.798896782703487,29.641417567336244,20.03330736863287,51.739922573905396,30.894013620044763,21.103019443255636
20.731814899947313,16.88535767734948,30.66585006547041,20.009123344612664,52.7696285296614,30.96488124315191,21.09750385398992
20.732285470586127,16.978975862687406,31.75649047743815,19.97919289903617,53.83529221666531,31.063328705958963,21.088807249653875
20.730482253784388,17.07957170398389,32.913762018766725,19.9439661451863,54.93674565457743,31.197001848095383,21.0770653674218
20.726365006330266,17.186949261270566,34.1377709083274,19.903894813822102,56.073613926692275,31.373890345936392,21.06241673813794
20.719899951776426,17.30090929868369,35.428259362169385,19.859445726004306,57.245281182156525,31.60228002597934,21.04500604393059
20.711052578873463,17.421246258964743,36.78455893966255,19.811113113727522,58.45090638194417,31.89072814063966,21.02499511132109
20.699784908193607,17.54773654991474,38.2055627800532,19.759416329958068,59.68944550740229,32.24802149797802,21.002568678820545
20.686061604543827,17.680133782439675,39.689740091407,19.70488562986271,60.95963747478014,32.68309872623193,20.977929944964334
20.66985629545319,17.818176565199348,41.235196577162654,19.648047645270307,62.25997273672962,33.20492956504005,20.951296762043082
20.651148598725683,17.961597089597046,42.83973515264022,19.589417756716784,63.58868897518112,33.82234642435778,20.922908686395044
20.629914025014457,18.110118309328005,44.500877209638546,19.52949795278729,64.94380690967144,34.54384554560129,20.89303961346119
20.606115700713545,18.263446483900214,46.21587536444142,19.468773651222904,66.32317210991542,35.3774459064422,20.862001564212918
20.57970626991442,18.42127377041414,47.98175783706676,19.40770715709854,67.72447740359273,36.33067691769129,20.830134089633003
20.550640655318833,18.583289940419366,49.795372599184184,19.346734861960847,69.14529447109778,37.410611055087074,20.79778817634648
20.51888824784647,18.749187945267344,51.653386310344935,19.286275811305185,70.583132214239,38.623811670420984,20.765315808072426
20.484434517424493,18.918655300528325,53.55225982202307,19.22674573975215,72.03548035299644,39.97621243235723,20.73306729192005
20.447277330667465,19.091360703246785,55.488240003174035,19.16856135883405,73.49980700731254,41.47304633995476,20.70138927134515
20.407428748542632,19.26695435722848,57.45736202369524,19.112129690811535,74.97354177241792,43.118854932423,20.670616692474375
20.364921925471926,19.44509047349942,59.455451312794125,19.057830527615444,76.45407853904725,44.91747850104066,20.641060250329765
20.319813767943963,19.625454880230535,61.478149972336,19.006000105835867,77.93877517132677,46.87196136189161,20.612994717382545
20.27217945651056,19.807773271529413,63.520982532230775,18.95691921452589,79.4249211429845,48.98442859693013,20.586650395941383
20.22210473661333,19.991800225968817,65.57945333569086,18.910808566606576,80.90970214037013,51.256013735754166,20.562207042250456
20.169684364145258,20.17730610714706,67.64918536417439,18.867834296459478,82.3902052982233,53.68686218126389,20.53978874701727
20.11502802495947,20.364067742336864,69.72607714802938,18.828121266159453,83.86345516878646,56.27617637088324,20.519460286047504
20.058265459391084,20.551857347095947,71.80640365461329,18.791765367926555,85.32644062833891,59.02223477723253,20.501231294751182
19.999544052148064,20.740429692375674,73.8868653119868,18.758837231563444,86.77612285161439,61.92234811130705,20.48507344232212
19.93902313501665,20.92951757312555,75.96464329131074,18.72937833243035,88.2094430282927,64.97277792761676,20.470942260555397
19.876873946766455,21.11884472485256,78.03742017995636,18.70340128213698,89.6233446528282,68.1686664886533,20.45878858984313
19.813286490959115,21.308148570251664,80.10330865138823,18.680911419615473,91.01480285060663,71.50401687225481,20.448557562083586
19.74847388515494,21.497192030617704,82.16073316044476,18.66194796774966,92.38083318409727,74.97175281073915,20.44018758942922
19.682666836021134,21.68575819774792,84.2083275503046,18.646614517921623,93.71847094351115,78.5638571828353,20.433617098657766
19.616104729564356,21.873643825305084,86.24487385595275,18.635080415161465,95.02475216983093,82.27152354555848,20.428791239654615
19.549035739555205,22.060662524812532,88.26927708156258,18.627575204992677,96.29672162971954,86.08525123970534,20.425658971332933
19.481726031455118,22.246648639929113,90.28052802720275,18.62440450385692,97.53144912103136,89.99490669688261,20.424163021683086
19.414463874266758,22.43144995035118,92.27763304351267,18.625979305857634,98.72603116798089,93.98981519264966,20.424231801863407
19.34755014724588,22.614910709116522,94.25956994396721,18.632825807921947,99.87758915305805,98.05889979522173,20.425777545140793
19.281282761192607,22.796857802773467,96.22530796822055,18.645562085925985,100.98327675725159,102.19087504978428,20.428696737790357
19.215946400548628,22.977102595583872,98.17383817098279,18.66486235331045,102.04028484121463,106.37449007438583,20.43286810293794
19.15181085445997,23.155455294850615,100.10416105341436,18.69144100266532,103.04583480223269,110.59872691981775,20.438154197091837
19.08913151837612,23.33173290923074,102.01524242121343,18.726064769241752,103.99717888663518,114.8528506203826,20.44442002339719
19.02814462411536,23.505752363960763,103.90596235268401,18.769564108422685,104.89163932765773,119.12633772091344,20.451566142526335
18.969058941254715,23.67732314255718,105.77506409982662,18.82281640748991,105.72668693523708,123.40880174469042,20.459552000482294
18.912053024856352,23.84625173893553,107.62111816450464,18.88670926047281,106.50000930980471,127.68997695269502,20.468393869087997
18.857283965006975,24.012349184284766,109.44254055689888,18.962104319850766,107.20952731306583,131.959713606254,20.47814786189634
18.804901183073504,24.175427960461835,111.23767184680844,19.0498091568007,107.85337797151809,136.20793106356277,20.488895376528248
18.755051239459675,24.335288964995787,113.0048469190921,19.15056457106822,108.42990064562956,140.42456450255386,20.500736566891288
18.70787034242132,24.49171103987412,114.74239102599977,19.265066285997502,108.93763007890281,144.5995925814729,20.513785587371014
18.663475756783594,24.64445472893829,116.44856116023558,19.3940186464476,109.37528074677017,148.7231705897525,20.52815990394262
18.621964468943673,24.793278153266765,118.12149832316868,19.538176864200786,109.74172850120918,152.78579409013142,20.543965894912123
18.58341456513807,24.937948970714878,119.7592381041057,19.698349275699723,110.0360200447207,156.77842109603256,20.561292924014666
18.54788313006416,25.078242776882718,121.35976225438382,19.87537629303064,110.25741703368577,160.69254338979988,20.580222161935232
18.515405422719926,25.21393791963235,122.92102788122719,20.07010213329334,110.40543406704192,164.5201991937795,20.60083821941643
18.48600460291326,25.34482170164018,124.44095526835535,20.28334625277977,110.47984278442807,168.2539184873721,20.623228103558375
18.45970990054078,25.47070576649628,125.9174226566415,20.515907241940646,110.48067062142233,171.88662991259096,20.647469299594903
18.43656928937873,25.591433257110058,127.34830730718478,20.768638037984694,110.4082193622394,175.4115716733754,20.673620839419986
18.416647947770954,25.70687003955618,128.73154802280004,21.042563912002223,110.2630770578782,178.82224524618073,20.7017245641456
18.400017831093848,25.816892000519847,130.06519149539423,21.33894783910706,110.04609385084758,182.1124237650088,20.731810231788845
18.386750181320224,25.921381955818237,131.34746170507992,21.65926837022044,109.75833460638334,185.27617138116278,20.763894207350948
18.376919495430506,26.02023445961837,132.57689578515047,22.005192760814776,109.4010403158132,188.30783825273616,20.797971193345436
18.370614867412353,26.11335722587071,133.75246023350692,22.378609335556433,108.9756115099372,191.20204877526794,20.834011416087595
18.367943720091894,26.20066515267864,134.87354492642388,22.7816631259871,108.48359933025209,193.9537029657048,20.8719789876798
18.369021381745256,26.28207613378622,135.93988216359372,23.216721937826396,107.92668807967215,196.55800158668046,20.91186911556933
18.373957403752858,26.357520318811574,136.95149215739258,23.68628506846421,107.30667868324555,199.0105006109487,20.953736568165347
18.382853133630093,26.426960038749808,137.90866434321097,24.192879478022906,106.62549008720407,201.30716448093858,20.997694359392593
18.395810953387656,26.490401803951833,138.81193632144002,24.738976795069124,105.88516996323999,203.4443808714346,21.043893361680606
18.41293986805304,26.54789060933292,139.66206503756422,25.32697881728125,105.08789097499951,205.4189449486696,21.092505350655905
18.43434744292326,26.5995012334922,140.45998623283057,25.95928643736834,104.23592540054669,207.22804578102551,21.14371575511567
18.460127778080597,26.64534317989984,141.20673969002283,26.6383715076426,103.3316149747151,208.86928245594328,21.19771563520641
18.490358112943582,26.685571884608326,141.90336360989798,27.36675889743323,102.37736336054002,210.340722882589,21.254684903709634
18.525100921963226,26.720387187391424,142.55081375560022,28.146920899262998,101.37565886353906,211.64097441303977,21.314773309187455
18.56440071907634,26.750018541674873,143.15000248159984,28.9811574167597,100.32909742983553,212.769213712263,21.378093765885094
18.608273504200074,26.774719526258394,143.7019718751371,29.871538492192663,99.24037643683812,213.7251804859232,21.44473376210397
18.656696649710543,26.79479247735464,144.20804325971775,30.819926468856135,98.11227201035011,214.50918425871222,21.514770914885332
18.70960667767565,26.81063218015119,144.66981323255945,31.82800423448661,96.94763507173656,215.122126992965,21.588274714465534
18.76690315502635,26.82275077588033,145.08907279051218,32.8972336934885,95.74941271143832,215.56550477966854,21.66529453537098
18.828450109347028,26.831769550869364,145.4677619344594,34.028765769226396,94.52066012934517,215.84139603046728,21.745846149242077
18.894071784362062,26.838409009666222,145.8079402945169,35.22339596042706,93.26451614702208,215.95246073222293,21.829903112857068
18.963551345976743,26.843502892891518,146.11172529067306,36.481644796183005,91.98416208636989,215.9019172576606,21.91739017071467
19.03664289841461,26.848015752886816,146.3812405242064,37.80393979062201,90.68280162142301,215.693461812381,22.00817536381957
19.11309188324149,26.853034504487532,146.6186214241562,39.190772611097664,89.36366635081856,215.3311572629463,22.102062104713823
19.19264640401946,26.85973505245511,146.82602385422996,40.64274316207772,88.03001570829828,214.81933507662814,22.198784560146898
19.27505269149018,26.869355016208324,147.00557439445444,42.160539350338205,86.6851177467735,214.16253874087008,22.298010234444906
19.360044758010318,26.88321875676828,147.15929419490254,43.74494249669058,85.3322398262368,213.36551202734742,22.39934941680178
19.447338047158727,26.90281840627985,147.28905114559214,45.396883285614884,83.97466338391364,212.43319424657594,22.50236296566385
19.536626760583772,26.929875936465976,147.39653870133682,47.117552420108076,82.61568910475215,211.37069065871754,22.606562308417324
19.627580345005104,26.966322246575647,147.48324477312661,48.90853252595627,81.25860584959071,210.18324166135918,22.71140573666677
19.719839263376173,27.01421982271977,147.55039431609816,50.77182222591645,79.90664505522581,208.8762229310495,22.81629670129404
19.813017207954218,27.075703974284846,147.59888569406837,52.70970999871319,78.56295812678307,207.45516363297165,22.920584941163444
19.906716425447737,27.15299937970283,147.62925959802473,54.72466150507259,77.23062228226462,205.92575138974337,23.02356931691931
20.0005501104282,27.248497569588803,147.64174258241667,56.819329725984275,75.91264413807305,204.2938254797115,23.124501397779007
20.094155684739125,27.364806768794995,147.63635890882418,58.99657135106734,74.61193777253828,202.5653914763772,23.222589821479744
20.187192133169006,27.50471402587413,147.61302637739055,61.259346554230014,73.33129409554553,200.7466584335805,23.317008675438473
20.2793301881661,27.67110520713679,147.57158607019934,63.61056259505129,72.07337101378019,198.84405155157313,23.40691206340147
20.370246603330912,27.866925686719465,147.51182104503653,66.05300540559217,70.84070089064784,196.86418182251833,23.491449188807717
20.459625394223902,28.09518853596179,147.43350474089723,68.58939448688483,69.63568492416559,194.8137970630587,23.56977327388169
20.547159877095446,28.358960997104052,147.33644166168054,71.22245082338021,68.46056289499737,192.6997289466656,23.64104627299467
20.632549101246077,28.66129103083137,147.22047367519,73.95489210605002,67.31737857900026,190.5288540365192,23.704445515578676
20.715491810084096,29.005106178056018,147.08546854291532,76.7893996490196,66.20796386906981,188.30809763443736,23.759173453154702
20.795688119439106,29.393125871760294,146.93129956510128,79.72861027666141,65.13394196262601,186.04446351819382,23.804466258649665
20.872852483975336,29.82781061242733,146.75781118872783,82.77509758292202,64.09673129455729,183.7450296357378,23.83959903685593
20.946727248092422,30.311352706919557,146.56478439716182,85.93131251184963,63.097546083119056,181.41688054746223,23.8638943975997
21.01708477256671,30.845677028313233,146.35193174366577,89.19951259560978,62.137414680389625,179.06700231181682,23.876746730496162
21.08371977402543,31.43242060854264,146.11892380840683,92.5816906819828,61.217217932031446,176.7021855320605,23.87766097313902
21.146442330117647,32.07290568493076,145.86541031196876,96.07951384902094,60.33771199987425,174.32896855518212,23.866282652408042
21.205078586361704,32.768131149341336,145.59102395758012,99.69430427487761,59.49951556400817,171.9536162254278,23.842401181928018
21.259476239101733,33.51877348634851,145.29541184667687,103.4270336691837,58.70308831157471,169.5821068209748,23.80593546587322
21.309505547272902,34.32517285143822,144.97830941288223,107.27827823516775,57.948737201797115,167.220122712167,23.756921704864002
21.355053007638297,35.18729987769211,144.63958931365227,111.24814161082185,57.23665122313548,164.87305566769575,23.69551040456105
21.396015644737005,36.10471706602714,144.27924001733422,115.33616974190154,56.566928948848776,162.5460134021279,23.621962973649
21.43230456380146,37.0765475779442,143.89732072692408,119.54124907963906,55.939576094230006,160.24381274953984,23.53663790781871
21.46385531317908,38.101473585899626,143.49394619698253,123.86149072982279,55.35449792426941,157.9709825762825,23.43997037070186
21.490632768344685,39.17779555008486,143.0692899437409,128.29413613873527,54.81151596134563,155.73180161742764,23.332455998875332
21.512624798597695,40.303535318655086,142.62356919416,132.83549917104315,54.310390750536,153.53034185815284,23.214642291008264
21.529834858781417,41.47650784171642,142.1570255872756,137.48093057384798,53.85081671826203,151.3704656009158,23.087121125237488
21.54228654567315,42.6943202515209,141.66996214966593,142.22481865732667,53.432395486966634,149.2557756209142,22.950516851752894
21.55003740912831,43.95433351048397,141.16283804047916,147.06065459620018,53.054619110839134,147.18956606744837,22.805472828969144
21.553186224129863,45.253640580470474,140.63632910005992,151.98112316042253,52.71687237673004,145.17481805863468,22.652642304417125
21.551867440578384,46.58908390154185,140.0912974295049,156.9781360314527,52.4184361173347,143.2142407971752,22.492684596832767
21.54624470185904,47.95729270530492,139.52873185516884,162.04279731211676,52.15848057830654,141.310314444346,22.326261718738287
21.536516676356495,49.354702635741056,138.94973821607678,167.16537309499643,51.93606593911448,139.46530181235474,22.154031333090547
21.5229311616803,50.777554026618745,138.35556205986524,172.3353395697537,51.75016489883408,137.6812377423983,21.976640481108074
21.505789651547726,52.22191159298967,137.7475757322805,177.54151203615658,51.59968591741876,135.9599164143703,21.79473032608178
21.485433816981875,53.68373948555908,137.12721696714945,182.77216613366807,51.48346851137792,134.30288748542318,21.60895289487165
21.462223101205872,55.15900622698828,136.49591879619288,188.01508788955394,51.400258637288744,132.7114578939648,21.419985359027066
21.43651545053053,56.64376736151555,135.85506540039455,193.25759685165002,51.34869817829875,131.18668704420878,21.228528460853756
21.408655001279286,58.13420710722509,135.2059886070768,198.4866063915886,51.327346307504975,129.729370219097,21.035291433865996
21.378963502764112,59.62665610444904,134.5499884213344,203.68872904702727,51.334711583757304,128.34001099715258,20.8409756099574
21.34773130293549,61.11762113567059,133.8883344827536,208.85039059622906,51.36926336024912,127.0187911275202,20.6462667039938
21.315208705829125,62.60384839198294,133.22223120865547,213.95791769490756,51.42942402879611,125.76556123089746,20.45183565971466
21.28160310219587,64.08238117676737,132.55276966067126,218.99760568931728,51.51356237762839,124.57986481656695,20.25833860366296
21.24708428643375,65.5505566117707,131.88090106487508,223.95579787613056,51.61998890168282,123.46097947754664,20.066409292424844
21.211791791514788,67.00595337276896,131.20747285172797,228.8189874990652,51.74694425081894,122.40796053227169,19.876648679867213
21.175836458456672,68.44634261783776,130.53332799522124,233.57393357969582,51.89258973456704,121.41969341423675,19.68962451170918
21.139299736925746,69.86965827353455,129.85938258089752,238.20778726718527,52.05501823652818,120.49495500564812,19.505891163909634
21.102247822987092,71.27398195389732,129.18661032487796,242.70821402397556,52.232284844308644,119.63246517392365,19.32602034978685
21.064772954595384,72.65756208665513,128.51596960801075,247.06348186370494,52.42243296322569,118.83092362680885,19.15061749075044
21.027044311962154,74.01886443726676,127.8483475570803,251.2625289183729,52.62349917309875,118.08903495834977,18.98031303160998
20.989333935989215,75.35659629507941,127.18455630382333,255.29503240865418,52.83350953339692,117.40550222174834,18.815741257099155
20.952010431646404,76.66969175439343,126.52536245979414,259.1514454764597,53.05048679713751,116.77899602747414,18.65752035316188
20.91552355999063,77.95733637816721,125.87150392791379,262.8230054754457,53.2724652625094,116.20815055869402,18.50623653702822
20.880392930185774,79.21905566877382,125.22369160551933,266.3017615228878,53.49749609411444,115.69159155429172,18.362430039595896
20.847192695608726,80.45477029681234,124.58263269010462,269.5806040186548,53.72363833988751,115.22793968415601,18.226582739318435
20.816528170691672,81.66475999109304,123.94906398438077,272.65329193410497,53.948949341351096,114.81576606106566,18.0991118712064
20.789021507123095,82.84958834343304,123.32375167905872,275.5145177286536,54.171493316328686,114.45353772578464,17.980372643364337
20.765333662614605,84.0100384420045,122.7074744028677,278.1599571786922,54.38937010809812,114.13958964163946,17.870663113811634
20.746219974902328,85.14707746282582,122.10103455156016,280.5862347569004,54.60074083533173,113.87212103781395,17.770222476112078
20.732570865085993,86.26185491048226,121.50527739378592,282.7908624958916,54.80383351465544,113.6491971277224,17.679224180830897
20.725399955783327,87.35570551028533,120.92106722669726,284.7722196090215,54.99695011338069,113.46874753060376,17.597773145864515
20.72579769701253,88.43015586434414,120.34922749388616,286.5295299766444,55.17850536206079,113.3285589909179,17.525913319935864
20.734898821647114,89.4869729017594,119.79049020322846,288.06279237674255,55.3470823415825,113.22625946996887,17.463650923280223
20.75390094850991,90.52822424349777,119.24547339671561,289.37270928286324,55.50145773479827,113.1592997965165,17.411006468313136
20.784121473519303,91.55627261671408,118.71467118104188,290.4606579196412,55.64058317528407,113.12494639021271,17.36810161100673
20.827033042752575,92.57368283844255,118.19844103121494,291.32867823974834,55.763555738215956,113.12029157241447,17.335255534236378
20.884250881413706,93.58307545665613,117.69699775053239,291.9794623729307,55.86960462641952,113.14227617489503,17.31304435173314
20.957507347531973,94.58697223054776,117.21042813173533,292.41637214078224,55.95808444588158,113.1877124481986,17.302297268671385
21.04864620731678,95.58766874730975,116.73871628186811,292.6434862884118,56.028456289423076,113.25329962184865,17.30404818179861
21.159648311027105,96.58714883357086,116.2817601060884,292.66565000426993,56.08026089380582,113.33563533733115,17.31948141633382
21.29270814902987,97.58703353327155,115.83937116501704,292.48850488794227,56.113105249825814,113.43123661324123,17.34988831376239
21.450350720936672,98.58855901182227,115.41125903088327,292.1184722164846,56.126672977498906,113.53658887711879,17.396625149139183
21.635509249817094,99.59260644990839,114.99700907784444,291.5626783307489,56.120741805079184,113.64821868192706,17.461064492708513
21.85149246126955,100.59979109407037,114.59606953799239,290.8288552564211,56.09518425444888,113.76275070008714,17.544548369249586
22.10187013537713,101.6105551993548,114.20776275977546,289.92526400160074,56.04995303819059,113.87692084822706,17.648354517758246
22.390358385116418,102.62520809794654,113.83132131462366,288.8606510091684,55.98507366295345,113.98756016356062,17.773673002787092
22.720733357542045,103.64391035100591,113.46592476809577,287.6442075697856,55.90065191290631,114.09157463012872,17.92158076177128
23.096748983897204,104.66662692798965,113.11071557242035,286.28553337036817,55.79687769827657,114.18592794324786,18.093011470852822
23.522060695645976,105.69307526213457,112.76480893795362,284.7946142788327,55.674009812796335,114.26763098622182,18.28873414551304
24.000202256378856,106.72269051940907,112.42732555259741,283.18175684812314,55.5323519483191,114.33375709406081,18.509353461213088
24.53462198735771,107.75462212337926,112.09744156504351,281.45745671883327,55.37224551017781,114.38149114686236,18.75532386812296
25.12872054654209,108.78775661154627,111.77441206432174,279.63228499092054,55.19409341739725,114.40818130388239,19.026953721226548
25.78590118545994,109.82074363892897,111.45754767967266,277.71686907398606,54.998396368096564,114.41136335172882,19.324389407888592
26.50969565031956,110.85200275311432,111.14618403417055,275.7219470039125,54.785767646512255,114.3887700323324,19.64759252689213
27.30388704819031,111.87970507948219,110.83968123837819,273.65841184985834,54.55692351694693,114.33834733416228,19.99632444922512
28.172486210983557,112.90174199691835,110.53743152646774,271.5373044104941,54.31267633786475,114.25826684231583,20.37013929073625
29.11959872967891,113.91570190845685,110.23884063480459,269.3697691975021,54.053938144640675,114.14690851782271,20.768379506415535
30.149357076272864,114.91887330534668,109.9432975734104,267.16697162314097,53.78171267576056,114.00281844134481,21.19017124365826
31.265978369213737,115.90828052534384,109.6501694853608,264.9399725004725,53.497065391756124,113.82467711397405,21.6344210632326
32.473813501497865,116.88074016393982,109.35881671510047,262.69959196513224,53.201092078465365,113.61130232575566,22.099817089546892
33.77726583752095,117.83290853484793,109.06859246071528,260.45628787657915,52.8949073616033,113.36167090467524,22.584836070368404
35.18065888300187,118.76130060839517,108.77882109258137,258.2200458856934,52.57964474310027,113.07493277507925,23.087754607468653
36.6882018870731,119.66230867473344,108.48877521762591,256.0002900305991,52.25644499849347,112.75042418025052,23.606661979078208
38.30403068581912,120.53227638798742,108.1976616997391,253.80583843036328,51.9264321231304,112.3876943161571,24.13947607024812
40.03217529780911,121.36762366919037,107.90463700480474,251.64490009979997,51.59070240049635,111.98652437537757,24.683970485220787
41.87644030149592,122.16493800522751,107.60887254607225,249.52508144641752,51.2503404681737,111.5469217001518,25.237818528549465
43.84034218864277,122.9209795592291,107.30963490124176,247.45339097830075,50.90643922765483,111.06910609504223,25.798641971321327
45.92714475083844,123.63264399435091,107.00633130315342,245.43626593081325,50.560097574378716,110.55349789400879,26.36404310197336
48.13986030685568,124.2969532009675,106.69852381124483,243.47964313282094,50.212408272628934,110.00070123838748,26.9316168618735
50.48114106323192,124.91109592255157,106.3859340293184,241.5890477489252,49.86446097456287,109.41148760856768,27.49895961530204
52.953133313233835,125.4724828998202,106.06844310811114,239.76964549543655,49.517352625361944,108.78678332408954,28.063684457158583
55.557374552161825,125.97877393287892,105.74608732370646,238.0262516340101,49.17217969559511,108.12765436932311,28.62343557716416
58.29473082009238,126.427879515214,105.419054419444,236.36332955006912,48.830008909474145,107.43529116732674,29.17589314167166
61.165318534394295,126.81795602972565,105.08768628106517,234.78498978344447,48.491843932139155,106.71100235531569,29.718772583468418
64.1683833268582,127.14738819156833,104.75248438043288,233.29498295595505,48.15860264890902,105.95622478665398,30.249829696483935
67.30217355301387,127.41476018751278,104.41411988722962,231.8966965352404,47.83110774617928,105.17255290649382,30.766876664348604
70.56385559903516,127.61884534410858,104.07345463096927,230.59321221146206,47.51008310493714,104.36177073007642,31.2678001346726
73.94948541592724,127.75862331398947,103.73154606102094,229.3874553945177,47.19614736254463,103.52586141322817,31.750569697034695
77.45402709228873,127.83329301980788,103.3896095613035,228.28233336104188,46.889813214961116,102.66698873682421,32.2132371713364
81.0714044634669,127.84226171843262,103.04897713816418,227.2807499264838,46.59151897809359,101.78745613567078,32.653934782283194
84.79457210220892,127.78512734822812,102.71109822943716,226.3855125216711,46.30169245331677,100.8896489877366,33.07087680000118
88.61558848261008,127.66166748545312,102.3775523398417,225.5992071804359,46.020800463971284,99.9759762877146,33.46236344534269
92.52571008598699,127.47182563949119,102.0500220222383,224.92413639486415,45.749358392573406,99.0488400926385,33.82678440780777
96.5155517703909,127.21569022092756,101.73022283354835,224.36237352645048,45.487932804211134,98.11064406493375,34.162624549145164
