HandOpen,HandClose,Wrist Flexion,Wrist Extension,Supination,Pronation,Rest
56.58787346836241,68.71143773569449,99.48652604540355,1.496086526761783,54.18978095233224,15.925683841533038,23.83193328571437
56.50478089788753,69.85192642278584,98.6742866765642,1.6156282812437457,53.64519168397883,15.839388252432634,23.896627532944095
56.41089881690795,71.00979862883281,97.77503151480572,1.776810277687819,53.09772509551499,15.761297175974263,23.948503800127146
56.30575413374941,72.18007116667944,96.79118434429398,1.9775150068835354,52.54935388101638,15.691115066154008,23.987401364785292
56.188909517061894,73.35762987486343,95.72542972685828,2.2156049049244118,52.001989391981866,15.628505939887082,24.01319462866297
56.059960141589514,74.53725727568573,94.58069131018651,2.48892262213206,51.45746969551148,15.573101351517574,24.025790787447125
55.918520589657874,75.7136878916838,93.36011073462782,2.7952881757368857,50.917541994870334,15.524512235532782,24.025134238480703
55.7642119480444,76.8816657956451,92.06702046124049,3.1325010120804255,50.38386068327804,15.482337635642585,24.011210153608783
55.596658656757405,78.03597434430887,90.70491751706966,3.4983461308742294,49.85800092196625,15.446165888625105,23.98404185916431
55.41549339682722,79.17144030331637,89.27744995875965,3.8905984948366905,49.34146340548942,15.415571278966615,23.943688726369086
55.22036129565454,80.28293167846572,87.78841368504432,4.307022528217366,48.83565697268156,15.390111283441293,23.89025111599937
55.010918100093534,81.36536012587534,86.24174339643996,4.74536933052815,48.34187052434013,15.369327222984088,23.823878108462523
54.78682780697298,82.41369212847604,84.64149176112456,5.203375960923325,47.861248159860665,15.352747988107598,23.74477095590012
54.547773445470675,83.42297773479648,82.9918121966817,5.678769501096472,47.39476965752554,15.33989366464744,23.653180623818404
54.293483002764155,84.38840030405652,81.29695765210406,6.169275446241397,46.943234039189555,15.330276604422696,23.549401986884007
54.023750024190925,85.30532797637983,79.56128313975822,6.67262618143226,46.507248811756355,15.32340096039629,23.433768325188126
53.738432391720195,86.16934319244622,77.78923422829959,7.186567425414097,46.0872385564741,15.31876290075354,23.306648418399405
53.437438408571275,86.9762494369555,75.98532537490716,7.708866763747737,45.683489758619075,15.315852214421025,23.16844522480579
53.12071708416772,87.72206887031848,74.15412472547185,8.237326640912947,45.29622032981038,15.314154509825158,23.019592312283105
52.78825564665179,88.40304283669661,72.30024734172864,8.769796612630628,44.92563058571085,15.313153072323074,22.860546039257546
52.44007647344543,89.01564402403015,70.42834449885042,9.304179803751229,44.571915699314424,15.312330705015537,22.69177789112426
52.07622910987689,89.55659976157446,68.54308960428635,9.838434957655647,44.235269211368326,15.311172357922613,22.51377476688859
51.69678260066546,90.02291267152724,66.64917154443333,10.370577856269637,43.91590432972302,15.309168508818654,22.327047611648613
51.301828895528054,90.41186839019396,64.7512887174172,10.898684391396687,43.61407550735288,15.305818707220793,22.132137728759776
50.891504280267576,90.72103503862913,62.85412849678976,11.42089562538158,43.33007271717461,15.30063438841284,21.929613048751044
50.46602319076239,90.9482623258137,60.96233687815857,11.935422908616054,43.06419497170888,15.29314064468862,21.72006068822803
50.02570830694274,91.09168224794604,59.08050296648261,12.440551198019827,42.816728864956026,15.282878203915196,21.504086318705145
49.571004086144875,91.14970929158423,57.21316937471829,12.934641931212616,42.58793767602313,15.269407305846274,21.28232014416982
49.102477205639374,91.12103734840947,55.364844604572745,13.416138729957579,42.3780456180424,15.252313056993867,21.05541945122836
48.62081455493422,91.00463436301229,53.53999471866237,13.883576649437046,42.187210985426645,15.231208775820559,20.824061765307004
48.1268172159154,90.7997411316119,51.743018907168576,14.33559060869152,42.01550201204375,15.205734784323807,20.588934205969753
47.621384899464566,90.50588062128176,49.97821451214813,14.770917683551911,41.86288845243489,15.175555254478775,20.35072869227023
47.105495848275424,90.1228744033486,48.249733438198156,15.188393493293285,41.729241639636015,15.14035825331872,20.110144411092552
46.580188830153816,89.65085256978895,46.56154580575512,15.586948120035673,41.61432680766347,15.09986041844456,19.867888957584576
46.04654881665684,89.09025232823386,44.91742532370765,15.965606685505394,41.517789354920545,15.05381219949518,19.62467129481748
45.50569556486297,88.44182117104494,43.3209458986615,16.32349475373457,41.43915671155562,15.0019996549594,19.38119002823813
44.95877212114336,87.70663626994218,41.77546841803377,16.65984372811553,41.377866982862,14.944243515356463,19.13812603509078
44.40693515734894,86.88612328849972,40.28411587671154,16.97399256101161,41.333303740306114,14.88039817214635,18.896144048357257
43.851353275603934,85.98205261524167,38.849750487312036,17.265386621637884,41.30481023631358,14.810351680825177,18.655898258568595
43.293207994830674,84.99651562895646,37.47495835435533,17.53357513749917,41.291687985451354,14.734026293277656,18.41803308947021
42.7336850691852,83.9319006868443,36.16203641211482,17.778207576778296,41.2932040614205,14.651378300073567,18.183176077393206
42.17395639481715,82.79088491945855,34.912977285786994,17.999029696599354,41.30860881539541,14.562396740314343,17.951927131698753
41.61516589650993,81.57643842454671,33.72945523201006,18.195879584505025,41.33714178768312,14.467102127224216,17.724851534193913
41.0584287768102,80.29181997032654,32.61282291546054,18.368685990862115,41.37801884537336,14.365546667451792,17.502481133941913
40.50483692689368,78.94055488444712,31.56412328451976,18.517475655410298,41.43042228345609,14.257816068655995,17.285319511096557
39.95545625063307,77.52640977713585,30.584104187231123,18.642389779428605,41.493510639058705,14.1440308148694,17.073842170955743
39.411314033658456,76.0533757172692,29.673220582068875,18.743695503176127,41.56643350612468,14.02434464458717,16.868490113603386
38.873390862172876,74.52565065400385,28.831627512415285,18.821781463465904,41.64833044262372,13.898941276099736,16.669665301266317
38.342631832238155,72.94760939636053,28.059180964020193,18.877142743565148,41.73832548478563,13.768033243621817,16.477733866701165
37.819969228476346,71.3237643120496,27.355454083378824,18.91036489668603,41.835547321483084,13.631864334417143,16.293030590850073
37.306331110347955,69.6587287300578,26.71975725272679,18.92211172511879,41.93917277468304,13.490711766037073,16.115856500043243
36.80262601964288,67.957192674544,26.151151065458674,18.913117735200483,42.04845438223985,13.344884006490306,15.946472128557568
36.30972022734285,66.22390897381403,25.64845489098679,18.884182420384477,42.16270914443405,13.194716793125508,15.785097137421065
35.82842676258687,64.4636761950436,25.21025966574526,18.836164153802258,42.28128575246301,13.040575425879213,15.631925441173196
35.35950711015289,62.68131134392737,24.83495864457464,18.76998068710418,42.40353987797889,12.882865881918555,15.487150291925406
34.90367077748361,60.88162139474951,24.520802097382454,18.68662332972037,42.52883179780426,12.722045152301218,15.350979696203892
34.46156367368882,59.06938353360478,24.26595165665157,18.587173531790828,42.656535540564505,12.558621614230725,15.223634428201859
34.033752878936276,57.24933067256683,24.068506458070587,18.472803534785896,42.78603833291469,12.393148270233585,15.105344161204616
33.620718674892814,55.42613230745665,23.92650995518983,18.34476062073925,42.91672687322533,12.226216170893286,14.99635414979411
33.22285500873804,53.60436962527693,23.837960970459317,18.204349503641865,43.047972605382526,12.058450339303953,14.896932378929458
32.84047540836652,51.78851465667214,23.800827147185068,18.052923156078226,43.1791209540462,11.89050517410961,14.807362979331103
32.47382438433617,49.982921417325066,23.813044227452156,17.891878550403714,43.30948079795292,11.723055659103924,14.727929328236664
32.12309302013671,48.19182408200015,23.87250128990009,17.722646911022178,43.438313859472856,11.556784986114929,14.658901469646969
31.788433134063457,46.4193288206972,23.977027488689618,17.546675239061482,43.56483147795851,11.392372547526918,14.600533912222335
31.469962463796055,44.66939379087425,24.124387689479878,17.365404898966464,43.688210010908236,11.23048553316341,14.553064894624232
31.167756766808296,42.945806024976136,24.312280029332154,17.180253285501635,43.8076228586689,11.071775903134679,14.516708198560314
30.88183331183373,41.25216635546999,24.538330630872675,16.992600198868217,43.922265352415096,10.91688151705152,14.491643097521257
30.61213635683428,39.591882955089254,24.800093415399886,16.80377639735931,44.03135551915682,10.766425340665322,14.478015573233655
30.35853635541385,37.96816488853448,25.095063305429797,16.61505156047428,44.13412571883231,10.621008617488316,14.475952108546654
30.120844785142257,36.384010021531836,25.420696878379093,16.4276241670644,44.22983096176022,10.48120221043585,14.485570236209623
29.89882838807475,34.84219118675812,25.774426810293843,16.242618288288245,44.31777381244214,10.347541618451402,14.50697325216879
29.6922083754915,33.34524898584072,26.153664069279515,16.061086519120263,44.397320030616264,10.22052468692538,14.540235352285821
29.50065162360119,31.895494577315578,26.555793437761064,15.884012483463387,44.46789171910227,10.100608324330985,14.585390881660201
29.32376841282267,30.495015940812376,26.9781738119785,15.712308104423839,44.528955068214586,9.98820367518279,14.642431904087369
29.161118322250903,29.14567831904856,27.41814807101177,15.546806688394044,44.580020405816214,9.883672448316377,14.711306687617334
29.012214074742914,27.84911894208604,27.87305311714481,15.38825655429218,44.6206478023457,9.787328347193345,14.791912375135222
28.876516665207394,26.606747740428617,28.340221053732684,15.237318527724035,44.65044259913642,9.69944388848272,14.884085395407924
28.753427189009926,25.419763498747756,28.81697674145686,15.09456574974581,44.66904304200432,9.620256107519126,14.987598254266185
28.642285817339317,24.289176768544447,29.30064068173732,14.960482331557063,44.676123068062694,9.5499658607335,15.10216531614808
28.542380228959892,23.215821894289125,29.78853685353498,14.83546048667259,44.67142701403799,9.488732887409835,15.227449795447829
28.45295437838893,22.200355313304147,30.277999959590648,14.719799799074089,44.654816016666054,9.436670644593363,15.36306355169734
28.373210145429198,21.24325160326821,30.76638189335632,14.613715232488415,44.62628699949515,9.39384271359228,15.508561623930289
28.30230552109017,20.3448034447305,31.251064182887443,14.51735572328235,44.58596109022939,9.360261140646564,15.663438330417954
28.239355357101864,19.505121265472297,31.72948099131437,14.430822064634704,44.53408140749895,9.335885758735524,15.827126693699599
28.183434545229023,18.724129126695264,32.1991457729426,14.354171749770401,44.471043701518845,9.320624780858603,15.99899851064613
28.13358144221919,18.00156021502047,32.657668007109734,14.287413123943386,44.39742830191017,9.314339722303776,16.17836327802016
28.088802729587247,17.33695917207802,33.10275599120629,14.230498137502519,44.31399294708196,9.316854899656684,16.364467109923947
28.04808105538424,16.729697044874577,33.53221592332625,14.183317799839108,44.2216340045345,9.32796552695913,16.55649420322066
28.01038216952419,16.1789938653831,33.9439592068508,14.145700796596577,44.12135056203165,9.347439141561404,16.753571403634492
27.974659684156567,15.683933532852143,34.336017944904405,14.117414782603253,44.01422191456002,9.375012272129393,16.954773017551847
27.93986436406333,15.243464170841007,34.7065599031638,14.098169093685716,43.90138218311623,9.410387790180964,17.159123803849635
27.904962948534056,14.856392866991497,35.05390690994779,14.087621344479988,43.783982119465314,9.453235618243987,17.36560309411867
27.868958076904406,14.521383938599703,35.37657080554127,14.08539160937882,43.66315136649688,9.503195668002977,17.573157026149346
27.8309007736721,14.236961363544179,35.67329657245201,14.09107825545272,43.53998178002562,9.55988042307781,17.78072361975259
27.789899061315644,14.001514203762119,35.9430809919886,14.104264721920684,43.415531753457465,9.62287682122612,17.987263196857768
27.74512594168808,13.813305770642131,36.18515710825596,14.124517058736265,43.2908271590247,9.691752714922517,18.191777340561785
27.69582194753937,13.670486802089085,36.39896399204335,14.151380633248573,43.166845022279745,9.766073346764529,18.393310308894982
27.641289659915888,13.571112655090555,36.58412300915363,14.184379909286054,43.044500736782645,9.845421790986862,18.590946388343472
27.580884170634267,13.513162536040216,36.740427782307975,14.22301806988836,42.9246641396883,9.929409939572277,18.783823062718906
27.514004172567418,13.494554229624953,36.86783993545853,14.266774395047403,42.80819195469827,10.017676547181502,18.97116332656896
27.4400853307428,13.513150819242883,36.96647796790952,14.31510368990118,42.6959392790057,10.109880282240027,19.152304978263455
27.358595624112876,13.566765340316389,37.03659880785487,14.367442722061025,42.58873883630208,10.205693825460344,19.32670571127105
27.26903277951702,13.653171092819067,37.07858319275351,14.423221220703729,42.4873752637977,10.304798384128938,19.49392853028164
27.170926973718938,13.770116905170552,37.09292850069113,14.48186993292605,42.3925823523045,10.406877157980881,19.6536245463081
27.063856032018393,13.915339089495223,37.08023940697842,14.542821959170347,42.305057460638714,10.51160915978705,19.805521581309264
26.947472821814955,14.086565021253657,37.04120990958224,14.605510495372926,42.225464244285256,10.618665889903856,19.94941481009169
26.821527153038417,14.281513696670483,36.97660313037933,14.66936993267621,42.154415109834204,10.727712586119106,20.085153355000966
26.68586728178178,14.497904188639058,36.88723905148376,14.7338453834711,42.0924597968581,10.838413474985227,20.212624586042466
26.540427218782778,14.733474942235285,36.77399089998092,14.79840743379244,42.040099639898685,10.950436959722538,20.33174329816457
26.385211937517322,14.98600242424124,36.63777978089511,14.862562361723851,41.997806175322594,11.063457152550543,20.442448833763443
26.220283771354843,15.25330730966424,36.47956303155848,14.925852633688713,41.96601738263468,11.177154162795249,20.544705474912
26.045749562502625,15.53325245008706,36.30032950910327,14.987851739506228,41.94512685047925,11.29121851388824,20.638499793494734
25.861749828734926,15.823748553889397,36.10111328094126,15.048160170490554,41.93549675554242,11.40535871569395,20.7238348733389
25.668451766974737,16.122773799238708,35.88301334322977,15.106404827771403,41.93748571592177,11.519304635606234,20.80072938124163
25.466048327080035,16.428392827813173,35.64719736046573,15.162238522216684,41.951454557437366,11.632803714527286,20.86923102094861
25.254766827241056,16.73876025550285,35.394884877468144,15.215337245779665,41.977739984752866,11.745614246684713,20.92943996337766
25.03488732326584,17.0521148448703,35.127323054681106,15.265402024966384,42.01662297705352,11.85749949704717,20.981522478611556
24.806761908377144,17.366781571452265,34.845769119889745,15.312178812351977,42.06831825667331,11.968223020477254,21.025704747783298
24.570822694439855,17.681186700659993,34.551483164946376,15.355496082973058,42.13298092691162,12.0775445161423,21.062258257514046
24.32757719765708,17.99387193086778,34.24572297065883,15.395295002040688,42.210704989272955,12.185215939381143,21.091490984570367
24.077600872236157,18.303493650211458,33.92973295892254,15.431631074515353,42.30150272888188,12.29097859195351,21.113745311199875
23.821530874491504,18.608811481291887,33.604730958007124,15.464655343381965,42.405281798941175,12.394563253831468,21.129393573275067
23.560055438190172,18.908680820541083,33.271903015831306,15.494595504198317,42.521839764687755,12.495695391457977,21.138826976474157
23.29389639462863,19.202056027530716,32.932408383103045,15.521746943419545,42.65087297943031,12.594104163581992,21.142446982504527
23.02378959787973,19.48799542031753,32.587386464147976,15.546468972319756,42.79198060074847,12.689530042286407,21.140668586520476
22.75046801040147,19.765657028999257,32.237965765551245,15.569174997514695,42.944658866023936,12.781726972048325,21.133928337290918
22.47464859289331,20.034287358441187,31.885281992908126,15.590312701795602,43.10829996698415,12.870460708032791,21.122682103637658
22.1970218477695,20.29321284688807,31.530495650225024,15.6103417888178,43.282199839314075,12.955508397532556,21.107390416590512
21.918243176980674,20.5418374165281,31.17479178533881,15.629719583432923,43.465561036649596,13.03666121360177,21.088502713653845
21.638929136487064,20.779640656738522,30.81936225016744,15.648897075244795,43.657483824693514,13.113726721723154,21.06645138901575
21.35966548506938,21.00617014310892,30.46538248005296,15.668317858743546,43.856959069555316,13.186528272759608,21.041655579866248
21.081027020626365,21.2210297404576,30.113989735345434,15.688411595480956,44.062881150267266,13.25490346283342,21.014524166207043
20.803595023255713,21.423874142965676,29.766263868189018,15.709581632299056,44.274078346815244,13.318706726684642,20.985450626875846
20.52795926821353,21.614416014310457,29.423213489381517,15.732194446858932,44.489336218066825,13.377819984919418,20.95480432261456
20.25470750980075,21.79243728330224,29.08577372577093,15.756582167393873,44.70740275466897,13.432167347823352,20.92292620646195
19.984413297031107,21.95779003504574,28.75481459516764,15.78305952685342,44.926997473779636,13.481722537571798,20.890129325197822
19.717629268095838,22.110385180731637,28.431148449254792,15.811939164717158,45.146844223274904,13.526504229132877,20.856698773639334
19.45488598025691,22.25018105300676,28.11552923596966,15.843531485904693,45.36570939155545,13.566566712727031,20.82289257612572
19.19669121565992,22.377181309394086,27.808646614224468,15.878133260875272,45.582414747119074,13.6019944480619,20.7889518539302
18.94352603333741,22.491437857540603,27.511117768539787,15.916014552833241,45.79582527556624,13.63290094177602,20.755117717415633
18.695839460122137,22.593048441803482,27.223477676760393,15.957407238695476,46.00484038744594,13.659426267112307,20.721639930808394
18.45404677984091,22.682147436483177,26.946172682873787,16.00249520362155,46.208406048713634,13.681729834357812,20.68877056560149
18.218532698757844,22.7588996169422,26.679564397580226,16.05140761024596,46.40553212420346,13.699981151159484,20.656751054290638
17.98965438457653,22.82350402131073,26.4239431082616,16.104218234741122,46.59529212028314,13.714353154656141,20.625805597229245
17.767739349366796,22.87620120255993,26.17953929021807,16.160951445121174,46.776812605912504,13.72501951418201,20.596147054075377
17.553079041110568,22.91727210681793,25.94652488156692,16.221589617792716,46.94927712485641,13.73215291687785,20.56798763995604
17.34592353702922,22.947027790821668,25.725008396142638,16.286075818817274,47.11194563054123,13.735921341038287,20.54154115856615
17.14648118570415,22.965799662069504,25.51503110812136,16.35431207489932,47.26416372506266,13.736484515190282,20.51701475775261
16.954920565556833,22.973936248963078,25.316565597498077,16.426162108926828,47.405347789634654,13.733995334554741,20.49460121356771
16.771369591829174,22.971802355159042,25.129514286971997,16.501469488811306,47.53496379522838,13.728606112588354,20.4744827529887
16.595911398844937,22.959776495325247,24.95370685381652,16.5800873743377,47.65252608379814,13.72047311247013,20.456843141816016
16.42858041194379,22.938255206727778,24.78889969236909,16.661898370431324,47.75761826390341,13.70975430609219,20.441871940573552
16.269360721624498,22.907677614774276,24.634784180555943,16.746811571771275,47.84991020614974,13.696602723471587,20.429753208083
16.118186280745814,22.86856304336384,24.49100422344986,16.83474684021129,47.929151989069645,13.681160520778935,20.420649970121083
15.974942096838019,22.82153317506313,24.35717190651358,16.925622335839567,47.99515949931049,13.663556050873872,20.414700008195357
15.839468027456943,22.76730333824622,24.232873111873747,17.019350345052636,48.04781264539561,13.6439034487228,20.412023823152392
15.71156806527329,22.706655125231748,24.117668671655366,17.115834684480888,48.08705883381732,13.62230280059471,20.412730491021936
15.591023841564137,22.640409597059243,24.01109866500184,17.214962682651503,48.1129030210166,13.598839040401419,20.416911954114184
15.477605806981146,22.569411796977537,23.912688561914457,17.31659520440591,48.1253858558557,13.573580113083853,20.424631915802117
15.371076917677101,22.49452471188996,23.82195165043951,17.420564360022894,48.12457304029843,13.54657743292802,20.435917325757543
15.27119055803981,22.416620712333177,23.738385573741624,17.526680947515853,48.11057973012448,13.517870254091548,20.450751899731006
15.177690851332397,22.336564276995535,23.66146551060946,17.634741748142964,48.08362073543355,13.487491002420898,20.469069162684985
15.090322778512062,22.25519519906491,23.590639655298695,17.744528202538746,48.04404258959933,13.455467648868668,20.490746774251967
15.008848227197971,22.17332357903666,23.525332118248528,17.855802163031882,47.992317759626715,13.421823225176166,20.51560937678532
14.933055748439937,22.09173371185224,23.46495160665742,17.96831249562897,47.92903132951764,13.386575593771122,20.54344896669045
14.862759292714054,22.01118378753313,23.40889834266335,18.081815853378775,47.85488329315328,13.349740142356652,20.574057614692517
14.797791740073214,21.932396221574777,23.35656484915403,18.19609618748713,47.77068661040354,13.311334819674368,20.607250053331843
14.737999558888308,21.85604877670289,23.307334727055082,18.310966748578398,47.67733976302176,13.271383334128785,20.642863898951667
14.683240093113755,21.782779365942105,23.260590270980178,18.42625719738754,47.57578888644684,13.22991340592902,20.680748501005393
14.633378732470073,21.713200999002957,23.215734087291406,18.54179907243956,47.46701000701066,13.186951957589997,20.72075499013381
14.58828318894942,21.64790768055858,23.172211598093618,18.657415598753797,47.352015920489734,13.142521818983761,20.76272802876703
14.547816462188955,21.58746144215954,23.129518678298428,18.772913075251264,47.23185969496623,13.096641762811485,20.80649708290801
14.511833335671545,21.53237193541851,23.08720037110665,18.888071839581045,47.107613209224695,13.049327096719487,20.851870597109272
14.480182535848556,21.483085514060914,23.044858144960973,19.00263939183265,46.980332817059214,13.000587726120804,20.89863930596485
14.452709693388028,21.439987716337445,23.002166378529694,19.116328024539477,46.85103337191445,12.95042378920711,20.94659048742381
14.429255228012039,21.403407074480988,22.958880716806256,19.228815007970937,46.72067157773052,12.898820890949478,20.99552467315602
14.409649356801069,21.373608614244173,22.914828059228423,19.339741393439557,46.59012726120636,12.845747144538942,21.04526173889333
14.39371243993419,21.350780737537857,22.86988599981538,19.44870895683489,46.46018008743623,12.791153117050401,21.09563522685305
14.381263751156599,21.335027571376976,22.82396386104914,19.555278856362577,46.33149239528724,12.734973898565242,21.146488933857512
14.372130879953033,21.326371954728387,22.77698980684873,19.658974758082863,46.20460880725799,12.677132482263987,21.197686637411095
14.366152166241182,21.324763346776813,22.728901508316202,19.75929096973995,46.07996720529395,12.617544442202446,21.249127747709867
14.363176916472513,21.330083190655944,22.679637434651337,19.855704843071397,45.95790372420666,12.556122651556084,21.300752859698953
14.36307096966294,21.34214628501975,22.629130980160888,19.947689367512982,45.838645833672885,12.492779926960083,21.35253455858808
14.365723400095106,21.360701386721807,22.577313788206496,20.03472058149419,45.72230635682625,12.42742899098629,21.40446376727934
14.37104479977943,21.38543382644418,22.524129773519206,20.116280238871965,45.60889133984082,12.359980794037318,21.45654256220326
14.37895653330897,21.415968446254027,22.469549219357038,20.19186039592742,45.49831649214533,12.29034397173246,21.508782655241806
14.38937876468334,21.451869849141605,22.413570067275767,20.26097288181039,45.39041540370149,12.21842944252113,21.561200530481134
14.402225280246371,21.492642698549567,22.35620816176195,20.323157444595495,45.28493680616756,12.144160202324622,21.613805737968438
14.41740801970755,21.53773971713347,22.297491495801076,20.377983250805407,45.181549558976165,12.067480031627513,21.666587341712727
14.434845390617637,21.586579014670864,22.237467284791236,20.42504736267293,45.07986802587433,11.988355995948988,21.719503461218242
14.454464311198807,21.638560114727586,22.176212726042117,20.463976048018942,44.979481933112446,11.90677635519151,21.772475187442264
14.476193571726514,21.693068659449676,22.11383689600031,20.49442945115985,44.87996746475656,11.822748126650914,21.82538408836973
14.499956321407824,21.749475079312678,22.05047710114017,20.516105522717627,44.78088288017759,11.736296555545787,21.878071656131926
14.525670376318766,21.80714180367236,21.9863014233438,20.528739868675245,44.68177327379596,11.64746586140812,21.930339859562704
14.553255723484918,21.865443571137295,21.921517314877427,20.532102520212288,44.58219343463342,11.556318825441888,21.98195453717718
14.582639911108988,21.923787112479,21.85637422968444,20.525995070962313,44.48172788281648,11.46293433527144,22.032653263447553
14.613755925444648,21.98161574523629,21.79115370406077,20.51024990677738,44.37998982006187,11.367405588377487,22.082153383735392
14.64653870729449,22.038403857766152,21.726153252014605,20.484730055417188,44.27661126985851,11.269841418456114,22.13015344646452
14.680929958627727,22.093657848114667,21.661675217780637,20.44932871293269,44.17124934539257,11.170368501324349,22.17632925755939
14.716890432150011,22.14692744249538,21.59802418653233,20.4039748547828,44.06361096559792,11.06913069586398,22.220335945091147
14.754407391778964,22.197813477153275,21.535505047993382,20.348657079587117,43.953470347035704,10.966285628954052,22.261827787697335
14.793489711553665,22.24596205966392,21.47441362851038,20.283463193519022,43.84066100325931,10.86200150829118,22.300490708390207
14.83415782232597,22.29105296683379,21.415022507431285,20.208609484598192,43.72505799241616,10.756456596743112,22.33606460124971
14.876440041648966,22.332796791325638,21.35757440615204,20.12444033725751,43.60658009790941,10.649841255832081,22.368342971621892
14.920376467741482,22.370944672953904,21.30229718973173,20.031407425143435,43.48521644639572,10.542359997425269,22.39716457850455
14.966021109257287,22.405298753011564,21.249436778117417,19.930050076936233,43.36104841841892,10.434231586035866,22.422418690411124
15.013436156745447,22.435710668532018,21.199281035141322,19.820991319984532,43.23424299134172,10.32568765872879,22.444063741241962
15.062682774100766,22.462071351499613,21.15215712451563,19.70494599638521,43.105031045761415,10.216970677325188,22.4621382394262
15.113815845313468,22.484305791096556,21.108414374395103,19.582721807934636,42.97369793953153,10.108330808747468,22.476752618789952
15.166883535473357,22.50237718699383,21.06841020000499,19.455202392615583,42.84058770897031,10.00002169676658,22.488073587432083
15.221925243221474,22.51628917924304,21.032500372357777,19.323321338906332,42.706100234441806,9.892296608300423,22.49631299119906
15.278965442221418,22.526076411662693,21.001026496196786,19.18804055032053,42.57067708824526,9.785406838491665,22.501718745819023
15.3380120076307,22.5317895029854,20.97429967527714,19.050336134032833,42.43479647249426,9.679604684773857,22.504561346885325
15.399066775026805,22.53348707831709,20.952585709653533,18.911185214316603,42.29898494162509,9.575151570604987,22.50511562738445
15.46214115777913,22.53123816387676,20.936095635509187,18.771548283167764,42.16382385468026,9.472325464338898,22.503644501413746
15.527261792131819,22.52512554002528,20.924981385007317,18.63234955917637,42.02993102241537,9.371420248199188,22.50039775386894
15.594462238751282,22.51524113851628,20.919333727916744,18.494459865998174,41.897927654762185,9.27273755014681,22.495632337070155
15.663770753764387,22.501677456310315,20.919179195357877,18.358683250906168,41.76841675054956,9.176577556820337,22.489637380188668
15.735204279562717,22.48452534627322,20.924478595876923,18.225747206248,41.64198257488129,9.083234019539251,22.48274034868987
15.808769118466957,22.4638796235975,20.93513775533594,18.096296465716282,41.51919286516692,8.99299316999813,22.475294000071568
15.884461237863217,22.439842687313188,20.951033781975976,17.97088962117954,41.400585350305846,8.906131508302929,22.46766126024889
15.96226140715404,22.4125203565446,20.972040565201855,17.849998306647215,41.28664821630958,8.822909729417958,22.460206769740772
16.04212919914392,22.382017649214088,20.998036816704754,17.73401045971928,41.177820646767564,8.743565912409736,22.453289405946748
16.124004046625203,22.348442709204154,21.028901204976385,17.623237330084606,41.074521268632346,8.668312167728281,22.447249908297355
16.207814496310217,22.31191338111372,21.064508009412453,17.51791969748651,40.977178146796085,8.597336348531034,22.442398796248167
16.293486419136656,22.272555527540344,21.104725042764365,17.418229471471943,40.886230773874104,8.530806931113094,22.43901464364858
16.38094399965765,22.230492461526158,21.149407110675725,17.324267558995803,40.80211129992895,8.468876343378675,22.437351534044314
16.470110773648223,22.18583503435145,21.198383664640616,17.236061231942653,40.72523472324813,8.411679861328967,22.437641707416862
16.56091853805425,22.138681786991032,21.251448874929906,17.153562970471217,40.656004143989485,8.359332271650038,22.440086128089632
16.653317914120635,22.089128675603327,21.308368789790645,17.07665128974563,40.59480885006391,8.311926980990576,22.444842293899864
16.747278815110946,22.037277231269815,21.36891398409642,17.005135013371618,40.54200453576161,8.26953918342203,22.45202128775642
16.8427789921536,21.9832331656472,21.432900372573993,16.938762258875535,40.49789460671626,8.232229317402606,22.461693822871435
16.9397881930133,21.927101123108965,21.500206938648514,16.87723169181642,40.46273007034376,8.200043051885464,22.47389449016734
17.038255939081523,21.86898869714287,21.57076286909231,16.820202514760876,40.43671637854065,8.173009262649082,22.488617596891785
17.138106153961477,21.809022934290425,21.64452289296284,16.767302215970393,40.420006501200206,8.151139937096415,22.50580978138845
17.23923534589158,21.747364252165813,21.72144721645014,16.718131721669852,40.41268401682245,8.134432750983574,22.525367628336276
17.341509156121106,21.684205772136796,21.801487864862505,16.67226797472188,40.414760489023266,8.122872813104996,22.54714109046605
17.444756999636095,21.61977222176499,21.884575772195795,16.629266980770694,40.42619544653105,8.116431138443387,22.570936636339862
17.54876989526692,21.5543422797889,21.970605490895704,16.588670198694334,40.44691528034577,8.115062657455413,22.596516519531946
17.653307079421566,21.488289978365245,22.059422069245027,16.550011548785037,40.476809023758896,8.118709311836634,22.623598473707606
17.7581095779813,21.422110467503863,22.150817574117397,16.51282049484229,40.515713369308145,8.12730982872773,22.651862047437408
17.862910851255695,21.356409793650126,22.244537102549426,16.476621756064947,40.56341426942228,8.140809491310483,22.68096016304308
17.967439194185427,21.29187495582236,22.34028558744762,16.440935141639542,40.6196668355547,8.15916187089317,22.710527330190747
18.071417984890786,21.22924858801925,22.437733154647848,16.40527659745137,40.684207516380475,8.182323009450158,22.74018082231611
18.17457109318832,21.169313732447943,22.53653007974245,16.369159572016144,40.75674421756881,8.210244143469733,22.769523298453674
18.276630925282962,21.112877837321083,22.6363374636478,16.33209691357603,40.836942172619445,8.242866214710027,22.798158365150424
18.377340763058765,21.060748225593784,22.73685881253371,16.293605354624795,40.9244274999013,8.280115813245786,22.825715755658827
18.47644861652011,21.013706422506967,22.837851854399865,16.253215022017393,41.0188027450973,8.321901972114821,22.8518669718223
18.573696976415086,20.972493239624825,22.939120716214926,16.210485318833083,41.119650983657074,8.368113464112641,22.876320919791908
18.668814298390163,20.937803996866673,23.04050705990641,16.16502421753174,41.22652066971062,8.4186165812034,22.898812474905384
18.761511467387,20.91028196847559,23.141889831758334,16.116501696777014,41.3389067413208,8.473254458134857,22.919104685275663
18.85148215400292,20.890505244566832,23.24318415874016,16.06465038956843,41.456246278341375,8.531847968449679,22.937007728836814
18.93840407494884,20.87897756635844,23.34432897590132,16.00925857031893,41.57792944738813,8.594195886911425,22.95239464422081
19.021940191401747,20.876133721409417,23.44526647070045,15.950167252577895,41.70330818282563,8.66007258631518,22.96519702924882
19.101742711512436,20.8823529833976,23.545923070883806,15.887275651522762,41.83169264655883,8.72922488122786,22.97538725252534
19.177464617278584,20.897963753338185,23.646196388269214,15.820546413129277,41.962350711283385,8.80137179088282,22.98296198430571
19.248776193048855,20.923234746661453,23.745945672446975,15.75000128909752,42.0945247494297,8.876208624156666,22.987931678549558
19.31537491422207,20.958365558502926,23.844984674851982,15.675709977074025,42.22745160880274,8.953412254513266,22.99031183992232
19.376983500468665,21.003488591557186,23.94308465374948,15.597780434081571,42.36036632556039,9.0326440554469,22.990112247483115
19.433347402113558,21.05867798114583,24.039996620292168,15.51635241743074,42.49249930244495,9.113550769135792,22.98732579731405
19.484246610856943,21.12395194195794,24.13548512742462,15.431590489265094,42.623093552846164,9.195766139550702,22.981923483291684
19.529519326366742,21.199264074033916,24.229351103290313,15.343674918545332,42.751444928171956,9.278915064127657,22.973861813605225
19.569077898167905,21.28449089068589,24.321432038190427,15.252793580605996,42.87693503672822,9.362619345087783,22.963099178163645
19.60290646220178,21.379422933924708,24.411588122579346,15.159139539787846,42.99903277002495,9.446504120247617,22.949606774800152
19.63105132203946,21.483760835297556,24.499688116678627,15.06291478981538,43.117278504265066,9.530205962403247,22.93336636097206
19.65361593743768,21.597114642620312,24.585601615652536,14.964333926973051,43.23127834805566,9.613381520154869,22.914365271952487
19.67075631570859,21.719007965379184,24.66919532702978,14.863621996334164,43.34070907474502,9.695712377026075,22.892602151961757
19.68266890462592,21.848890554038793,24.750327016799343,14.761008008473814,43.44531321731682,9.776904422808345,22.86810009471173
19.689573213045563,21.98615573937481,24.828836057507406,14.656719493860866,43.54487845257138,9.85668396295673,22.84091230309886
19.691696367609147,22.130152673688155,24.904537495046572,14.550980431683191,43.63922114787473,9.934793257085298,22.81111568892107
19.68926452189938,22.28018836219882,24.977226440159072,14.444009799743545,43.72819212329401,10.010989321273264,22.77880297522064
19.682501090470844,22.43552342957336,25.046689350713738,14.33601808316511,43.81169296580327,10.085050282968757,22.744081549369266
19.67162543828051,22.595369156848943,25.112712363827647,14.227204211936973,43.889675979736815,10.156786959367938,22.70707403692926
19.65684722738052,22.758892597219152,25.175089247927225,14.117758457415887,43.962124510184196,10.226050477208656,22.667911858090427
19.638362470186905,22.92523030484268,25.233644467399664,14.007873523900017,44.029037065942234,10.292730939057806,22.6267224843102
19.616360935972295,23.093501469907814,25.288270167277513,13.897757920054442,44.09042781012635,10.356751748321372,22.583620041178943
19.591042012226094,23.2628125389226,25.338951042375758,13.787642530945504,44.14632752766043,10.418066282067347,22.538705725600924
19.562624169048682,23.43225715710353,25.385759823079155,13.677777968734954,44.19676884469795,10.476656916494193,22.492072987453927
19.531341019259763,23.600919657106633,25.42883391013612,13.56842711999406,44.241764686356774,10.532531494275299,22.44380852666799
19.497433389278655,23.767883730668974,25.468353079417057,13.459858077911488,44.281305722845076,10.585715982534795,22.39398932162354
19.46114814123539,23.932240613811594,25.50452666624068,13.352338851496967,44.31539111469091,10.636246978215873,22.342686767147885
19.422741426979485,24.093091212269616,25.53758380541622,13.246131171980133,44.34407057503428,10.684167326063676,22.289987505064044
19.382476412316663,24.24954462908959,25.5677580565891,13.141482180468254,44.36746006962377,10.729526243823464,22.236021794294338
19.340612723118678,24.400723696413305,25.595267307936254,13.03861657150155,44.385728338143494,10.772383386504957,22.1809770300974
19.297394193744704,24.54578332283196,25.620296697555265,12.937731971415248,44.3990833356974,10.812813197021226,22.12508894932431
19.253044933597312,24.683930716915697,25.64299218687939,12.838999631331577,44.40776976747812,10.850905604549432,22.068623384227983
19.207792294697555,24.814432547608813,25.66346541816527,12.742570682490502,44.41206024394232,10.886763169333323,22.01186128062397
19.16193815628395,24.936610881754678,25.681800148761557,12.648583312360179,44.41223147187625,10.92049847538299,21.955088922533424
19.11597487747114,25.04984192157777,25.69805162990055,12.557165831804076,44.40854489300241,10.952234194225795,21.898588639027217
19.07071370707246,25.15356284337501,25.712241218559182,12.468437961037086,44.40125161123624,10.9821031466654,21.84262641071574
19.027385177860495,25.24727710263377,25.724351973003625,12.38251686609623,44.390610422167185,11.010244286173767,21.787438936508817
18.987673286473093,25.330549415802,25.734326259310976,12.299527092778195,44.37689034155282,11.036796092316328,21.733226876785636
18.95367034564363,25.402996022641542,25.742063468614084,12.219605093844129,44.360350539660374,11.061894597564626,21.680156537709276
18.927782658400332,25.464284775576886,25.74741819170497,12.142895044950297,44.34121627946249,11.085679288555657,21.628363165321957
18.912629242985002,25.514151873497962,25.75020413697639,12.069544512121798,44.319666270453354,11.10829963296773,21.577951732192943
18.910950566397894,25.552423021912002,25.750208675071544,11.999706829800873,44.29582853066396,11.12991426788814,21.529004082638036
18.925523715396544,25.579020280654415,25.74721244948763,11.93354618843757,44.26977411726662,11.150684469004917,21.481599548636577
18.9590813367142,25.59395254792588,25.74100087637978,11.871238186804817,44.24150834744747,11.170767798632415,21.435837385402902
19.01423882331523,25.597307391972297,25.73136259949964,11.812964078259691,44.210974957538106,11.190314313211694,21.391843069825896
19.09343563600282,25.58926326492743,25.718082344821553,11.758903476286289,44.17808583990328,11.209464118326663,21.34975722058192
19.19889172776782,25.570117349580965,25.700936795310245,11.709233097730516,44.14276100398179,11.228344178319173,21.309721204830478
19.332573012343886,25.540300619311907,25.67969708713389,11.664133018267288,44.10494746226206,11.247063772959917,21.271870442947815
19.496160411987823,25.500364572909024,25.654137901598872,11.623791891294376,44.06461202547494,11.265710165732925,21.236333844121795
19.691027479597015,25.450953606697176,25.624049618797972,11.588403896305168,44.021734843823445,11.284346844980695,21.203230811206556
19.91823623726564,25.392779305010325,25.589249090945156,11.558161275400137,43.97632030776582,11.303015003016608,21.172662801112015
20.17854836599743,25.32659679753372,25.54958826458798,11.533250566718582,43.928409034494045,11.3217357592424,21.144707510976566
20.47243478530981,25.253179096104642,25.50495991522023,11.51385326948929,43.87807031829313,11.340510400478287,21.119424941847868
20.800072655497235,25.173293583069057,25.455296012880936,11.500144421996259,43.82538063800394,11.359319427322163,21.09687089392749
21.16133625475997,25.08768986190236,25.400557766998045,11.492286113531424,43.7704128203908,11.378122968477351,21.077102612690894
21.55579349142401,24.99710047454691,25.340724854494432,11.490421719012641,43.71324966082027,11.39686273457996,21.06017101948037
21.98271106721869,24.902242893433677,25.275793363701833,11.494678009770533,43.654005466948966,11.41546332162902,21.046111882328802
22.441062619442146,24.80381208606486,25.20578371552928,11.505173389914011,43.59282954929763,11.433831900238149,21.03495023410071
22.92953489370741,24.702467143537934,25.130748438554946,11.522022319278712,43.52989270791724,11.4518582413593,21.026715122535787
23.44653363604969,24.598823065426583,25.05077125937271,11.545330448434724,43.46537643389343,11.469418153546725,21.02144735812708
23.99019465461621,24.493452203503026,24.96596423087599,11.57518469861247,43.399468156986934,11.486381152001133,21.019190969793698
24.558404134967617,24.386888036477583,24.876476000008104,11.611643873983356,43.33234931933098,11.50261901914301,21.019976249648717
25.14882595052672,24.27962227388708,24.782509918785923,11.654731796376721,43.26417375133793,11.518010881364534,21.023806538531947
25.7589272130834,24.17209713655498,24.68433531177935,11.704432790567171,43.19505303199595,11.532443724907935,21.030653338214172
26.38599723401786,24.064701997533064,24.582281640053317,11.760687584861738,43.12506423221155,11.545810260453374,21.04045549914581
27.027166619686298,23.95777774422938,24.476722660282213,11.82338831760207,43.05427040498374,11.558006692204208,21.053116236878168
27.679437927273856,23.85162158182709,24.368062658203254,11.892376206496401,42.98272838356371,11.568931533804133,21.068499284790146
28.33972898440472,23.746484972708576,24.256728905080323,11.967447852530576,42.91047986186988,11.578484084934633,21.08643488048221
29.004914343777592,23.64256970592692,24.143165496902526,12.048368935278392,42.8375499874185,11.586561445449256,21.106741695360977
29.671851520730026,23.540034196618684,24.027822712897343,12.134885070203488,42.7639656610657,11.593056022597732,21.12925151596209
30.337395442788303,23.439012254681927,23.91114532134125,12.226724633881146,42.689771854504514,11.597855933195659,21.15381744439887
30.99841290592564,23.339631694027783,23.793572270455808,12.323603536674169,42.61502433980003,11.600847636687437,21.18030523486988
31.651801369638196,23.24201961775674,23.67555188802019,12.425243293997116,42.53976829650563,11.601918454724034,21.20858563226228
32.29450632477258,23.146294428411707,23.557556979810006,12.531394345339363,42.46402704023496,11.60095801088594,21.23854133419396
32.92353185929581,23.052554191102185,23.44008314823228,12.641845208154644,42.387808576279056,11.597858631938681,21.27008087758062
33.535947320208344,22.96086820295373,23.323634077989055,12.756415539412332,42.31111333422112,11.592514898062593,21.303142334223562
34.128897235967074,22.87127135921641,23.208710089847973,12.874953077432583,42.23392595398726,11.584823593575148,21.337686426565714
34.69961783832781,22.78375917963259,23.095807398005586,12.997348933931004,42.156198285961786,11.574684936817045,21.373692207272992
35.24545559567852,22.698284724495135,22.98541946444323,13.12355927952927,42.07784749329349,11.562003480919183,21.411157324007377
35.76388057103042,22.614762164014284,22.878030004373056,13.253610260682754,41.998780629449776,11.546686836644158,21.450093066773714
36.25249517639002,22.53308130652516,22.774100104827124,13.387580805941441,41.91892712734185,11.528643320861258,21.490511711892456
36.70904603235748,22.453128535741804,22.674059977703145,13.525575890571321,41.83825169171752,11.507781212610084,21.532414437774282
37.13144163052919,22.374800696500795,22.57831088145746,13.667701664738182,41.75674835862216,11.484010558980348,21.57578724528236
37.517768531612376,22.298004846477628,22.48723274520088,13.814045791252736,41.674441186749384,11.45724608610636,21.620603500038353
37.86629854754593,22.22265215448775,22.401187649619562,13.964661591759594,41.59139992196081,11.427408795009754,21.666824673646293
38.175487931406764,22.148658634244462,22.320513097205115,14.11955440247121,41.50774859533414,11.394425913201186,21.714394202503698
38.44397523331682,22.075954010724875,22.24550856944326,14.278672466214894,41.42365026937338,11.358233023078055,21.763229517624225
38.67058286903295,22.004487845870013,22.176425400417386,14.44190784398151,41.33927985503152,11.318781442833911,21.81322155489493
38.854321300471504,21.93422598782207,22.113465667927166,14.609107038875697,41.254805936145694,11.276047310861173,21.864242847761183
38.99439013389615,21.865145396006206,22.056784173458738,14.780080069565653,41.17038568606754,11.230036322910724,21.916153705340676
39.090173836946086,21.797239631256303,22.006484421844917,14.954599363920618,41.08616041539062,11.180784128770657,21.968798209700893
39.1412370599715,21.730532929375887,21.96261144934234,15.13239474619903,41.00224902018358,11.128359102043266,22.02199335623789
39.14732661184214,21.6650873183507,21.92515580150364,15.313154587194484,40.91876150853454,11.072871966187538,22.07551838255007
39.10838070509875,21.600995493301337,21.894074307095455,15.496532426367207,40.83584951118517,11.014486730727784,22.129108556550264
39.02453607774895,21.538370955755504,21.86931271199096,15.682156638056446,40.7537674604679,10.953423230964114,22.182454807075665
38.89612331903674,21.477349737943356,21.850812919572636,15.869664508280941,40.67289684906314,10.88994931661461,22.235207380540277
38.72365273115171,21.41810165139032,21.838506187264503,16.058797028131828,40.59372284530171,10.824369408387222,22.286980613163262
38.50780174060165,21.36083538760941,21.83230663492009,16.249548578231003,40.516793833768695,10.757016470519316,22.33735804419845
38.249410117709694,21.305788575744312,21.832113398247493,16.442306706844438,40.44268863509445,10.688247953353953,22.38589844588653
37.94947808781521,21.25321124898162,21.83781453552753,16.63792426040718,40.37198944060068,10.618441082059084,22.432141458667594
37.60915906897636,21.203356249446024,21.8492828332694,16.837723751091495,40.30525134210455,10.547985358431815,22.475610816256914
37.22974675028355,21.156477752444076,21.866366990000373,17.04345996915082,40.24297207405427,10.47727614191264,22.51581626384148
36.81266423648676,21.112827495404147,21.888887878590452,17.257250389444355,40.185579161708866,10.40671515818261,22.552256445507464
36.35946085410344,21.07264323641638,21.916640272799174,17.481476259919358,40.13344428227994,10.33671757349192,22.584422432967347
35.87181211050625,21.036136361539537,21.949393486582725,17.718670349375735,40.08690540320649,10.267715873694003,22.611800259872453
35.351513649760925,21.003487971094106,21.98688776592752,17.971410705787978,40.04626795253074,10.200152770913853,22.633872225488574
34.800467120548454,20.97485292561731,22.028830026985094,18.242230132294782,40.01178495215411,10.13446687709156,22.65011869106696
34.22066344848179,20.95036194211061,22.07489730457854,18.533542081634913,39.98363960482186,10.071079214491961,22.660022441353746
33.614169272604585,20.93011544798259,22.12475161668596,18.847578864281903,39.961942849742705,10.010384306714755,22.663075491943374
32.983117274128176,20.914173959451603,22.17805632479076,19.18633880895169,39.94673512770648,9.952745043463345,22.65878589254044
32.32969510783464,20.90255328012853,22.234480842926597,19.55154468135974,39.937978629396135,9.898489110648534,22.64668197783015
31.65612892409106,20.895226066364696,22.293693052620764,19.944618073698997,39.935543897658384,9.847905702065908,22.626312974888446
30.964665222567103,20.89212386893219,22.355349280753963,20.366667407160147,39.93920678491308,9.80124241250551,22.597247306948567
30.257557656742016,20.89313551217914,22.419091563703226,20.81847914826482,39.94866092861814,9.758703991728375,22.559072571924364
29.537060053175473,20.898107435479666,22.484553101940985,21.300505207373572,39.96353031391149,9.720454975748577,22.511400005172813
28.805420209628867,20.906856372001997,22.55136301584874,21.812849676060615,39.983367966530444,9.686624115256967,22.45387116604687
28.064869486303152,20.91919312100474,22.619144375109205,22.35526388197226,40.00764953749286,9.65730670242963,22.386163195588043
27.317610433913792,20.93494033759417,22.687510993131692,22.927155875579196,40.03578067087073,9.632565711605885,22.30799252549318
26.56580948087628,20.953933200829837,22.756069659456426,23.527609337711656,40.06712127063723,9.612434823056253,22.21911912822778
25.81159707793965,20.976014073658376,22.824424493524567,24.15539979284456,40.101008443144785,9.596922279377559,22.11935313258133
25.057068054492735,21.001039946237558,22.8921771520411,24.809004513010656,40.13676094438148,9.586012804404074,22.008562804900976
24.30427423967869,21.028903545808518,22.958926106124242,25.486615595301785,40.17367053418627,9.57966711758624,21.88667952539414
23.555212214952498,21.05954785513997,23.02427304398787,26.186165381426203,40.211001540023084,9.577820196594175,21.753699757883716
22.81181757176464,21.092958828348976,23.0878359344406,26.905359417102776,40.24800991177704,9.580380878583282,21.609691910267298
22.07597132602477,21.12914364585134,23.14925971031787,27.64170366850934,40.28396745771245,9.587234620628593,21.454812264740376
21.349508935094935,21.16811147593926,23.20821722487587,28.392523226238293,40.3181705319177,9.598246650332825,21.28932102164027
20.634218515744415,21.20986650435572,23.264402509615177,29.1549860787655,40.34993696474574,9.613261884249429,21.11358557532131
19.93182808172071,21.25440947957614,23.317529367635466,29.926144958747702,40.37861430451348,9.632102371993362,20.928070342067922
19.243992829286004,21.30173589493427,23.367348413617954,30.702989100500037,40.403605122172806,9.654565504627236,20.733327316061988
18.57229080819257,21.351827403173008,23.413675310844106,31.482482505980727,40.424386125022394,9.680424942726644,20.530002297085456
17.91822402774563,21.404645862906374,23.456405511902584,32.26157862480921,40.44050313988202,9.709433239322385,20.318852989524412
17.28321775625453,21.460135210742347,23.495504374864073,33.03722230110162,40.45155523989575,9.741323800343656,20.100757090083654
16.668624455595516,21.518223074184284,23.530984869825716,33.80635159296454,40.45719272744968,9.775811893844285,19.87669835860674
16.075748482581943,21.578814313918745,23.56288823340587,34.565902987436715,40.4571318355586,9.812596113548182,19.64774104314531
15.50588577665925,21.64178110268155,23.5912735738786,35.312821196788285,40.45116393687537,9.851361164056703,19.415005417224766
14.960347651807796,21.706959465482896,23.616213053855944,36.044080231344005,40.439145012034714,9.89178183726301,19.179645776326808
14.44045133141612,21.774153501606598,23.637784523979455,36.75672125583738,40.42098240209944,9.933527371520588,18.94282845188633
13.947489790523878,21.84313880399989,23.656060714644102,37.44789635390934,40.396643490054025,9.976266740545043,18.70571152731914
13.48270212245781,21.91366019510135,23.671106646964873,38.114897258680365,40.366180975021194,10.01967746115007,18.46942897532804
13.047256083818741,21.98543086530532,23.682993414556872,38.75516234715346,40.3297443389625,10.063458064025603,18.235077989923944
12.642239813228626,22.058144086686042,23.691816676059332,39.36627291569686,40.28756375927639,10.107339662849416,18.003706439428573
12.26865091534262,22.13149677013809,23.697702793433162,39.945951845272376,40.23992526623152,10.151091681122116,17.776300110897225
11.927378074452347,22.20520846459608,23.700805011253834,40.49207070547435,40.187160111914665,10.194520645154705,17.553771933069346
11.619183321180383,22.27902288159169,23.701305077328037,41.00266154178674,40.129646543521346,10.237464796652027,17.336954399893013
11.344693623949517,22.352696876535212,23.699422213275785,41.47592395281809,40.06780346618628,10.279788746845536,17.126594927194233
11.104399118578321,22.425990487822542,23.695414742930335,41.91022351831104,40.00207158748943,10.321381350767242,16.92335415013909
10.898649445877911,22.498667906126173,23.689566849938412,42.304085959430374,39.93291009048522,10.3621563611168,16.727806848960974
10.727645747121837,22.57050748652795,23.682171250117328,42.656192443979215,39.86083022400197,10.402051796177169,16.540444796567325
10.591432637487538,22.641307584735127,23.673520326230115,42.96537704870652,39.78643762339792,10.44102553937093,16.361681999478353
10.48989654087841,22.710882371464052,23.663904317075254,43.23062445602843,39.71043863364567,10.47905049518983,16.19186212925732
10.42277427057915,22.77905900970447,23.653606895449673,43.451067526865835,39.63361199370659,10.516115139883288,16.031264956361685
10.389666175694948,22.845684244616677,23.642894360488206,43.62598716304677,39.55678459218044,10.552229395253041,15.880108386428676
10.390042225521855,22.91063028535974,23.632002665470278,43.75481719332575,39.48082848634401,10.587427949172216,15.738546111236346
10.42323965565557,22.973789425139078,23.62112686306438,43.83715329851034,39.406657236196786,10.621765855251024,15.606664758420088
10.488464342028964,23.035062395005422,23.610414375922225,43.872760075030534,39.335201898749524,10.655310188145501,15.484487243064157
10.584803737659918,23.094351826600015,23.599961016415335,43.86157360592134,39.26738067628599,10.688133081645207,15.371986324083853
10.711242931285241,23.151566366615388,23.589807074933503,43.803705041857484,39.20408664263104,10.72030682494292,15.269101960535142
10.866672134504311,23.206630430061132,23.579932513032553,43.69944775743168,39.14619164585282,10.751898694423216,15.175751064783228
11.049886493107913,23.25948713290213,23.570254829995225,43.54928089210887,39.09454193812846,10.782963907186048,15.091830084237555
11.259587488540781,23.310089499540073,23.560633012800587,43.35386292005514,39.04993521113203,10.81353826392539,15.017225101696953
11.49439048791687,23.35839078089835,23.5508740147761,43.11401741461387,39.01309736858577,10.8436348876846,14.95183655736545
11.752833927392077,23.404346676520444,23.54073678173115,42.83071630739677,38.98467808763297,10.873248043242143,14.895603118748584
12.033384379367321,23.447926825081897,23.529941306391482,42.50506597083459,38.965257511166016,10.902360792270713,14.848506375115033
12.33444100530288,23.48912159274873,23.518198189106613,42.13830245999009,38.95534259404252,10.930950104964557,14.810560827066677
12.65435173518935,23.52794109153987,23.505255502465637,41.73179523216862,38.955350794534205,10.958987511318998,14.781809605747057
12.991446956717384,23.56441989914754,23.490935348603394,41.28704739085395,38.96560113147731,10.98643746227391,14.762333834313878
13.34407613355859,23.598633355604672,23.475140969382846,40.80568465030136,38.986323681495136,11.013255485919457,14.75226031104022
13.710625617684265,23.630710242602536,23.457844214757007,40.289440666914885,39.01767144602363,11.03938771113732,14.751751919749093
14.089514856595466,23.660826924803313,23.439074187714898,39.7401489771558,39.059716820853374,11.06477179994253,14.760985416776174
14.479187512161383,23.689187222892546,23.418916734218126,39.159739224909735,39.11244633517457,11.089336995421993,14.780132550282136
14.878111070847803,23.716002338082973,23.397517582390055,38.55022853566374,39.17578339352338,11.113002242543168,14.809354921219876
15.284782204570917,23.74147996256417,23.37507547308555,37.913705947236004,39.24963541528958,11.135675628491926,14.848808657030187
15.697727280368612,23.765820808079617,23.351824338422002,37.25231482571187,39.33392458401602,11.15725803968399,14.898644682692137
16.115495139280895,23.78921340123331,23.328019267681594,36.56823761098186,39.42858041876431,11.177647635420252,14.95899753520388
16.536649687106834,23.811822151815484,23.303935797704973,35.863683972204946,39.53351822980519,11.196740449567274,15.02997099025222
16.95977008803417,23.833773958197007,23.279873151682917,35.14088022586236,39.64863325285649,11.214429183358257,15.111630842061174
17.383456796484698,23.855151342259024,23.2561476092604,34.40205703261391,39.7738071599159,11.230606508388515,15.20400300476733
17.806334567077997,23.875992842954556,23.233075745287024,33.64943487580662,39.908904263135035,11.245175108711678,15.307067904994623
18.227049730501605,23.89629423149024,23.210958216253747,32.88520913635289,40.053754116163,11.25805883908484,15.42074969189392
18.644271132541743,23.916006093299593,23.190073223086436,32.11153653874774,40.208142180586485,11.269207535514932,15.54490918526289
19.05670396093036,23.935031249592683,23.170677729368304,31.33052386533875,40.37181933774185,11.278594503507383,15.679349678553201
19.463110204404366,23.95323189742474,23.15300511786718,30.544221537499304,40.54451108436143,11.286211707170882,15.823832378616148
19.862320345020173,23.97045204639774,23.137254449472774,29.75462599851754,40.725906307473245,11.292068834195309,15.978086080487067
20.25323184671031,23.98654326231012,23.123580806644195,28.963689210773467,40.91563397786385,11.29619822812269,16.141802664918654
20.634803914996894,24.00137572538644,23.112095669586648,28.17332766100887,41.11325538532199,11.298659756739859,16.314628328697275
21.006057954817894,24.014835737696394,23.102872131189695,27.385425613142477,41.31828579558196,11.299538741316857,16.496164136903914
21.366083193128713,24.026825198406247,23.0959442600806,26.60183193507007,41.53022409076296,11.298937688725674,16.68597504457788
21.714039350419007,24.037267689518032,23.09130025211812,25.82435196442862,41.748558107510206,11.296966883294324,16.88359543331619
22.049151681504433,24.046110623093476,23.088881108298775,25.05473760275911,41.97274507054795,11.293737048202807,17.088526744812018
22.370702287306365,24.053317752104615,23.088593779159194,24.29467963798844,42.20219430693004,11.289354500925004,17.300234851267955
22.678024881428012,24.05886381768883,23.0903302321195,23.54580376927353,42.4362660138727,11.2839178915041,17.518151917840054
22.970508950292537,24.06274645456008,23.093975733822596,22.809666739254187,42.674272672189616,11.277516026050874,17.741677759192086
23.24761283331872,24.065009908696453,23.099402915135826,22.08774856176657,42.91547739582452,11.270227841218203,17.970175674255625
23.508875143279223,24.065757069652022,23.106462751536395,21.38144293088669,43.15911222639671,11.262126172687204,18.20296581048794
23.75391617861722,24.065138823944476,23.114982557412546,20.692052025623905,43.40442773026952,11.253284149586523,18.43932523340332
23.982435278015497,24.063332885391198,23.12476963765287,20.020788003503537,43.65074099560722,11.243779688231152,18.678501528242073
24.194211617089067,24.060525888487362,23.135612482088714,19.3687757617488,43.897445274990716,11.233695503300646,18.919734013270887
24.38910367383197,24.05690061666168,23.1472772563862,18.737051030555353,44.1439894507734,11.223117482544,19.162266746394735
24.567040647249495,24.05262426560554,23.159506643276845,18.12655459356153,44.389865689728005,11.212135537927088,19.405346100743408
24.728008892382643,24.047835609354568,23.17202769724067,17.538126341657826,44.634623330179124,11.200846183244279,19.64821177767293
24.872041522907868,24.04263477795284,23.18456423449331,16.972500573752214,44.8778857446122,11.189352267057828,19.890095119545197
24.9992150781164,24.037082563464573,23.19684175323483,16.43030246673029,45.11934205749725,11.17775821246493,20.130229949772446
25.109648593875495,24.03120836751343,23.208580902189894,15.912048480189934,45.358720737347305,11.166164106439865,20.367866975187944
25.203497711692016,24.025015346709996,23.219488237386173,15.4181587044315,45.59576928148993,11.15466328861503,20.602279753405718
25.280946165487357,24.01847698295138,23.22925497783244,14.948984076695458,45.83024329214822,11.14334500791523,20.83276313717158
25.342210143972274,24.01153460296175,23.237565455283836,14.504834585910263,46.06189015507131,11.132298595521455,21.058635227457827
25.38756739334759,24.004106718426517,23.244106712878935,14.085991137611414,46.2904241667718,11.121614735289985,21.27924676349766
25.417398198574805,23.996106112719747,23.24857143646262,13.69270102698666,46.51551061524717,11.111383660221922,21.493988423059445
25.432211377523792,23.987449687462615,23.250657837453517,13.32516837812662,46.73677336196073,11.10169384673477,21.7022877464634
25.432644834750665,23.978053967271656,23.250075991440188,12.983545131886878,46.95381408655712,11.092636143620588,21.90360048092221
25.41944992174044,23.967825213381538,23.246560684756627,12.66792132065982,47.16621868687241,11.084313606809719,22.09740686510614
25.39347002551236,23.95665846096567,23.239879581235755,12.378314303761456,47.37354879168018,11.076848484853114,22.28321607407383
25.355616735653484,23.944449151499096,23.229830225767888,12.114659438001057,47.575341224546676,11.070379687813757,22.460571013240116
25.306844225034837,23.93110563419143,23.21623189604221,11.876807168126724,47.77112619854927,11.065055894123162,22.629046533365983
25.248124586436248,23.916550637382976,23.198921369298873,11.664533202009748,47.96044466512475,11.061032918254845,22.78824608947781
25.180428807514435,23.90071478392594,23.17775411639113,11.477559926646205,48.14284450795941,11.058475669356193,22.937805845260602
25.104715634743602,23.88353387725732,23.152604342900936,11.315573396018564,48.31786186284392,11.05755784706589,23.077406525420315
25.021924348211588,23.86495350688779,23.12336218203488,11.178223574242354,48.485011520475545,11.058455176110765,23.206783634202008
24.932964890604243,23.844931550979105,23.089937807309255,11.065112434093814,48.643804860861955,11.061336050897486,23.32572677662202
24.838704255136886,23.823431057712785,23.052277192037206,10.975782290995285,48.7937853595393,11.066357272517656,23.43406911019968
24.739954954258256,23.80041067998185,23.01037771463774,10.90971299763148,48.93454854888374,11.07366754115022,23.5316755333437
24.637471785256817,23.77582574556833,22.964289497410835,10.866327575104716,49.06573374364478,11.08341247735759,23.618434637800082
24.531955324299492,23.749641511963176,22.914101909191608,10.84499738785541,49.18701071536628,11.095733757598584,23.694252648111405
24.424053031116255,23.72184542398252,22.8599250638688,10.845040558634635,49.29808155734458,11.110763593973076,23.759046244228095
24.31435395152987,23.692447350690525,22.80187661329372,10.865717403602847,49.39868813009432,11.12862228398054,23.81273501049387
24.203384829344834,23.661472556362437,22.74007999118729,10.906229146987563,49.48860752619996,11.149421698636193,23.85524171123409
24.09161560672732,23.628959273332313,22.674671211952127,10.96571996095625,49.56763958028771,11.173268547656157,23.886511813853037
23.979470499803682,23.594963442146337,22.605802766027082,11.043279331404861,49.63560367020515,11.200261718074078,23.906547944418115
23.867334118177784,23.559561343813723,22.533637609999893,11.137946762875705,49.69234545392845,11.230485368134222,23.915434737099584
23.75554844996872,23.5228421840627,22.458337061688,11.248725698611684,49.73773588041792,11.264002211383255,23.91333839206193
23.644406946569845,23.48489462562196,22.380048675227723,11.37460802625421,49.771657946760044,11.300849532140528,23.900491062850772
23.53415545647003,23.445799721183928,22.298896225850953,11.514598160269992,49.7940060278704,11.341037661365199,23.877176876403077
23.42500175020774,23.405637187781664,22.21497162151357,11.667723774283292,49.80471848560203,11.384548078840629,23.843724348453225
23.317124201870023,23.364495686131043,22.12832937972376,11.833032608770809,49.80382070115283,11.431328974673502,23.800499903896696
23.21067301800108,23.322472906070416,22.038986723100525,12.009583667035029,49.7914379864076,11.481289261075432,23.747898441193247
23.105770258920323,23.27966528875528,21.946931414325828,12.196438882581985,49.76777653776519,11.53429390966425,23.686334321022603
23.00251688383255,23.236158814593807,21.85213295856522,12.392656839890867,49.73310509285711,11.590162808394803,23.61623946322867
22.90100379346222,23.192028685550746,21.75454947320059,12.597287915674706,49.687753660111724,11.648672567506496,23.538068465016767
22.80131633177549,23.147344114907693,21.65412888493192,12.809370169822945,49.632112594918866,11.709558725554158,23.452301197133036
22.70352782120854,23.10216881146855,21.550810500030245,13.02792800240468,49.56661417065353,11.77251721528047,23.359436620802384
22.607688064553074,23.056555374301844,21.444530384218638,13.25197693421793,49.49170514933147,11.83720687931789,23.25998465824888
22.51381595526339,23.010541597348436,21.335225973485816,13.480532534167082,49.40783548364761,11.903254882381356,23.15446701364675
22.421900342962978,22.964153963371206,21.22283605311451,13.71261611225634,49.3154722800995,11.970263492637493,23.04342619881348
22.331904404074777,22.91741275760518,21.107302239489258,13.94725391471083,49.21511581933184,12.03781546634162,22.927430085785954
22.243765920406776,22.870330702936165,20.98858276059842,14.183473908808493,49.10729390601939,12.10547809991205,22.80706536966307
22.157392754833047,22.82290620647903,20.866677902818406,14.420305570851681,48.99254725186671,12.172809270382533,22.68292855344761
22.07265980412063,22.77512141527754,20.741650261557602,14.656784469837033,48.87143348719313,12.239369755970005,22.55562518991956
21.989414020164368,22.726952100040286,20.61362610488042,14.891958822757333,48.744546532811526,12.304740474676944,22.425775299230665
21.907486231559353,22.67838187722295,20.48278244416725,15.124894050343059,48.612521838134086,12.368535165203413,22.294012859551017
21.826699663237697,22.62940725516203,20.349332898820514,15.354674289290875,48.47601638793232,12.430402198657795,22.160973256000972
21.74686912694672,22.580030621439263,20.213521175088115,15.58040317517348,48.335684673449315,12.490019225885463,22.027276515892456
21.667796690807627,22.530247977172806,20.075621915953402,15.801208503240277,48.19217167679752,12.54708611894366,21.89352052705177
21.589272967364785,22.480038163501398,19.9359404677713,16.016252014696406,48.0461157899907,12.601317856970182,21.76028901945771
21.51108514987635,22.429356228201733,19.794805495370014,16.224737913899936,47.8981410932632,12.652438305644115,21.62816142395587
21.433023385173275,22.37812923739639,19.652559645139824,16.4259157228499,47.74883999831377,12.700176738095989,21.49770971711482
21.35487904834838,22.32625338162866,19.509558363024137,16.61908467705642,47.598769331071594,12.744268018006828,21.36948441519041
21.276439831990324,22.27359737317714,19.366177117908816,16.803610649262772,47.448466129181405,12.78445550564726,21.244004010151333
21.197491270812378,22.220016907424245,19.222815163997073,16.97895322006885,47.2984585331231,12.820494379038907,21.121754995082068
21.117826208793492,22.16537331085357,19.079888381806136,17.14468517147909,47.14925202792446,12.852152934208322,21.00319363966951
21.037253269358338,22.109543088268815,18.937817224307746,17.300494652918008,47.00130245454827,12.879211670867319,20.888739699044088
20.955596500838176,22.052415935768668,18.79701925337309,17.44618091060824,46.855002973702064,12.90146302358915,20.778769763335372
20.87268849557418,21.99389230102905,18.657908923958555,17.58165407238298,46.710696641739084,12.918715143140655,20.673627379045993
20.78836507376806,21.93388886709642,18.520898939257062,17.70693312606356,46.56869508144706,12.930799585956006,20.573650073545235
20.7024658112608,21.872346599607702,18.38639567246343,17.822133143172366,46.42927974852316,12.937577708235743,20.479190723363356
20.61483648856575,21.80923151393077,18.254789546263325,17.92744358322995,46.292695082800165,12.938940992451787,20.390616830402283
20.52532805733206,21.744526891342165,18.126453108890477,18.02310666669667,46.159157249147576,12.934807069147277,20.308298648502316
20.433793462919958,21.67822337809117,18.001759094487955,18.109403171242224,46.02887329516861,12.925117690502246,20.232606807269047
20.34008738249768,21.61031199578863,17.881109300415133,18.18664517161468,45.90204423562222,12.909842508726864,20.163921359725
20.244069435933582,21.54077897876582,17.764948842523637,18.255168310501784,45.77884656986848,12.888985602735668,20.102635608822755
20.14560570898661,21.46959976724386,17.653757592446134,18.315319191730186,45.65941455174917,12.862588005071458,20.049144332880147
20.044564947967125,21.39673432988287,17.548034453980033,18.367440896162545,45.54384048485323,12.830723768072716,20.003825152100312
19.94081223978898,21.322131119777925,17.448286317966936,18.41186128404297,45.43218394137733,12.79349322971644,19.967029788504682
19.834207263076692,21.245744651510932,17.35501815613883,18.448886634430668,45.324471615872795,12.751017876369895,19.93908965305137
19.724613217567736,21.167558593005896,17.268719055321164,18.478800178187427,45.22069200834886,12.703437659694671,19.920320572134788
19.611913227033693,21.087597751222123,17.18985018947897,18.50186182841704,45.12080889569842,12.650908582862911,19.911014541900116
19.49602197279991,21.005924777733206,17.11884907588274,18.518305936501505,45.02479600582484,12.59359863497366,19.91142930776235
19.376887782461317,20.922634436266424,17.056151372579336,18.528338855400907,44.93266087868333,12.531683246549969,19.921790451247432
19.254494302768702,20.83785501286684,17.00220789395869,18.532142372570583,44.844437100154664,12.465344349098892,19.942299872965812
19.12886839782533,20.751750749909263,16.957478289562076,18.52988541396738,44.760165721641236,12.394775223011605,19.97313405738639
19.000087929482245,20.664515822217425,16.92240927528367,18.5217364781782,44.679894567929516,12.32018698585525,20.014429441734876
18.868280851844986,20.57636080282761,16.897415797474515,18.507867778060955,44.60369065204771,12.241810862439156,20.066266759710523
18.733616363147245,20.48750052655735,16.88287184199972,18.48845118079661,44.53163921366904,12.159895994857356,20.128663814227178
18.596296181283673,20.398151826211432,16.879103616443228,18.463652128149942,44.46382344150063,12.074706737410976,20.201574778622927
18.45655293689689,20.308540436870114,16.886377243729704,18.433627301401625,44.40030963753768,11.986521719524946,20.28488772966279
18.31465408960141,20.21890549236055,16.904882923145127,18.398527421708287,44.34115956784714,11.895633395158182,20.378418687540076
18.170902381519245,20.129494235957655,16.934722247135255,18.358500270065182,44.28645651645976,11.802345805875952,20.481913143982865
18.02562893957885,20.04055396423474,16.97590260378151,18.313690584935856,44.23631143184256,11.706969955099005,20.5950632280741
17.87918722552993,19.952331185614078,17.028337693826657,18.264243640474056,44.19084374595872,11.60981810914553,20.717528454551168
17.73195722061849,19.8650766705284,17.09184893208685,18.210318526802137,44.15017000413443,11.511200424756307,20.848941740667726
17.584355403632536,19.779045998204932,17.166165346829214,18.15210205040395,44.114422074506315,11.411427315297798,20.988900625275512
17.436836494942106,19.694492205794607,17.250927504716817,18.089810673070527,44.083770189908506,11.31081509039245,21.13695880238024
17.28988297352901,19.61166199591469,17.3457003045663,18.02368220997977,44.058416439245214,11.209687513254169,21.29262990062874
17.143993685630814,19.530807090982552,17.44998908263664,17.953967951827497,44.0385635379844,11.108371540486916,21.455400570106708
16.999682297534942,19.452203527405022,17.563248735813545,17.880929989131626,44.02439456311385,11.007194599407436,21.624737981699095
16.85748146748913,19.376159714839677,17.68488286015888,17.804839290404605,44.01608650599378,10.90648910869285,21.800083468622052
16.717939923303035,19.3030082276039,17.814240248025847,17.725969268386688,44.0138389883,10.806599694106005,21.980840031360216
16.581610240696374,19.233094711200142,17.95062115100036,17.644586716132338,44.01788298780439,10.707885270273461,22.166365682463887
16.4490400499428,19.166772181449883,18.093297838201046,17.56094698431031,44.02846925404242,10.610714967847441,22.355976624073158
16.320775921090927,19.104393710135707,18.241536761171748,17.475295822852253,44.04586089238113,10.51546287245467,22.54895440510888
16.197371407489086,19.046297546859073,18.39460731713349,17.387871621681082,44.07032945214248,10.422506872802712,22.74454882086955
16.079384766830863,18.992791073174285,18.551778730782168,17.298902116572346,44.102136323977575,10.332231400892084,22.94197627012062
15.967364882479595,18.94414385566081,18.71231720568667,17.208599483652225,44.14150505170138,10.24502812907288,23.14042235537738
15.861834694476467,18.900590847158668,18.875490552762347,17.117163284484644,44.18860814069992,10.161294282400139,23.33905527624525
15.763279801017461,18.86233571498547,19.0405766989775,17.024793288711166,44.243571661300486,10.081435098662375,23.537043242034386
15.672143394585703,18.82954624956017,19.206867648384257,16.931701860750312,44.30647511191366,10.00586905648181,23.733563112094686
15.588822285215477,18.802348158858173,19.373668321655252,16.83811572884419,44.37733406102906,9.93502697487758,23.927798636984406
15.513659038872106,18.780832987603706,19.540300185213685,16.744268626470163,44.45608616786971,9.86934324924465,24.118938802273497
15.446935051786005,18.765083808478696,19.70611428287945,16.650392014358545,44.542608039887114,9.809245132378171,24.306183897387612
15.388874848311376,18.755198981080834,19.870502903154723,16.556707103410243,44.63675403720446,9.755145199980138,24.48875455609417
15.339660723644705,18.751294524543376,20.032898670925793,16.463417002628972,44.738377256220296,9.707440874739328,24.665894683121664
15.299443143722392,18.753490860656076,20.192764187554776,16.37069844579238,44.84731732322409,9.666521877810585,24.83686826833847
15.26833790744941,18.761904621209514,20.349583476418292,16.27869483440035,44.963383266390146,9.632777638716655,25.00095913561878
15.246417050600783,18.776654067523577,20.502862501212693,16.187513082695656,45.08635572517926,9.606594634618984,25.157478519545883
15.233704048511894,18.797864815159578,20.652135724956466,16.097229206580078,45.215994784423096,9.588344186610433,25.305773214505784
15.2301745537005,18.82566174523691,20.796968810002173,16.0079059840604,45.352031713695794,9.578369315158296,25.445225648702362
15.235756405555453,18.86015384030188,20.936953777612995,15.919613661206288,45.494153040152135,9.576976082709107,25.57524871599832
15.250327335706267,18.901429227166,21.071704726235033,15.832438951759043,45.64200320819706,9.584427827860933,25.695284814373906
15.27371779063535,18.949563117786415,21.200862199885304,15.746480373525875,45.79520877614807,9.600938373623602,25.804812259124432
15.305723209712976,19.00462260284266,21.324101955389928,15.661840350835648,45.953395691221274,9.626663748079816,25.903352311398873
15.346118829883078,19.066656204613494,21.441137531444586,15.578621577711829,46.11618167007325,9.661696410041898,25.990469662029223
15.394667106610031,19.135674714355,21.551714711777375,15.496925699500649,46.283166289964164,9.706065878088687,26.06576876458151
15.451115068535369,19.211637345677893,21.655605544866123,15.416849439605636,46.45394919870849,9.759743822747941,26.128894950843975
15.515186234461781,19.2944507856677,21.75260737443622,15.338478034859449,46.62816513398738,9.822647218016057,26.1795433333729
15.586574497062246,19.383976679560682,21.84254393274637,15.261881608694804,46.8054951876248,9.894636526253421,26.217467237886755
15.664946529309365,19.480035627289602,21.925262397607412,15.187120515490513,46.98564111883506,9.975512225915038,26.24247807114256
15.749951411626569,19.58240303199513,22.000625571936023,15.114257103096975,47.16828918610605,10.06501431397582,26.254438698266124
15.841226262243488,19.69080465579607,22.06850495664514,15.043363019444714,47.35309304195891,10.162825264165907,26.253257558020902
15.938391355724715,19.8049204706164,22.128781176379682,14.974517051506675,47.53967985065634,10.268573387187969,26.238888322981698
16.041044091045077,19.92439472732176,22.181352158307785,14.907801083902866,47.727658778920116,10.381836528669666,26.211333241031667
16.14876516080428,20.04884271256875,22.226141796924523,14.84330284258335,47.916614659814385,10.50215254062526,26.17064288100872
16.261135680099606,20.17785039523025,22.26310139615059,14.7811231654949,48.10609837928252,10.629040021510287,26.116908843714427
16.377750105359155,20.310974143935283,22.292204087224405,14.72137869422447,48.295635661383606,10.762020194763616,26.05025380333029
16.498216145082672,20.447748677051976,22.31343860689426,14.664196560057094,48.48474926799036,10.90062891224168,25.970823717133406
16.622150282115445,20.587700139286007,22.326806851472146,14.609705456151989,48.67296740739672,11.044419975341867,25.878784224834835
16.749181438636665,20.730353002562115,22.33232387158901,14.55802729607512,48.85981127972077,11.192968614148574,25.774327956601823
16.87896148930309,20.875226409937977,22.330016737418532,14.509269501701095,49.044786830738694,11.345879759453284,25.657702355662007
17.011169791081,21.021827816108587,22.319921141637902,14.463517547443379,49.22739758758584,11.502796131239908,25.52925137345265
17.145505827878868,21.16965444987478,22.302076754893438,14.420830709037048,49.4071602812495,11.663398286566448,25.38944582685527
17.28167863965891,21.318202924688254,22.276522189438115,14.381243641061294,49.5836008159935,11.82739685579482,25.238885665420884
17.419404916908174,21.466975737544104,22.24329041727841,14.34477081089115,49.756239837520546,11.99452434044192,25.078280196449175
17.55841596220097,21.6154801190198,22.20240533058282,14.311408465905563,49.924591217624446,12.164532911541201,24.9084223102587
17.69846079340387,21.763232588705282,22.153878906462637,14.281132404941065,50.088173168801596,12.337197807033746,24.73017263587065
17.83929737132661,21.90977905694757,22.097712454586212,14.253893199912413,50.24651121419663,12.512318451270767,24.544461317414054
17.98067889732353,22.054717221264685,22.033916078850385,14.229610804720107,50.39912703207418,12.689711043694818,24.352294820821502
18.122344201400526,22.197702526382507,21.96255482481224,14.208170556701951,50.545532246687884,12.86919660866838,24.154747921038975
18.264012752447112,22.338437985041793,21.88379960324871,14.189424217754627,50.68524088670819,13.050594220047895,23.952940509461943
18.405380722773838,22.476663696541134,21.797949706116498,14.173197857569573,50.817786048457585,13.233722910114924,23.74801478894197
18.54611667098028,22.612156836220542,21.705423327393646,14.159301422255542,50.94271844675435,13.41840495277792,23.541120568447017
18.685858932684223,22.744736099657054,21.606738647198494,14.147533168823777,51.05958818950352,13.60446195629912,23.333402232964858
18.824219239730134,22.87425870317208,21.502500419851604,14.137679308913244,51.16793460355203,13.79170408434937,23.125981994739504
18.960795329182403,23.000608623712104,21.393387793117398,14.129513966462602,51.267302477669084,13.979918622125762,22.919946207965488
19.095186634572954,23.123684647625947,21.280136611761264,14.122801038456839,51.35727025106828,14.168862038911845,22.71634484282321
19.227001534482074,23.24339631991486,21.163522049381374,14.117295024256155,51.43746090254866,14.358255363095301,22.51620156387044
19.35585353034809,23.359666814311275,21.04435203219274,14.112741154035287,51.50753606551985,14.547781177894,22.320519268260277
19.48135564654207,23.472432593129316,20.923468840782412,14.108884166402303,51.56720103756318,14.737081645358519,22.13027096754187
19.603120403849402,23.581634625484277,20.801744424837587,14.105494280889765,51.61622681704454,14.925757737602147,21.946381973853377
19.72076287360322,23.68721086167347,20.680062481457767,14.102400486187149,51.65446257318267,15.113369667118397,21.76971871852453
19.83390160678344,23.789101246093164,20.559295689058573,14.099508429942636,51.681824990277356,15.29943821886304,21.601092544755012
19.94215742326303,23.8872597615342,20.440291012326405,14.096795187216884,51.69828808892818,15.483446319825106,21.441268632030454
20.045155502726303,23.981658178401403,20.323866856460025,14.094295733236082,51.703896708539794,15.664840706104737,21.290966506215963
20.142535696690175,24.072278350642865,20.210812762907576,14.092097170099537,51.698788965718634,15.843036143007064,21.1508601816701
20.233966659632813,24.15910355361007,20.10188373586652,14.090341352101309,51.683196702348354,16.0174256413368,21.021599395338775
20.319152542621495,24.24211474818294,19.997795840906868,14.089225316184079,51.65742352819056,16.187394894838192,20.90384873833219
20.397829009439103,24.32128633789168,19.899231049212155,14.088991722143534,51.6218314183827,16.35233357921607,20.79831139445633
20.469757225400727,24.396576187922815,19.806844534421234,14.089911521842387,51.57685124216305,16.511639311277015,20.70571814971481
20.534724543794535,24.467914279414725,19.721262331163203,14.092265834440207,51.52299359321012,16.664717870485305,20.62679725504055
20.592550766322677,24.535203350311402,19.64306927591429,14.096330995573513,51.460835205461365,16.81098512592,20.562246627993133
20.643091237474504,24.598342335798456,19.572798994889933,14.102366052973851,51.390996156311466,16.949871017045975,20.51271305858506
20.686232264857274,24.657261233821377,19.51093592070938,14.11060073191295,51.314141563433694,17.080822176829116,20.478772109675656
20.721885615193123,24.711939732285483,19.45792738504484,14.121225105733473,51.23100668156259,17.203302058876115,20.46090479422088
20.749991540102567,24.762401235353977,19.4141943903346,14.134385209710333,51.14240710536194,17.31679093251433,20.459474958339776
20.770528819653222,24.80870216994238,19.38013123217536,14.150185655006748,51.049214453343374,17.420788759473233,20.474713435714957
20.783520570542834,24.850933702999264,19.356094817130824,14.16869415773432,50.952324933555275,17.51482240803442,20.506709628276393
20.7890303587603,24.88922918431446,19.342393767876047,14.189942712991304,50.852654003146604,17.5984549218115,20.5554063274691
20.78715638404874,24.923761325213373,19.339284621157777,14.213925640522245,50.751148567601284,17.67129236021266,20.620594855669445
20.77803485059744,24.95472680905687,19.346972567003945,14.240597995445881,50.64878247491499,17.73298688795001,20.70191166992881
20.761851406516467,24.982329418468318,19.365611047527043,14.269876244264955,50.546530132487504,17.783238751035732,20.798840051174956
20.7388463163646,25.00676941645859,19.39529939176363,14.3016405513645,50.445347607736714,17.821799848759575,20.910718936459308
20.70930502213633,25.028235920284764,19.436084621661994,14.335737434996327,50.3461735529069,17.848478235559256,21.036754892192384
20.673542037299864,25.046896313777474,19.48797641990778,14.371981907382326,50.24992650720021,17.863139601744663,21.17603078629413
20.631889530506292,25.062886025891366,19.5509727335235,14.41015892631095,50.15748086620917,17.8657035070743,21.327510560241368
20.58469262000843,25.07631262952432,19.625081009798034,14.450026059690524,50.0696372553764,17.856136843098167,21.490046991564853
20.532305602874608,25.087281459204686,19.71034006384406,14.491319973695793,49.987114224798276,17.834447953398524,21.66240220756919
20.475085204571926,25.09592560240516,19.806869625785122,14.533765415997468,49.91056377364228,17.80068257872599,21.843280951857125
20.413383264602007,25.102416145396877,19.91493754477468,14.57708149552486,49.84058347840777,17.75492133111122,22.031360370921163
20.347542607019072,25.106953772390256,20.034991680262507,14.620982953891671,49.77770508912027,17.697277887696703,22.225305407696794
20.277896530549295,25.10976204206365,20.167640108248584,14.665180592089198,49.722374189556334,17.627896825396068,22.42378198334465
20.20476868954166,25.111089428294584,20.31363043397045,14.709385483085102,49.67494438769509,17.546950764811047,22.62548158715309
20.128469371032725,25.11120761098223,20.473882544819606,14.753314991803801,49.635682601688664,17.454638191172346,22.829147853962294
20.04928782010509,25.11039722765923,20.649559526496873,14.796695023882384,49.6047644362708,17.35118319257289,23.033587225064643
19.967485282592115,25.108927554456322,20.842100429072218,14.839256723468447,49.582255555064094,17.23683660310458,23.237663432361874
19.883295412786694,25.10704053508201,21.05317382413072,14.880730467419822,49.5680976403023,17.111878375307672,23.44028955969962
19.79693246567181,25.104942592208104,21.284593475451437,14.92084088864229,49.56211242451843,16.97662101216146,23.640425031307426
19.70859826384205,25.10279958539367,21.538250238098914,14.959304337891503,49.56401349442683,16.831411729996912,23.83707342321446
19.618481684656327,25.10073013580034,21.816064332883464,14.995827186697104,49.573409328973824,16.676631606270593,24.029276517275306
19.526755715140006,25.09880103519258,22.11993372486084,15.03010338473124,49.58980304832682,16.51269223584894,24.216107430178898
19.43357962451799,25.09703139620164,22.451674627638173,15.061813377293666,49.61260815878117,16.340030911619554,24.396670159793327
19.33910582429957,25.095402694947722,22.812985202645933,15.090628920501445,49.64117813350629,16.159106271617983,24.570108987732795
19.24348420591204,25.093864280420945,23.205460542130464,15.116223595850705,49.67482505006274,15.970396127893755,24.735621151447585
19.146860820094137,25.09232957489856,23.63063503539326,15.138281980824297,49.71281725972274,15.77439572573234,24.892461922812227
19.04937886386368,25.090668175004286,24.09000446581053,15.156503230781595,49.754376577790765,15.571613508462217,25.0399390430855
18.951193303963528,25.088704685473783,24.58502380743196,15.170602607224662,49.79869849478369,15.36256570418667,25.177403154694996
18.852497425487197,25.08623341179792,25.117098445435197,15.180314142681777,49.84498775617374,15.14777516579342,25.304243519590127
18.753543286311977,25.08304333493691,25.687556482202016,15.185393502563821,49.89247879463866,14.927777466273277,25.41989245232283
18.65464213510221,25.078934258375448,26.29759352021645,15.185622299686118,49.940438153472364,14.703130334319631,25.523831762993034
18.556151639724266,25.073715713051595,26.948227175017042,15.180818101862302,49.988185729162986,14.474419373709027,25.615592986997424
18.4584656431495,25.067200337236322,27.64030431913718,15.1708491461566,50.035148954108564,14.242255991619578,25.694754004798078
18.362009491606347,25.059202347164046,28.37454552146122,15.15564581365891,50.08090732377653,14.007268548001505,25.76094398725766
18.267231412846225,25.04953708445725,29.151578776701506,15.135202965292015,50.12519262951301,13.77009160798608,25.813861646025433
18.174585773189616,25.038016857522663,29.97196879543957,15.109574439476711,50.16787250810776,13.5313586799069,25.853293671226673
18.08451647817093,25.02444899022897,30.83627530509573,15.078863760633551,50.208956663498775,13.291700339559988,25.87911707618057
17.9974510661675,25.008643030883707,31.74510575979957,15.043213762602965,50.2486163089266,13.051744729738068,25.891287606957505
17.913805119811723,24.990422877120366,32.69909880711855,15.00279952826319,50.2871820528246,12.81211631013693,25.88983058473478
17.833984588123894,24.96963267158546,33.698842653532715,14.957833325565801,50.325111995417714,12.573433855126353,25.874842763398167
17.758377148772663,24.946133298962867,34.74478400169365,14.908583390811264,50.362956096616564,12.336312724170144,25.846496302128166
17.687338031533336,24.91979735692555,35.83716568841747,14.855391419495819,50.40133831862997,12.101370688038534,25.805033213670846
17.621181881122187,24.890510005109373,36.976001230004016,14.798672892612418,50.44094590567055,11.86922907567322,25.750751522256678
17.56018405364388,24.8581745885429,38.16108503352819,14.738902886547548,50.48251740606446,11.640505040767597,25.68399120304696
17.504582577562104,24.82271568090724,39.39202781675023,14.676600765213927,50.52684562655014,11.415799674008912,25.605122988651498
17.454572799020436,24.78407467151249,40.668299418858005,14.61232147457896,50.5747912652035,11.195688206756529,25.514538053529627
17.41029849002813,24.742202041124443,41.9892630695882,14.546650966007581,50.62727227806059,10.98071521107181,25.412637894954
17.371847450900326,24.697055596571005,43.354183771644536,14.48019892191366,50.68521701794904,10.771393834262549,25.299828868897222
17.339253079065806,24.648607655985543,44.76220319772963,14.413586110909762,50.74951120399005,10.568204693195819,25.176527781958303
17.312497043385665,24.596852222580548,46.21229516617518,14.347429309307946,50.820979119965166,10.371591679103261,25.043178953751262
17.291508806229544,24.5418021186112,47.703233881258996,14.28232705812289,50.90041151487641,10.181957363403226,24.900272709358404
17.276163451030392,24.483478366106475,49.23362402207513,14.218846894391673,50.9886056594252,9.999661973140373,24.748351240611534
17.266285130355744,24.42190289944077,50.80200072983185,14.157514701978378,51.086369344622476,9.825025729085562,24.587997754581878
17.26166145874322,24.357101572741513,52.40691658648348,14.098810472575673,51.19448030768601,9.658330526271666,24.419819830626317
17.26206161418742,24.289112939144783,54.04694401248589,14.04317454492084,51.313629771512424,9.49981890599909,24.244441974242484
17.267244849278068,24.217991688273123,55.72062309520094,13.991020273542851,51.44437886717752,9.349695328755946,24.06251037108329
17.27695765697635,24.143803314193327,57.42642545233525,13.942743332867128,51.58714054457076,9.208137447953332,23.87469839539501
17.290930142345342,24.066620102399227,59.16277092628954,13.898722557701115,51.742186400933306,9.075315625296613,23.681704053055267
17.308879823321377,23.98652773075219,60.928071758475326,13.859318597430985,51.909671283567974,8.951407713328758,23.484243000912524
17.330519553111547,23.903636064616318,62.72074214176897,13.824882855578593,52.08965920761838,8.836600210828797,23.28304358387292
17.35556055704654,23.818080833921744,64.53915286815294,13.795777221752687,52.282131831624746,8.73108461230612,23.07884464771944
17.383708326917503,23.730014694223527,66.38157538690109,13.772388010047175,52.486987095759794,8.635071532732717,22.872391148646287
17.414657920926526,23.63960018415152,68.2461534539182,13.755121875929891,52.70405281677035,8.548832032936119,22.664422728713955
17.448095247162616,23.547016250725648,70.1309004513284,13.744388814874409,52.93312612067853,8.472739867347896,22.455658898557072
17.48370336361237,23.45247326699606,72.03374295558015,13.740585320827863,53.17404166749759,8.407281368511871,22.246792132245588
17.52116654749782,23.35621950694937,73.95262619322202,13.744089204294971,53.426748419314386,8.353037910042199,22.0384930919342
17.560167880409683,23.25853181893966,75.88559939228857,13.755267128804599,53.6913446206896,8.310672423167578,21.83141604139936
17.6003829535726,23.159698132466083,77.83081506734219,13.774481687124721,53.96807502195616,8.28093056568253,21.626192936273373
17.64147352032598,23.06000036042629,79.78650906341134,13.802086587318025,54.2573665816069,8.264636501044741,21.423421625325265
17.683082874361563,22.959699688263065,81.75101801503548,13.838413834842843,54.559926757350006,8.262672039072749,21.22366070263633
17.724833297401407,22.85902368371278,83.72279733332482,13.883763685135056,54.8768491804377,8.275963978822938,21.02743355090315
17.76632474075644,22.758157589884302,85.70042948190047,13.938402060718925,55.209685861639805,8.305506687716829,20.835231840159164
17.807135798745307,22.657245454609914,87.6826527830599,14.002560200180918,55.56046446589656,8.352402874228046,20.64751068001873
17.84683334452011,22.556404042281738,89.66840484125693,14.076428170630344,55.93163396003173,8.417884583266643,20.464683562292727
17.884994370928784,22.455742077484587,91.65687827924167,14.160141219326073,56.325978180515285,8.503303517074617,20.287134435588904
17.92122955411001,22.35537063821765,93.64759269955812,14.2537661253254,56.74656503239027,8.610101161052187,20.115248830016977
17.955194108291757,22.25540098864737,95.64042206916366,14.357295577932735,57.19673129278996,8.739775509105844,19.9494408568026
17.986585604829134,22.155941940416465,97.63551744271977,14.470651853225904,57.680045380165744,8.893866172415796,19.790154779048194
18.01513955222995,22.057106483076367,99.63317107612232,14.593691995362494,58.200218536848666,9.073972349996689,19.637846286487463
18.04062915522422,21.959021110903187,101.63372120923123,14.726206489441408,58.7609842362904,9.281801322150676,19.4929613129627
18.062865345765836,21.861825791572222,103.63752430434675,14.867913400401836,59.36599570904607,9.519219501941077,19.35592093121127
18.081691184769266,21.765664923857194,105.64493583094978,15.018456989197704,60.01877572709689,9.788290556481744,19.227110264810715
18.096972963595686,21.670681649929648,107.65628617457376,15.177415105944522,60.72268092787936,10.09134985161449,19.10686845925386
18.108597688517854,21.57702244523548,109.67194733951081,15.344309637239604,61.480834930644036,10.431128940470417,18.99548148760472
18.11648284118278,21.48484350415299,111.6925113011737,15.51861229646197,62.29605703516957,10.810820726878918,18.89318122829145
18.120590673774405,21.394308982881387,113.71890532777353,15.699745364664551,63.17081895492733,11.234018692106476,18.80014931432188
18.120933043356114,21.305585589418126,115.75232262606478,15.887081891824037,64.1072133956806,11.70463609243958,18.71651862139924
18.117565543629727,21.218844699489573,117.79408560961659,16.079947426627324,65.10691704551546,12.226932310881416,18.642367294765272
18.110583787863977,21.13427407912823,119.84556959100681,16.2776218228182,66.1711443310618,12.805606865492429,18.577708469991993
18.100128640781453,21.052089491014225,121.90813859796822,16.479339936559466,67.30059434700529,13.445815841509633,18.52248403871563
18.086391024970215,20.972534313902095,123.98303115367519,16.684292028714253,68.49541911242994,14.153089281948992,18.47656866915907
18.069605675113493,20.895866230983007,126.07124364332587,16.89162792703214,69.75523891274285,14.933252031951536,18.439782871366702
18.05003701253057,20.822342645054206,128.1734568068077,17.100472923308956,71.07919431427804,15.792361036473586,18.411906500461058
18.027969088404173,20.752215455025677,130.28999324799702,17.309956271015142,72.46601753376822,16.736593670402065,18.392684165226562
18.003705086544258,20.685732745776445,132.4208022124282,17.519237031304883,73.91409914645786,17.772107259190367,18.38182208245038
17.977568512531892,20.623136199454006,134.56549355672382,17.72751281036946,75.42150931488112,18.9049459190093,18.378982387765372
17.94989649923168,20.564650589642927,136.72341799074715,17.934014506420368,76.98597000863033,20.14099031250759,18.383779321066324
17.92102826042569,20.510476619708776,138.89372655266266,18.137998124588876,78.6048224197162,21.485870222507153,18.395777075080293
17.89129911617217,20.460798543288057,141.07535560934716,18.338739091033958,80.27501901998356,22.94480987382606,18.414488568150386
17.861043629055395,20.415799655089153,143.26699616248902,18.5355280457464,81.9931309851558,24.522472192087687,18.439377638228564
17.830600961808322,20.3756676720904,145.46712200905037,18.727665905938448,83.75535570686571,26.22288071890937,18.46986934036412
17.800313404539576,20.34058484852865,147.67403107596195,18.91446007114613,85.5575322351443,28.049438139907775,18.505368899469524
17.770516359092376,20.310715144596937,149.88581217122578,19.0952278820184,87.39517781093154,30.004998578095716,18.545280524589884
17.741525315866866,20.28620181810829,152.1002532842284,19.269309478220926,89.26353119107156,32.09192652990804,18.589015507716496
17.71362508627335,20.267175200963614,154.3148047041994,19.436081470987435,91.15758147069616,34.31212129504666,18.635989958330235
17.687062309892905,20.253757822762037,156.52666787688224,19.59496114638063,93.07209139129945,36.66703004709478,18.68562171807467
17.66204039451445,20.24605780215026,158.73293612685552,19.74540352917638,95.00163027086938,39.157639951917545,18.73733209705207
17.638718195464335,20.244157121686598,160.93065712766943,19.886903489843846,96.94060231928574,41.78442486256041,18.790548690909297
17.61721600708941,20.248108276107274,163.1168009404719,20.019007868241022,98.8832556733875,44.54726663890738,18.844703903117143
17.59762934347323,20.25794068157931,165.28824315839898,20.141331054798297,100.82369017357112,47.44538683702864,18.89923068509522
17.58004356943316,20.27366385597189,167.44183537249518,20.253570218082782,102.75589079293972,50.47731663646852,18.953563280060933
17.56453962828496,20.29526156300911,169.57448503187834,20.35551935540295,104.6737928931919,53.64094836524662,19.007148961970973
17.551188205294256,20.322691164325597,171.68313889853135,20.44707378211062,106.57135826017033,56.93366338587461,19.059465837292056
17.540039709804446,20.35590228107324,173.76469785793725,20.52821973526878,108.44262538643392,60.35242135408504,19.110033757603787
17.531120383584977,20.394863300837418,175.81596354491836,20.599016257085367,110.28172422579614,63.8937275221335,19.15841302816487
17.524437021318793,20.439570504011993,177.8336423565124,20.659577256626964,112.0828843405674,67.55354160394228,19.204197487976355
17.519981750665725,20.490033874406574,179.81434670004504,20.710055066741926,113.84045690342913,71.32722276690606,19.24700811216059
17.517729481393967,20.546254135314758,181.75455081030796,20.75062520711172,115.54894288519978,75.20953091826502,19.286487009900554
17.517633497402795,20.60820211437784,183.65053338052059,20.781473871024236,117.20301425873787,79.19466267156263,19.32229117218011
17.519630058333632,20.67580149524161,185.49836205318363,20.802789473664525,118.7975220384334,83.27630723592823,19.354088160261053
17.523651913584875,20.74891537358568,187.29392823163369,20.814757394585897,120.32749378140035,87.4477276542134,19.381556574827545
17.529638022435734,20.827342861878137,189.0329977124614,20.81755918462907,121.78813168009493,91.70185356288484,19.40439299443012
17.537530793755398,20.910834316799686,190.71125420173956,20.811384231015705,123.1748177446218,96.03132396142891,19.422323116918182
17.54726657224046,20.99912181871621,192.32435037762562,20.79645664526806,124.483120818481,100.42846653833367,19.435109345580884
17.558770808896277,21.091945062057295,193.86798287570184,20.773061187545608,125.70880961913473,104.88530553880007,19.442549761837196
17.571962568543597,21.18905665582396,195.33796100821112,20.74154945633334,126.84788808622712,109.39364809612177,19.444473986139464
17.586762523817807,21.290211873073243,196.73023095000858,20.70233004973495,127.89664449054935,113.94516240164955,19.44074643069851
17.603095258964338,21.395160381531745,198.0408859775255,20.655863614278264,128.85167927269706,118.5313810270079,19.43127901513768
17.62088417975926,21.503652205114058,199.26620473759374,20.602672995894174,129.70990285771728,123.14368840412017,19.416041990749008
17.640047387746232,21.615455332364064,200.4026818174251,20.54335502203204,130.46853811438908,127.77334106093497,19.39506240999473
17.660504168323563,21.73037031670617,201.44701736520983,20.47857841026573,131.12514780042994,132.41147657140235,19.36841370025287
17.68218894036334,21.848228999709523,202.3961128619396,20.40907204764647,131.67765681181126,137.0490790090192,19.336207319648164
17.70505749312132,21.9688827076878,203.24710405672224,20.335616355604646,132.12433938543276,141.67693852698514,19.298595151883788
17.72907907964492,22.092209391617654,203.99739109955283,20.259038728416353,132.46378583186834,146.28565582698016,19.25578233215062
17.75422657098068,22.21817247197462,204.6446549204773,20.18020566010048,132.6948826058144,150.8656981673901,19.208038679012347
17.780481036286506,22.346923551976076,205.18689363359286,20.100013719907412,132.81682467866088,155.4074639892407,19.155697874522733
17.807850437706858,22.478888365017635,205.62246943736332,20.01938779918937,132.82914895658465,159.9013171298322,19.099146985185957
17.836383097043257,22.61478004317271,205.95014133264033,19.939282679454156,132.73175733692224,164.33758866581329,19.03881403666503
17.86616239379818,22.75555342853662,206.16909011430778,19.86067637902253,132.52491907794445,168.70655404348082,18.97515484032221
17.897290936712963,22.90237444336534,206.2789294951137,19.784552239631182,132.20926971972244,172.99839750750323,18.908638316701268
17.92987858506177,23.056659387741053,206.27969762299426,19.711876699176443,131.78581349602615,177.2031902870468,18.839734885374536
17.96403746790054,23.22015778175474,206.17184752620582,19.64359516740956,131.25591790051234,181.31090012910576,18.76891390739261
17.9998773815757,23.39500381694389,205.95623348693084,19.580682377911618,130.6212930469913,185.31142729091448,18.69664813690388
18.037496162326722,23.583696739615235,205.6340682310133,19.52424458851754,129.88396566323306,189.19465816409203,18.62341499142535
18.07696749404434,23.78903795075981,205.20686118176803,19.475606006641048,129.04626330108752,192.95053396435952,18.54968989972616
18.118333497698,24.01406633274803,204.6764014827155,19.43634460196627,128.1108042437268,196.56912798887166,18.47593870063001
18.161605178153117,24.26198679081309,204.04481652992018,19.40833540840744,127.08047551166945,200.04071886219464,18.402615891235385
18.206764706060735,24.53607133209587,203.31462571219328,19.39383390994753,125.95839917887065,203.3558513908817,18.33016577753665
18.25376269157886,24.839557824891756,202.4887046243494,19.395526746484567,124.74790824894767,206.5053853783115,18.259019738323683
18.302511321826117,25.175599588383445,201.5701865819189,19.41648357160462,123.4525511674598,209.480543399721,18.18958833156394
18.35287781193643,25.54727583965802,200.56237341631996,19.460043425688397,122.07611347420409,212.27296822900456,18.12225272249617
18.404680045226247,25.95761660991652,199.46869363558946,19.52970312349753,120.62261979993944,214.874775790112,18.057361547277925
18.457684141149702,26.40960655872457,198.29270545747508,19.629030334034415,119.0963045219687,217.2785929249003,17.995236889141847
18.51160330212932,26.90616393939936,197.03810152644851,19.761591217516855,117.50157894146265,219.4776236939612,17.93618434719365
18.56609806714651,27.450089019919005,195.70867529222923,19.930886194252608,115.84301415241504,221.46578238323437,17.88049597947261
18.62078224855824,28.04399078279167,194.308262588526,20.140319518395085,114.12532533081907,223.23783203708325,17.8284454829948
18.6752409116414,28.69021839716194,192.84070326077767,20.39328054385305,112.35334266777015,224.78944257997202,17.780294995776835
18.72905641733945,29.3908055483198,191.3098547843392,20.69336590974911,110.53198259707997,226.11718894164312,17.73633209783003
18.781826790857473,30.147447055770876,189.7196415636507,21.044596408377156,108.66623900080162,227.2185561565665,17.69692140031877
18.833167752690315,30.961555163520845,188.07407717642408,21.451464514770255,106.76118383973049,228.09194447377638,17.6625309982766
18.882706928640314,31.8343750195368,186.3772312943092,21.918868081279104,104.82194906615693,228.73663518757328,17.63372073945951
18.93008423807713,32.76705198026375,184.6331881307851,22.45206989768131,102.85368818376188,229.15272089243754,17.61111768491928
18.9749617863613,33.76059749597039,182.84604133748195,23.056670401571186,100.86154941256947,229.34103499753428,17.595401482760966
19.017032934788855,34.815803631248926,181.0199156029929,23.73853218719784,98.85068120899356,229.30312224759342,17.587295022968448
19.056021719309555,35.933176113660586,179.1589825348515,24.50370016535332,96.82624519949127,229.04125650575685,17.587545679429486
19.091678174171008,37.11294458834231,177.2674505410291,25.358384709358823,94.79339924101001,228.55845044639295,17.596895759795867
19.12378134527657,38.35515582513469,175.34955486043756,26.308988787806815,92.75725484250133,227.85841466347924,17.616055205243
19.152150263031274,39.65975160404772,173.4096079234134,27.362076939306224,90.72284661018541,226.94548942304397,17.6456867670321
19.176649674137305,41.02654438209361,171.45209492690512,28.524227094332065,88.69512964828292,225.82458926026985,17.686398263859143
19.19718268954676,42.4551259260321,169.48172137115924,29.801863922990222,86.6789781646517,224.50117245375742,17.738730226761987
19.213677725906525,43.944785773332384,167.50339749058267,31.201219305283246,84.67915964323375,222.98121592447595,17.803137610078217
19.226080343247556,45.49448051428278,165.52222584116987,32.72840601243285,82.70029783304706,221.27117119791123,17.87997341821885
19.23435178375786,47.10285981380484,163.54349327776913,34.38943358782135,80.74685022766681,219.3779122312875,17.969478476171457
19.238467850046302,48.768313848986274,161.5726168184183,36.190074198059364,78.8230985565417,217.30870954370724,18.071774473372606
19.238413061808995,50.489015616676,159.61504935602287,38.13569810721399,76.93313110223299,215.07123026478138,18.18686005781039
19.234172413508333,52.26299009796467,157.67620666484422,40.2312170802521,75.0808128565058,212.67352377736213,18.3146200380257
19.225726470300717,54.08820997535953,155.76145903904904,42.48109295843015,73.26976528802291,210.1239738369095,18.454854574418253
19.213051857639012,55.962638171335364,153.87615923815542,44.88928575395717,71.50336698341056,207.4312359047935,18.607312878026228
19.19612317506754,57.88418446394067,152.02564409329267,47.45911596355629,69.78475461302828,204.60417313845514,18.771707704893043
19.174913202679253,59.85063443488766,150.21519147206493,50.19313302776,68.11680637252178,201.65178855403647,18.94770773554291
19.149396183659928,61.85960103956168,148.44996967840916,53.09306542121015,66.50212426579854,198.58316960044183,19.13492238664129
19.1195599212264,63.90850579110351,146.7350335536784,56.15984694470541,64.94303716019171,195.40748961814998,19.332891758829074
19.085421589811304,65.99458298560988,145.07536835905404,59.393739396265666,63.44161399015154,192.1340749027548,19.541086054091178
19.04703543387877,68.11490038154774,143.4759008819881,62.7945585160738,61.999661605966864,188.7724702655762,19.758909170032588
19.004488659971127,70.26638442185615,141.9414266878048,66.3618722056978,60.61870312297628,185.3324436668415,19.985697339536078
18.957895039604573,72.44582691495033,140.47651439740352,70.09506252418045,59.29995421340648,181.82393813370308,20.220711684814184
18.90740066781411,74.64986035992435,139.08546318246502,73.99330350968773,58.04431976967453,178.2569978740706,20.46313132886423
18.853204097802443,76.87491899640278,137.77230179700834,78.05552565302413,56.852419956314506,174.6416906766584,20.712052622238076
18.79557302546168,79.11722635577212,136.54076703884502,82.280349324033,55.72462444491518,170.9880489627512,20.966494990184298
18.7348408530535,81.37283604328934,135.3942384363912,86.66595103206153,54.661069097409026,167.3060251311037,21.22540963005712
18.671388570076893,83.63769432436112,134.33567308787158,91.20989763735038,53.661668646991956,163.60544240391022,21.487688601807076
18.60562966447976,85.9076754078185,133.36758889840496,95.90904048796827,52.72615287568375,159.8959560174978,21.752179329966584
18.538007064827347,88.17858649229315,132.49208372157042,100.75950638362674,51.85411091753348,156.18704538627634,22.01771147787787
18.468995031721203,90.44616576681628,131.7108541134344,105.75671687124063,51.04500605350663,152.48800899546015,22.28313052410908
18.399094307103983,92.70609242581621,131.02521589047828,110.89540235285062,50.29816193977237,148.8079350072196,22.547320263601943
18.328818686134735,94.95401766804265,130.43615246361892,116.16966686142537,49.612756899166,145.15568109062033,22.809205450690218
18.25867993880955,97.18560423585762,129.94437478694522,121.57308154018808,48.9878431759345,141.53989324831716,23.067744148412462
18.18917772763009,99.39655886724275,129.55033372525364,127.09870886737718,48.42236631286043,137.96903023353173,23.321923331650044
18.12079499358683,101.58265853543999,129.25417826717705,132.739038226103,47.915160032127794,134.45135520852264,23.570761300980926
18.053993147691354,103.7397620711914,129.05571183039848,138.48587946394767,47.464929872766405,130.99489927856612,23.813310345096486
17.98920272753495,105.86378635130032,128.95436259475062,144.33025680535724,47.07025584471842,127.60741409311757,24.048653477054803
17.926812160717052,107.95065090224323,128.94915413802596,150.2623367576368,46.72961950391659,124.2963211680975,24.275897353669453
17.867161440597158,109.99622785379354,129.03867997262014,156.27143158857922,46.44142948269378,121.0686629461407,24.49416696534511
17.810543616149005,111.99635102899146,129.22107610085527,162.34612383287143,46.20402686321128,117.9310636473711,24.702603652075563
17.75720806705559,113.94690790074254,129.49397970556217,168.47447801516648,46.015684395828195,114.88970554889325,24.90036400310296
17.707358445003575,115.84395205830015,129.85449329157473,174.64421615886684,45.87461624720123,111.95031382248196,25.086617903178972
17.661147151559362,117.68374623010448,130.2991793450794,180.84279379318522,45.778988553283895,109.11813851761187,25.260547573788447
17.618674039839203,119.46274297072408,130.82407851400518,187.05740897401876,45.72691294007545,106.39793082622684,25.421352348730046
17.579992697778554,121.17760320077862,131.42472745173666,193.27497924945803,45.71643002441752,103.79392199674726,25.568263077268934
17.54511865522631,122.82529452786662,132.09616458289386,199.48211638020987,45.74551426401359,101.30981862197152,25.70056210298547
17.514032149173126,124.40317694736429,132.83293772631725,205.66513541385604,45.812113185793415,98.94880939472593,25.817597402309918
17.486676706487536,125.90899563550761,133.629136839425,211.81012818131782,45.914188330582796,96.713557479692,25.918786932979753
17.46296209404711,127.3408271579487,134.47845213060134,217.90310950071571,46.04972347258368,94.60617664363755,26.003624349157786
17.442776366581924,128.69704349722804,135.37424384109295,223.93019496379225,46.21671887790062,92.6282281352086,26.071696912027704
17.426000274173404,129.97628634069753,136.30961441424537,229.8777667802071,46.41321532263533,90.780761382281,26.12270794721556
17.412513600792696,131.17742540009394,137.2774656269631,235.73261371149835,46.63734454504196,89.06437225837716,26.156485721486206
17.402193589422247,132.2995083781743,138.27052668802995,241.48201248447984,46.88735673199119,87.47923778304457,26.1729745982166
17.394916146557673,133.34173674009597,139.28137229997284,247.1137534524891,47.16160243445816,86.0251161560742,26.172221929484593
17.390566875637084,134.3034860539118,140.302460840614,252.61618965343817,47.458501111644686,84.70133321715223,26.15437215950624
17.38905491498994,135.18434856370968,141.3261975228238,257.9783193573385,47.77653002658298,83.50677539349795,26.119665735635273
17.390316473268186,135.98416577607108,142.34502219276368,263.18980852754,48.114223842816465,82.43988701190493,26.068434008594068
17.394305533397258,136.7030429018995,143.3515297454634,268.24095001443715,48.470159124602596,81.49866991663977,26.00108800774688
17.40098140686868,137.34135124806755,144.33861175388276,273.1226817516711,48.84292625782625,80.6806953319536,25.918108823894976
17.410301786101726,137.8997123675474,145.29958780200187,277.82670076783376,49.23110721027095,79.98313505296046,25.820046563977705
17.422219869029988,138.37895180964728,146.22829718218938,282.3455550035376,49.63325905964037,79.4028161618095,25.707522982282285
17.43667904424895,138.78003939694182,147.1191429057573,286.6726158250473,50.04789191490592,78.93628611934537,25.58122844240918
17.45360420464109,139.10404719665468,147.96710200989244,290.8019771740593,50.47344141748745,78.57984910738843,25.441916513062782
17.472896714576017,139.35212205585893,148.76771726163452,294.72839739443236,50.908250588828615,78.32955802431798,25.29040732892818
17.49444019225299,139.52545312772924,149.51707762814254,298.4473310008947,51.35058294474476,78.18119029211726,25.127597536047606
17.518114088060493,139.62524628529184,150.21178655873254,301.95498157094397,51.79866916500775,78.13023390050569,24.954461915886156
17.543802289281743,139.65272423469239,150.8489209200033,305.24830505867754,52.250750364443235,78.17188994086848,24.772039406501708
17.571389794976238,139.60913256578604,151.42599352036234,308.3250075255327,52.70508620198746,78.30109008679167,24.581410189090423
17.6007562146957,139.49572358889782,151.94091363548642,311.18359125837407,53.159948685947484,78.51251896198339,24.383673525988637
17.631779659613162,139.31372314928748,152.39193806248738,313.8234058742357,53.613640750759586,78.80063769056831,24.179929932756288
17.66435121402884,139.06429799328473,152.7776524252179,316.24469452560703,54.06453583400933,79.15973345150685,23.971265135016363
17.698385857662153,138.74853778383067,153.09700932504023,318.44867260741916,54.51109827486237,79.58400868680117,23.758733174012512
17.733821337585688,138.36748061918877,153.3493603143969,320.43757551918554,54.951865468477756,80.06766439918668,23.543341146171592
17.770612075500047,137.9221903026585,153.5344239663238,322.2146145625148,55.38541441734511,80.60492549170085,23.32604260067021
17.80872696554114,137.41383030262097,153.65224872498786,323.78390552859065,55.810347037109835,81.19002016087187,23.107743689884046
17.848149558445286,136.84369134030368,153.7032613093732,325.1504200698844,56.22530623036504,81.817164740254,22.88931435083199
17.888873270723597,136.21320038641952,153.68837797833166,326.3199126371535,56.62900312934064,82.48058462438097,22.671590670570986
17.93088909055973,135.5239387914527,153.60906182148636,327.2987781711525,57.020234272822314,83.17456433240162,22.455365955693118
17.974171175245374,134.77765719807806,153.46727358132227,328.09387722687785,57.39789239154868,83.89349989548661,22.241383178803783
18.01866763939042,133.97627529494858,153.2653950362868,328.7124030668045,57.760977013152335,84.63192793165082,22.030341293202397
18.064299294850425,133.12187655722138,153.00620393347643,329.16180611711957,58.108592755144386,85.38452427528826,21.82291114146227
18.11096249928964,132.21670782853153,152.6928585751552,329.4497348676071,58.439928876026784,86.14608421543794,21.619743745917237
18.158529382417274,131.26317193082392,152.3288164200343,329.5839898933347,58.7542391511282,86.91150292399757,21.421466538615235
18.206843118648603,130.26381461455463,151.91770217156957,329.57252381548926,59.050840352333104,87.67577991567286,21.22868821800966
18.255714154333,129.22133815507047,151.4631970889648,329.4234778120035,59.32911792596153,88.43406046342209,21.042031387161764
18.3049276122758,128.1386386229375,150.96898126537232,329.1452079987163,59.58851643086456,89.18168969289891,20.862176665074593
18.35426296826296,127.01881466025037,150.43869582129452,328.7462570974869,59.82851850101207,89.91424639481488,20.68988074942228
18.403511085631333,125.86512801937216,149.87588392010915,328.2352426509037,60.04864053550755,90.62756070276609,20.52595815502633
18.452476060761047,124.68095127614653,149.28392232085315,327.62070234722387,60.2484548378915,91.31773877343616,20.3712513983707
18.500968424439257,123.46973257320893,148.66597980557717,326.9110311886314,60.42760963313645,91.98119383248921,20.226610622515274
18.54880318834452,122.2349711655931,148.02500070727262,326.1145775715659,60.58582379670101,92.61466165883003,20.09287907387332
18.595804996760872,120.98018728094192,147.36368811435534,325.2397551356832,60.72287750629609,93.21519085266881,19.970873292762356
18.64181180772547,119.70888691285985,146.68448390311124,324.2950214898679,60.838631904074155,93.78012753236194,19.861356761795886
18.686671075319442,118.42453706763288,145.98956122684487,323.28878135695317,60.933068759980394,94.3071242657079,19.76501263317753
18.730233127233035,117.13055774043423,145.28084525510326,322.2293126361132,61.006307998297004,94.79417233015522,19.682420442666597
18.772351174784728,115.8303186661166,144.56006829872678,321.1246904054946,61.0585892431936,95.2396240171934,19.61403928434101
18.812889039835994,114.52713560731881,143.8288382067904,319.98267872992614,61.09025005997482,95.64219163046673,19.56019788320924
18.85172677875615,113.2242740982108,143.0886824643077,318.8106283781936,61.10172952989413,96.00093867613423,19.52109140800892
18.888758387107494,111.92495573257902,142.34105789054428,317.6154066905915,61.09358311304142,96.31526452548312,19.496785324076157
18.923887811107008,110.63234777756506,141.58735512068108,316.4033834978214,61.06647654122522,96.58487004709212,19.48722586342631
18.957030546308047,109.34953048836111,140.8289217744262,315.1804930992286,61.021156212671805,96.80970831629072,19.492252986662557
18.988120300134913,108.07947032045294,140.06709652142024,313.95230707630583,60.95842899000423,96.98993909043179,19.51160849095106
19.017114101289096,106.82503131081434,139.3032331050441,312.7240417170783,60.879174714092535,97.12589672469674,19.54493592475281
19.043993049389535,105.58900627571545,138.538692791088,311.50050115855464,60.784370599360344,97.21806350905656,19.591776098295405
19.068770836881363,104.37411889434298,137.77481707504967,310.2859869485424,60.67508996247546,97.26703977770808,19.651564619284745
19.091523038695506,103.18298339656496,137.01293724622582,309.0842272796594,60.55247271490273,97.27351518815357,19.723637483409966
19.112422731223393,102.01805243289067,136.25442936664263,307.8983708534788,60.41770152038036,97.23824544124881,19.807245432417666
19.131752771426683,100.8815885054375,135.50073915518448,306.7310118993412,60.27200348727273,97.16203081442323,19.90156869420137
19.149889606335282,99.77566511034102,134.75334057656013,305.5842003277502,60.1166545722293,97.04570043846537,20.00572483677274
19.167282429052044,98.70217081563403,134.01369958088085,304.4594452184277,59.95296002972359,96.8901116618816,20.118773262786167
19.184452632148734,97.66279072080755,133.2832993439901,303.3577449984184,59.78222221755314,96.69615831954282,20.23972212345499
19.202019743199553,96.65897357523443,132.56366993973444,302.27968158729243,59.60572027325551,96.464772672615,20.367535958199923
19.220745924556237,95.6919096146546,131.85635924971973,301.22556058395253,59.42469914321337,96.1969157371658,20.501140087823426
19.241589070283496,94.76252302961534,131.16288247063576,300.19552586056557,59.24035059589868,95.89356057134428,20.6394222304713
19.26574531559055,93.87146563880465,130.4847079445974,299.18964810387274,59.05378926662205,95.55567929701857,20.781234210394537
19.294656234230445,93.01911231103962,129.82326081486082,298.2080210013835,58.86604758684754,95.18424340689987,20.925396777024954
19.32997659654226,92.20557236878356,129.1798959307063,297.2508166705392,58.67809803672968,94.78023692412663,21.07071047852678
19.373532539929947,91.43071246235662,128.55584182411778,296.31827247010636,58.49087566142477,94.3446746392465,21.215973112854922
19.42734614768378,90.69417293685741,127.95215045222322,295.4107007166048,58.30527373466737,93.8786127402349,21.360000932775915
19.49379275402936,89.9953973706803,127.36966892969106,294.5285988045723,58.122126257087956,93.38314566839898,21.501650532505135
19.57580999976049,89.33371300392183,126.80903246301283,293.67279881164427,57.94220617584188,92.85939889880582,21.6398399537958
19.67698133874756,88.70843119840903,126.27066840907115,292.8445518475293,57.76623392531015,92.30852347343529,21.773565370968562
19.801462984473073,88.11889707403358,125.75479275242134,292.04551593330206,57.59486908715166,91.73168524120342,21.901907059726835
19.953884536167074,87.56449294464299,125.26139566229362,291.27767145554503,57.42868007218967,91.13004532727807,22.024023757514712
20.139287491866938,87.04465050125273,124.79023027468773,290.54319833405714,57.26811327226913,90.50474108335932,22.139142750552875
20.36305109010497,86.55886714425459,124.34080781628366,289.8443506184857,57.11348789390584,89.85688888468106,22.246554195089637
20.63081242664936,86.10668661836473,123.91238865864165,289.18340222830454,56.965021574066434,89.18761917738767,22.34561139977706
20.94846153000261,85.68765134974424,123.50396712796821,288.562731415836,56.82285760733356,88.49812051370394,22.435731330520458
21.322183431504506,85.30126665220455,123.11426779123617,287.98494545058526,56.68706694773646,87.78966458042837,22.516391460276747
21.758423214078018,84.94699641343541,122.74177574291623,287.4528683179982,56.55763927245172,87.0636112068619,22.587127581268767
22.263780227526773,84.62427173201019,122.38479684493937,286.9694205136248,56.43448986371099,86.3214073572866,22.647539848826717
22.844966068331164,84.33247792626774,122.04151694975967,286.53754774664486,56.31747691956759,85.56458622760137,22.697305928001494
23.508838136884684,84.070911190315,121.71003655336264,286.160211480525,56.206404255090376,84.79476033638842,22.736189619313276
