HandOpen,HandClose,Wrist Flexion,Wrist Extension,Supination,Pronation,Rest
78.23861263367891,149.39717373386992,139.18415034393112,203.04257167971127,61.84028181120811,106.3998894458329,85.92830294167298
79.38522643662364,148.7597962043451,142.57929390637594,201.93146070936805,61.769653055258864,105.99594037921148,85.87909195106906
80.57051449693797,148.07015137983126,145.98944988788173,200.92752168676358,61.701480595613866,105.69107558300999,85.82501322259358
81.7883116422931,147.32916339138586,149.40980852607555,200.02662469589254,61.63568709288898,105.48215882915521,85.7662829746642
83.03237530038321,146.5379141035918,152.83523256294106,199.22424658921335,61.57216603117099,105.36559414919161,85.70310991071933
84.29643463338807,145.69765052356766,156.2602168096797,198.51555194394257,61.51076759364276,105.33740419674491,85.63571198937778
85.57423892762631,144.80978651883908,159.678961243674,197.89542977470404,61.45128791634663,105.39332931152921,85.56435254168007
86.85960555254778,143.87588097563287,163.0855797278371,197.35849948690102,61.39345621896153,105.52891585911024,85.48934098278808
88.14645037912989,142.89761141722587,166.4743442559341,196.89916219395744,61.3369272891397,105.73956790479178,85.4110000922433
89.42879361209148,141.8767534293421,169.8399234018965,196.51171818383773,61.28128939610328,106.02056088724969,85.32965232325883
90.70075480815272,140.81516761638858,173.1776299326533,196.19047929095646,61.22608081875226,106.36703772707183,85.24564109308606
91.9565621889736,139.71480091653154,176.48361434760915,195.9297996050181,61.17079491038117,106.77403347382571,85.15934149014909
93.19059281365224,138.57769052818227,179.75493885671085,195.72402438583595,61.11487497903474,107.23655529018978,85.07112989236161
94.39742634236129,137.40596256400838,182.98954644701834,195.56741898012373,61.05773188764184,107.74965951943237,84.98134698155553
95.5718797196344,136.2018322177442,186.18618287310957,195.4541271269971,60.998798748871835,108.30846338415117,84.89030086065277
96.70902253764865,134.96759619584284,189.34431073846974,195.37817140956466,60.93758323144969,108.90813152482689,84.79829934292822
97.8041954041347,133.70562692728927,192.46399356872917,195.33348723910777,60.87367644532216,109.54390043354312,84.70565848762735
98.85303050189033,132.41840443192453,195.5457421009114,195.31395523447375,60.80673265729793,110.21111763063303,84.61267276474528
99.85145817677805,131.10856581565182,198.59037439148844,195.31341537020933,60.73645759268747,110.90525202079615,84.51959560298147
100.79571096117597,129.77890626677282,201.59891049625514,195.32573057616344,60.66261176194581,111.62190832723634,84.42666993842991
101.68235886748555,128.4323160865961,204.57248092265917,195.34494755670508,60.58500956392416,112.35688683636246,84.33417681583578
102.508371409432,127.07172057845204,207.51224228656807,195.36545612411794,60.50351328588382,113.10624149443998,84.24244338073255
103.27115146161128,125.70013106040763,210.41928976943097,195.38204171130883,60.41805169372374,113.8662729593289,84.15181156886258
103.96851611150753,124.32082032255559,213.2945497898109,195.38985916579563,60.32866964976021,114.6334875250123,84.0626234378457
104.59866122315336,122.93746136105595,216.1386893730291,195.38438576154024,60.235559931588654,115.40460126155229,83.97524414601017
105.16013552850143,121.55409972078864,218.952136487706,195.36137568067704,60.139043239190144,116.1765952248606,83.89007702684603
105.65180942672538,120.17502989027581,221.7352268365263,195.31684631836072,60.03952967902324,116.94674729520636,83.80753696218217
106.07283057667586,118.80469220231852,224.48832664726186,195.24709922666412,59.93750171321353,117.71259083488424,83.72801832566974
106.42258459707617,117.447600822291,227.2117974884865,195.14872184893053,59.83350752397798,118.47182963334484,83.65190576883813
106.70068171514042,116.10825886705516,229.90584379598047,195.01855269607202,59.72813515725159,119.2222708779061,83.57960974668276
106.90696709341006,114.79106841806717,232.5703489850815,194.85367174631025,59.621970975266564,119.96180069581534,83.51156997459618
107.04152803648282,113.50031625501279,235.20475094897103,194.65144450867965,59.51557445458688,120.68836890729709,83.44822150194405
107.10468260897406,112.24026160906655,237.80797659473365,194.40958102551068,59.409484106480164,121.3999479037564,83.3899756728431
107.0969698612635,111.01521187326065,240.3784648254672,194.12621291551096,59.30423352760644,122.09448382121502,83.33723713117041
107.01917706092067,109.82949670763058,242.91425448208895,193.79999894786283,59.2003536188573,122.769881828622,83.29041296810573
106.87240625244605,108.68740573750925,245.41304063221614,193.43020141334878,59.09836169653703,123.42404200530987,83.24988075697863
106.65812250416343,107.59317963607845,247.87217746805626,193.01674641601542,58.99875281717984,124.05492175572769,83.21594839694451
106.37813151980191,106.55104854315132,250.28870227024416,192.56034543527514,58.90199766819973,124.66057968269223,83.18885556088817
106.03451192755621,105.56525554770246,252.65938436761095,192.0626129154162,58.80853232538638,125.23919730501707,83.16880871957473
105.62956316639468,104.64003739664021,254.9807303514053,191.52605414139254,58.71873359187757,125.7891129889158,83.15599301358478
105.16578772302621,103.77961277518861,257.2489365372315,190.9539324689456,58.63289998220689,126.30885446141058,83.15053945039661
104.64587571910548,102.98821789464789,259.4598393264511,190.35011939237862,58.551260193818756,126.79712154840928,83.15249513103878
104.07267016713064,102.27011914016013,261.6088847471456,189.7190138285931,58.474003648572555,127.25272295255401,83.1618436696098
103.44914606209255,101.6295289381663,263.6910990608482,189.06552750796433,58.40130348529074,127.6745143902454,83.17855178448171
102.77843149016175,101.07047077913083,265.70106558515624,188.395057617724,58.33331403625899,128.06136158649326,83.20258133508234
102.06382921404762,100.5966657892325,267.6329392094139,187.7133980178908,58.27015863632693,128.41211279047758,83.23386090120223
101.30879342757544,100.21143741810819,269.48050290722983,187.0266206001486,58.211928600812435,128.72558277315946,83.27227158844968
100.51688603143016,99.9176038986892,271.2372375579687,186.34100693411926,58.158685543941345,129.00060885953064,83.3176708705715
99.69174908828403,99.717361148294,272.8963767664554,185.66305035961983,58.11045057375779,129.23619766963245,83.36990998307421
98.83707898283028,99.61219109948723,274.45094762507824,184.99942282930115,58.06719546516553,129.43164986149597,83.42880920789638
97.95657883004002,99.60284493054482,275.89382074233635,184.35683878257507,58.02886367310045,129.58656831318382,83.4941231012833
97.05391157647823,99.68940939974583,277.2177744194411,183.7418919111258,57.995413855283715,129.70079890653375,83.56554572622936
96.13269461303537,99.87138929509682,278.4155545809312,183.16094606702612,57.96685997765786,129.77437846176628,83.64274891536886
95.19652853596976,100.14775328020603,279.4799292710463,182.62011571562428,57.94330188265326,129.80749806567317,83.72539851398248
94.24900589326056,100.51695989437046,280.4037838837826,182.12534860993557,57.92494714492067,129.80047325300455,83.81312612349627
93.2936740695072,100.97697935923492,281.1803007205507,181.68251894198875,57.91211554247472,129.7537383355864,83.90549974166123
92.33398689986265,101.52530603974346,281.80316387203567,181.2973869292371,57.905215988488706,129.6678870801511,84.00203850987883
91.37328337716653,102.15898338202179,282.2666725004339,180.97541356588172,57.90469641365125,129.54373013246303,84.10225256535588
90.41478301584695,102.87468569881975,282.5657444099357,180.7215402990178,57.910984053850434,129.38231325743334,84.20565423621204
89.46157431148345,103.66885198209346,282.69589222511416,180.54002192892972,57.92444145419418,129.1849180183099,84.31173538139363
88.51662904368536,104.5377937856608,282.6532284812377,180.43434884864908,57.94535685071771,128.95309627148396,84.41996127129953
87.58289072064558,105.47773435865534,282.4344861475355,180.40726412668303,57.97396162435883,128.68869285143762,84.5298019461946
86.66338987246812,106.4848132351925,282.03706233913914,180.46082367838704,58.010441021335794,128.3937871815005,84.64075638804083
85.76128012658299,107.5550750751246,281.4591871344966,180.59640924485308,58.05492284669921,128.07058826891108,84.75233397472667
84.87977147934117,108.68444513531857,280.70023131352275,180.81467781414025,58.107463192595766,127.72137779263764,84.86402470014195
84.02202870961334,109.86871944009806,279.7609264399943,181.1155406590685,58.16803873810112,127.34853552818862,84.97530777129253
83.191099783373,111.1035812112686,278.64332721895994,181.4982284580285,58.23653204867277,126.95457771044539,85.08569140001481
82.38988664646372,112.38461745446982,277.35063561899915,181.9613639556905,58.31270557977324,126.54212868492738,85.19472886905059
81.62112651423965,113.7073030210082,275.8870488917116,182.50295771938747,58.39618196022487,126.11383841568328,85.30199015192969
80.88735111075941,115.06695167224673,274.257636670435,183.12035018559104,58.48644792416669,125.6723184808818,85.4070348624984
80.19083104355828,116.45868287362869,272.46819951959986,183.8101576153331,58.58287412009708,125.22013945366776,85.50943120129519
79.53353885621893,117.87744506188977,270.5251161358311,184.568240985997,58.68472534024838,124.75987470740169,85.60879816365036
78.91714173877071,119.31806222885372,268.43522304572747,185.38970176959143,58.79115206867702,124.29414817762421,85.70481450040279
78.34299823483958,120.7752496415687,266.20573719658097,186.26892104469226,58.90118104080096,123.82565007993126,85.79718964570512
77.81214187506855,122.24361390893311,263.844180084978,187.1996587653161,59.01372415807557,123.35711260647513,85.88564959029121
77.32527420992855,123.71767811260732,261.3582774300728,188.175217489769,59.12760455948125,122.89125743320925,85.96996186297271
76.88279531025401,125.19191400386636,258.7558601407792,189.18865637881174,59.24158256759927,122.43071957685811,86.04995499256349
76.48485753420027,126.66075586711263,256.0447974083255,190.2329913224227,59.35437198548011,121.97795344535427,86.12549570447462
76.13139545047746,128.1186259910783,253.2329631544499,191.30129343450145,59.46465862040308,121.5351452310483,86.1964597525348
75.8221124253767,129.55998823140087,250.32822097302036,192.38668316304356,59.57112958362649,121.10415770649219,86.2627459923561
75.5564553329442,130.97938462675697,247.33842269178606,193.48229667518905,59.67249548450249,120.68651910770441,86.32431436916806
75.333621719044,132.37142616436418,244.2714236340271,194.58127908932425,59.767490219767204,120.28346310737179,86.38119015948344
75.15260807688826,133.7307797762132,241.13509944379624,195.67683900221175,59.854866865330266,119.89601001711915,86.43342983790806
75.0122565189188,135.05220290504795,237.93734787340284,196.7623718984937,59.93342690657492,119.52503432981639,86.48110195769242
74.911258478815,136.33061317541788,234.68607984233986,197.83158010501748,60.00209211770623,119.17127209602585,86.52430687016754
74.84813119117275,137.5611380282886,231.38920104481758,198.87852422875775,60.059971290570125,118.8352871659158,86.56319174404123
74.82120969417718,138.73912628723704,228.0545862806206,199.8976287300719,60.106370640271294,118.51743278070082,86.59792325842847
74.82866298820922,139.86016472328666,224.6900585888722,200.8836927309603,60.14076018232524,118.21783327784624,86.62864747466297
74.86851212218134,140.9201290956084,221.30336659822143,201.8319288244148,60.16273982798828,117.93641728643746,86.6554883069509
74.9386540817952,141.91523091239108,217.9021496307945,202.73799484641341,60.172018602407476,117.6729941679189,86.6785811933987
75.03691765780727,142.84201422693167,214.4939016343493,203.59797006678204,60.168392397689,117.4273020985821,86.69808763339778
75.16113033542055,143.69731710819005,211.08594601817555,204.40830960924387,60.15171706669169,117.19898593422846,86.7141658020578
75.3091420195389,144.47824937981932,207.68543567926523,205.16583570636178,60.121898858355934,116.98754738173166,86.72693941887465
75.47879651229049,145.1822122083488,204.2993814364299,205.86773931919961,60.07891618720307,116.79231708664197,86.73651085758243
75.66788680588512,145.8069356401492,200.9346604726669,206.51154230566556,60.02284837306786,116.61244450608851,86.74299890817348
75.8741255893759,146.35049742380042,197.5979674045951,207.09503111839902,59.95387628561524,116.44689039120215,86.74654479407887
76.09513727138228,146.81130609133248,194.29575544181588,207.61619485028524,59.872253850950635,116.29443003677021,86.74727861518167
76.32845693393108,147.18806266611375,191.03421960757103,208.07320129228142,59.77827881638912,116.15366510396655,86.74529809915009
76.5715271755328,147.4797464313151,187.81929534873055,208.4644503908941,59.6722830108926,116.02302203702212,86.74069300179931
76.82171122658602,147.68564015368963,184.65662668210842,208.78867906903233,59.55463309888512,115.90073184368732,86.73358101432184
77.07633459750444,147.8053432332866,181.55151090525612,209.04502743682983,59.425721161822594,115.78481373210042,86.72410595613871
77.33272599908084,147.8387325465602,178.5088533058404,209.23303783718973,59.28594535470989,115.67309160839798,86.71240925257997
77.58822550854266,147.7859066640693,175.53313751643708,209.35262390131783,59.135697144727146,115.56324809341567,86.69862708869175
77.84016731995314,147.64718324078268,172.62839098621896,209.40401506818793,58.9753561814032,115.45289409079055,86.6829211532528
78.0858737285782,147.42316252676034,169.79814303728753,209.38767691006183,58.80527850061274,115.33965240729215,86.66549194703889
78.32270833026756,147.114788465077,167.04540314222467,209.30425623858278,58.62577519181865,115.22126468105562,86.64654779876244
78.54819235128343,146.72336142868173,164.37266960769423,209.15459624178925,58.43709589523315,115.0956843705081,86.6262718462972
78.76010468943653,146.25052887733037,161.78194368423624,208.9397947568516,58.239428244068286,114.96111634859906,86.6048341253139
78.95650374167992,145.6982638640775,159.27473891040438,208.6612206207284,58.032905931492735,114.81601309685172,86.58242915662338
79.13570361075948,145.06880967836432,156.85209898861632,208.32048627500313,57.81761588263516,114.65905064540549,86.55928219759586
79.29624877513876,144.36460131346968,154.51462040774186,207.91951750437093,57.593619103530905,114.48911110977689,86.53561623378302
79.43688413079138,143.5882015321387,152.26247067712632,207.46077589302772,57.361003728931145,114.30529200199108,86.51163367458807
79.55651555632879,142.74227146156787,150.09541523060514,206.94748062135346,57.11994765708915,114.10691848885929,86.48754747401757
79.65418608077509,141.82955930850852,148.01285793793787,206.38368780028435,56.87074541194604,113.89353461228482,86.46362208783812
79.72908853374942,140.85288806981075,146.01387042186442,205.77421531448246,56.61378854567779,113.66488703223456,86.44016873041656
79.78058989356192,139.81517632584936,144.09720393211722,205.12445032321298,56.34952853060426,113.42090316480994,86.4175064727042
79.80822480408143,138.71954244320554,142.26132176016125,204.44011467456735,56.078456944809076,113.1616474979106,86.39594500307304
79.81165700198979,137.56945501370663,140.50446953139402,203.727071894568,55.80111360011922,112.8872645369912,86.37580107121103
79.7906506058259,136.36882103261757,138.82474547618204,202.99118297729757,55.518097627289535,112.59794603046664,86.35740230807693
79.745090490261,135.1219674610608,137.22013697793577,202.23817446402077,55.23005402461285,112.2939513020921,86.3410518219521
79.67504061006079,133.83358733319662,135.68852814225997,201.47353874735273,54.93764400700918,111.97565125715374,86.32699270414487
79.58078630796612,132.5087201182731,134.22769469033182,200.70250770891784,54.64152577182343,111.64353190976557,86.31542079563764
79.46283683302856,131.15273084664707,132.83529742109982,199.93005507390845,54.34235153368844,111.29814816672544,86.30652906616884
79.32191051920447,129.77122699339913,131.50888251079465,199.16084901385156,54.04076325313097,110.94008689382031,86.3005227087721
79.15890962530763,128.36992652737374,130.24588878377966,198.3991520203599,53.73737829481679,110.5699790447284,86.29758974019829
78.97487559880311,126.9545276594408,129.04364623820234,197.64872408361148,53.43278918947231,110.18852704209843,86.29787765352208
78.77094387822328,125.53061297537072,127.8993570940307,196.91279458919212,53.12760617272012,109.79649812890854,86.30151173733924
78.54832051688813,124.10359827553334,126.8100869583373,196.19413752346864,52.822521225784,109.39468686239542,86.30862298964048
78.30826731076132,122.67872161460073,125.77279373780601,195.49521794539928,52.518336681278825,108.98387822283847,86.31933922168666
78.05207941581456,121.2610555651929,124.78437134014523,194.81833314404363,52.21594258264644,108.56482554498014,86.3337514243047
77.7810633870568,119.85550812191045,123.84166814289802,194.16567104950218,51.916283759375986,108.13823932997605,86.35190755247915
77.49652293917407,118.46678396347544,122.94148279425444,193.53927002786236,51.620348367807686,107.7047778540562,86.37384331884543
77.19975176461784,117.09931312903605,122.08057125583832,192.94095122947803,51.329162149862064,107.26503917870492,86.39959838327366
76.89203261139886,115.7571779050578,121.2556790172211,192.37227984423657,51.043762062509934,106.81956369882575,86.42918676096626
76.57463319542711,114.44407508789102,120.4635744439668,191.83454055472149,50.76515470634429,106.36884353047272,86.46256169654721
76.24878671695483,113.16332644690324,119.70105655102972,191.32872213928079,50.49428717646005,105.91332232505368,86.49962490420634
75.91566421915871,111.91790015691606,118.9649574109741,190.85552781075077,50.23204321199626,105.45338217190124,86.54026432283962
75.57635895011317,110.7104080089064,118.25218826274288,190.41538511245176,49.97924925688025,104.98933176224936,86.58436277555835
75.23188423082941,109.54309669327886,117.55982520683612,190.00842048608223,49.73666997746539,104.52140872628517,86.63176487514706
74.88316700482218,108.417861612635,116.88517333669083,189.63440970328506,49.50498973676194,104.0497899119967,86.68225299991092
74.53102951521825,107.33627084821325,116.2257777186768,189.29272665863334,49.28479084521016,103.57459787236904,86.73556853462546
74.17617037230129,106.2995717966292,115.57939725818373,188.98230073237693,49.076538857114436,103.095918409955,86.79144522221698
73.81915545702056,105.30868042969223,114.94395929248478,188.7015963794719,48.88057208866095,102.61384161797328,86.84960512215142
73.46041957799028,104.36417526792357,114.31750769757046,188.44861571606972,48.6970874452486,102.12849793226742,86.90972861941115
73.10029040116034,103.46630969844702,113.6981660775351,188.22090038175384,48.52612674669506,101.64007574209053,86.97145190478555
72.7390536398682,102.6150290678464,113.08414477019068,188.01552025663167,48.36757658984268,101.14884426876307,87.03440200312727
72.37703682777045,101.80997813758658,112.47379211650926,187.82906826870973,48.22118673710353,100.65517697953534,87.09821879569377
72.01465091957148,101.05052778560828,111.86563563276806,187.65769517654232,48.08659491756799,100.15955052218179,87.1625336874748
71.65236900677574,100.33584984012754,111.25837142909742,187.49720988254745,47.96334030364912,99.66252397444836,87.22694321799382
71.29068392334474,99.66499649197534,110.65083554545535,187.3432200531499,47.85086640674977,99.16472610849402,87.2910244173232
70.9300898135024,99.0369223259616,110.04200113905773,187.19123880819478,47.748533138143415,98.6668757097932,87.35437559750982
70.5710914109536,98.45045573154131,109.43098764151773,187.03672366019677,47.65564449890187,98.16982105817965,87.41662762281672
70.21421163718631,97.90426757646847,108.81705056725633,186.87508341461347,47.57147087827417,97.67454732027282,87.47741462798312
69.85997463865577,97.39685790353573,108.19955722428375,186.70169574139717,47.49524983015861,97.18213428294828,87.53635482066474
69.5088766416331,96.92656172443532,107.57798320476162,186.51194894902466,47.426178405120446,96.69370218839923,87.59307927804184
69.1613741969805,96.4916057047761,106.95194596380433,186.30128739389846,47.36341396292762,96.2103785158232,87.64727597525624
68.81789496897933,96.09023691435533,106.32123935877107,186.06524295056806,47.306077906908726,95.73328185302887,87.69869370021723
68.47884467526265,95.720863142961,105.68582972643645,185.79949268717516,47.25325071236553,95.26350710381297,87.74711121594034
68.14459953081511,95.38212648672172,105.04582776573699,185.49997915568116,47.20396476077254,94.80210525856633,87.7923263748928
67.8155265295936,95.07289182353122,104.40146443626499,185.16304052900676,47.1572133357994,94.35006030878182,87.83418145950823
67.49206490305437,94.79219857132986,103.75306623276654,184.78547606189565,47.11197949705052,93.90827158105354,87.8725775250423
67.17481423359602,94.53928467851001,103.10101512263043,184.3645404671322,47.06726392456599,93.47754464935728,87.90744561701302
66.8645535156964,94.31372208927093,102.44571204606143,183.89792401831824,47.02209303782365,93.05858229956732,87.93871252464349
66.56220003527297,94.11552543670689,101.78759997541466,183.38379044191754,46.97551819439433,92.65197157962758,87.96631183274538
66.26876501924973,93.94510661343318,101.12725647325475,182.8208750757241,46.92663362295473,92.25817217942131,87.99022537377029
65.9853266468451,93.80312583706161,100.46546762222412,182.2085509802319,46.8746179730634,91.87750039913216,88.0104941457586
65.71300229201981,93.69034615082278,99.80321328528446,181.54679857603782,46.81876766635921,91.51010196022854,88.02718158697435
65.45290700483443,93.60753108051456,99.1415999124581,180.836140858023,46.758496600890744,91.15593126584652,88.04034029712861
65.20611417992019,93.55537131504984,98.48180232083186,180.077632706737,46.693322377330105,90.8147553169651,88.05002535757518
64.97363982163903,93.53441734101376,97.82503253162454,179.2728741720263,46.6228747062584,90.48616976681956,88.0563272973017
64.75644513787779,93.54503260766407,97.17252492625225,178.42395595452865,46.54692531070919,90.169605301583,88.05937091989378
64.55543523736802,93.58741615660118,96.52552976100797,177.53332680076466,46.46541018615593,89.86432093490181,88.0592825998095
64.37144574828005,93.66169073886901,95.88533248783362,176.6036610899915,46.37843218674908,89.56939237593872,88.05617980418535
64.20523933738953,93.76796636206532,95.25331127247442,175.63781660326347,46.286254495701094,89.2837031876746,88.05020032984645
64.05752826752642,93.90631414112818,94.6309921214458,174.638887454238,46.18929118875327,89.00594148248032,88.04152252074664
63.92898884108906,94.076687744856,94.02004966063775,173.6102380629337,46.088087698236876,88.73459849043941,88.03034062730934
63.8202352573303,94.27885936788165,93.42227317983556,172.5554574177777,45.98328726690023,88.46796625866095,88.01683010362204
63.73178155699865,94.51238405926796,92.83955358435176,171.47835835212643,45.87560024553981,88.20414188154875,88.00115311033143
63.66402925322801,94.77656587876965,92.2738814763706,170.3831072177093,45.76579483840287,87.94105731452845,87.9834924039026
63.61726838773541,95.07042982815082,91.72730758290291,169.27433131894531,45.65469757046998,87.6765475288924,87.96405753701939
63.59165984428678,95.39276348242232,91.20187137686794,168.1570465263594,45.54317951880664,87.40843363143237,87.94304991017844
63.58719847846105,95.74225698950112,90.69954499953161,167.03646818525723,45.4321316300065,87.13457539292776,87.92063818768021
63.60369147457721,96.11764610536757,90.22220756924287,165.91785170221922,45.32245276403192,86.85287978499926,87.89698243425093
63.640782877871644,96.51774953766609,89.77162120234262,164.8064081346801,45.2150611456245,86.56129232345201,87.87227321335675
63.69800769268358,96.94142052547797,89.34939022042532,163.70724388976788,45.11091368186638,86.25779448884289,87.84673031172161
63.77482134431659,97.38749846021717,88.95693276619491,162.62529914596814,45.011004869807465,85.94040634731778,87.82056823021114
63.87058315881759,97.85478447017877,88.59549633598455,161.5653216235622,44.91634234837377,85.60718692778175,87.79398674027468
63.98452737217979,98.34200635868686,88.26619990865731,160.53186912047272,44.82793814549987,85.2562376893483,87.76720386086522
64.11574995517039,98.84776654469685,87.9700708260848,159.52927456430953,44.74683854835858,84.88573137034886,87.74047870394622
64.26320307909883,99.37052666004085,87.70806294762441,158.56154907311608,44.674151700282856,84.49398147806473,87.71408565845458
64.4256912392535,99.90866585476046,87.48104526709483,157.63226652301444,44.61102941034171,84.07952426333904,87.68827501854888
64.60188605935261,100.46055977202714,87.28975664598916,156.74448522095045,44.55862129547594,83.64116227064255,87.66327199889885
64.79036574096274,101.02460573218572,87.13474056774527,155.90072306612788,44.51804054641697,83.17795643719809,87.63930561974855
64.98965376578096,101.59920279209761,87.01629024332269,155.1029644105599,44.49034451662142,82.68919290524997,87.61661378975583
65.19822947374875,102.18273532733915,86.93444426519144,154.35268339129473,44.47650908733222,82.17434597712268,87.59540801199509
65.41451818109674,102.77356230264317,86.88904089158741,153.650879396059,44.47739141793829,81.63304221725389,87.5758457247168
65.63690076915476,103.37000078201517,86.87977662465367,152.99811343941712,44.49370102879308,81.06503291046748,87.55805124299421
65.86376386917401,103.97032410059182,86.90622068321902,152.39454816227195,44.526000658407355,80.47020052712331,87.5421551674712
66.09355634063385,104.57278135820215,86.9678121666085,151.83999574026245,44.574731256364196,79.8486240974942,87.52829616608236
66.32480492741459,105.17560956584296,87.06388523942023,151.3339545512905,44.640230608152216,79.20067448721068,87.51658875570809
66.55609101843726,105.77702207539325,87.19370845136173,150.87563620472122,44.722725942721816,78.52706746926611,87.50711131051337
66.78603425595612,106.37518812359427,87.35649381448293,150.46400550904065,44.82231001019273,77.82884554201475,87.49993099177529
67.01331628624334,106.96822931286025,87.55136730447339,150.09782757876965,44.938917770829974,77.10732495382972,87.49511884406652
67.23672329276988,107.554245951184,87.77733329245531,149.77573111506956,45.072310667133394,76.36405311356644,87.4927222101731
67.45515890596367,108.13136198026118,88.03326459543737,149.4963097610333,45.22207513880758,75.60078968801386,87.49272977234163
67.66762301880786,108.69776686364393,88.31791689588222,149.25820322139776,45.387644761796366,74.8194900181922,87.4950805353508
67.87320600702219,109.25173774061133,88.62994305295031,149.0600920300599,45.56833887531682,74.02226607703724,87.49970693508374
68.07112344610431,109.79164858277497,88.9679027516753,148.90065278336567,45.76339232029467,73.21133672500669,87.50655264689097
68.26074619853239,110.31598533542642,89.3302897015145,148.77854610124686,45.97195882699073,72.38900511359375,87.51554356649886
68.44158841572656,110.8233489765863,89.71558239003407,148.69243426257583,46.19310039993512,71.5576707783475,87.52656091540864
68.613294305027,111.31242451989259,90.1223061644437,148.64100530222072,46.42579943609931,70.71983523734936,87.53946141564573
68.77567258948869,111.78195971499635,90.54909368101917,148.62300708491026,46.66900946234713,69.87807111315183,87.55411726910403
68.92874730208817,112.23080455716908,90.99471023420001,148.63727613965506,46.921710687377235,69.03497972313271,87.57041945674077
69.07275809374453,112.65797827135712,91.45801751341881,148.6827308990707,47.18293248414433,68.19316816653694,87.58824602275331
69.20810028304804,113.06268970696597,91.93790231672223,148.7583463646674,47.45174318292861,67.35523300391708,87.60744961118552
69.33525358261373,113.4442926631922,92.43321572526669,148.86316017786035,47.72723312445989,66.5237255514387,87.6278831661845
69.45475595306047,113.80222494743327,92.94273890975025,148.99634718854256,48.008516077578456,65.70110205798231,87.64941841962717
69.56724322583732,114.13599665577257,93.46515963405238,149.15734151939947,48.294744947239174,64.88968260481042,87.67192471514241
69.67350852066009,114.44524085028002,93.99904033715929,149.34591841934892,48.58511719444159,64.09164605737054,87.6952440077352
69.77450940677797,114.72976703627545,94.54278742449158,149.5622266717256,48.87887512793513,63.30906432126952,87.71920680959145
69.8713105535198,114.98956408986625,95.09465130145315,149.8068453867651,49.17532512761657,62.54393504342377,87.7436682861609
69.96501332101778,115.22475818621139,95.65275999302064,150.08081568392117,49.473861502887026,61.798181847107145,87.76851099331189
70.05671851202345,115.43555344389105,96.21514783708193,150.38555206048247,49.77396019960921,61.07365254731652,87.79361355215524
70.14751857029587,115.62217191653663,96.77974937777532,150.72270472383073,50.0751446999189,60.372145102272,87.81883730755078
70.23848210715765,115.78480671631267,97.34437437825045,151.0941004222903,50.37695810057145,59.695428616807845,87.84405025778915
70.33061199287161,115.92361949758109,97.90670046213671,151.50174281257156,50.67895914130773,59.04522196724131,87.86914347473561
70.42479159757973,116.03879493815698,98.46429676684697,151.94775240956443,50.98072363979967,58.42314752863762,87.89400589164553
70.52173758780927,116.13059579893371,99.01465227264347,152.43421557101993,51.28182649369301,57.830702246936745,87.91849021459522
70.62196760748395,116.19936189292247,99.55518057567438,152.96304364349237,51.58180898442094,57.269261165758095,87.94241989296414
70.72578359558236,116.24548122169797,100.08321774155509,153.53592124875018,51.880155986313355,56.74008590327261,87.96562856088246
70.83326433241758,116.2693859677296,100.59605049573865,154.15430010210204,52.17629204431049,56.24430484950913,87.98797531891886
70.94426237807147,116.27156297255628,101.09097615443461,154.81936231806844,52.4695815115565,55.78286990597556,88.00931496706806
71.05840788644693,116.25253585851554,101.56535934387706,155.5319534689623,52.75932099879979,55.35652043724465,88.0294696526233
71.1751180900563,116.21281278714814,102.0166614471613,156.29252874485468,53.044735541878964,54.96577180048753,88.04824607935306
71.29360473765011,116.1528385346403,102.44245202399614,157.10111765376791,53.32499815584932,54.610917299360054,88.0654743166353
71.41288364603939,116.07299934127295,102.84041587770817,157.9572827326521,53.59926821769484,54.292022586820934,88.08101276381534
71.53180271390079,115.97368555305131,103.20835089089013,158.8600820674084,53.86671683232335,54.00890827571231,88.09471604598978
71.64908865814543,115.85535183216956,103.54415592813734,159.80807866432784,54.126521794766596,53.76113310380156,88.10641899862694
71.76338875233417,115.71851900170219,103.84583237804064,160.79940565127995,54.37785857614598,53.54799153812995,88.11596509273798
71.87329083117018,115.56372909766043,104.11151953509501,161.83185851943372,54.61992914505663,53.368528375919865,88.12323934506703
71.97733629352588,115.3914917119212,104.33954486711876,162.90301158386674,54.85202670171134,53.22156399626958,88.12816026922306
72.07404392477443,115.2022342450215,104.52844968554604,164.0103911235781,55.073582196952884,53.105739625172674,88.13065083399414
72.16192989828816,114.99625918169242,104.67698385243068,165.15168269778695,55.28415821411986,53.019590119494374,88.13063977862983
72.23950515628377,114.77373101975316,104.78410278110239,166.3248431232829,55.4834154545528,52.96160719021182,88.12809322229135
72.3052660996601,114.53471350844801,104.84898218254982,167.5280322392787,55.671087297959076,52.93025303466309,88.1230249103841
72.35770877048459,114.27923223187861,104.87102249019502,168.75945132879698,55.846965412547625,52.923936447151775,88.11546307836015
72.39536689767397,114.00731660268869,104.84983349581206,170.0172081838926,56.01088187498673,52.94098375516055,88.10541674014665
72.41684169436405,113.71902552097164,104.78524610625968,171.29923061166772,56.162690904133015,52.9796202810299,88.09288653001461
72.42080530330674,113.41450225326993,104.67737436812041,172.60321224056182,56.302274150354116,53.03796699155625,88.07790075239005
72.40599999380323,113.09406682387319,104.52666648554879,173.9265866888047,56.429570914139894,53.11404924360904,88.06052124473626
72.37125988320221,112.75830655657673,104.33388683936248,175.26650746433293,56.54459589854479,53.20580730123612,88.04081228408444
72.31554668526394,112.40813405607288,104.10005859319678,176.6198105979042,56.647418785375905,53.3111062511878,88.01882279783946
72.23796978724258,112.04480973189654,103.82642535677854,177.98297801934262,56.738124614612914,53.427754347218475,87.99460548298428
72.13778305327227,111.66993941662595,103.5144350504209,179.35212995240488,56.81679141603604,53.55352845688252,87.96823172254314
72.01438329039041,111.28544638171886,103.16570740723775,180.72304806166295,56.883498713750036,53.6861908941105,87.93976881198567
71.86733312643052,110.89351184309744,102.78197467595199,182.09120692423997,56.9383434805291,53.82349537328138,87.909253372441
71.69639255473861,110.49653727626652,102.3650331604587,183.45178615506123,56.98143385494153,53.963201000259495,87.87670696359213
71.50152349664374,110.09720037432264,101.9167333183731,184.7996626136084,57.01286414362552,54.10310213208493,87.84217463300516
71.28286610458876,109.69855647172312,101.43898352319361,186.1294113032713,57.03270019898774,54.24105378537342,87.80573097731492
71.04071552614674,109.30406125934725,100.93373013890609,187.43534019889577,57.04099088982721,54.37497931193825,87.76745115850258
70.77550606435125,108.91747845269784,100.4029185223939,188.7115540560309,57.03778836746089,54.50288689639737,87.72740107770173
70.4877860765337,108.5427270800538,99.8484742937006,189.95202120034386,57.023150786139276,54.62292529519106,87.68566786316873
70.17818225437966,108.18372237353611,99.27232241802302,191.1506536299392,56.99712822209495,54.73345495277681,87.64238288757272
69.84737541269354,107.84423511662222,98.67640763398462,192.30142910832885,56.959759244123504,54.833078928072204,87.59770113719846
69.49610186892905,107.5277735864706,98.06268249856394,193.3985073799452,56.91109601737284,54.92062131773081,87.55177304970742
69.12516206891873,107.2374930949554,97.43309188066783,194.43626244595333,56.85123815259618,54.99509457423602,87.50475551085194
68.73541024832767,106.97615441943003,96.78958874253672,195.40926314444457,56.780340821284334,55.05569446586705,87.4568420056721
68.32773089040313,106.74613265055146,96.13415248174529,196.31233688839978,56.69859232761549,55.10181630596405,87.40825881402955
67.9030296798382,106.54943213562916,95.4687668353423,197.14076817392976,56.60618729244102,55.133055848791145,87.35922661969556
67.46224587323057,106.38767178079337,94.795364021427,197.89050375128514,56.503319201333404,55.14917892178709,87.30994046749895
67.00636548050733,106.26207193729451,94.11576763004315,198.55823329344736,56.390189025603284,55.150080409762026,87.26059051801444
66.53641814041033,106.17351436626544,93.43165763475557,199.1413550241411,56.267009200980056,55.135753841771105,87.21137998579118
66.05346621347766,106.12268122215845,92.74456460050102,199.63789688382553,56.133997372149146,55.10626927097797,87.16250375581042
65.5586235125307,106.11017035718523,92.05587736769324,200.04644560280374,55.99136947153897,55.06175093823694,87.11411912050076
65.05312971846155,106.13651495300493,91.36684396504407,200.36610981641644,55.83933048654256,55.00236106510267,87.06635477052178
64.53843567708431,106.20215505909502,90.67856965602313,200.59651264344555,55.67805715892482,54.92829959621685,87.01934314901168
64.01622698630352,106.30740712941835,89.99202673257152,200.73778697858313,55.50768094272033,54.839810561657465,86.97322485431883
63.48838077063736,106.45242052380156,89.30807152182531,200.7905640561796,55.32828303839494,54.73717554356116,86.92811917713098
62.95690672559555,106.63714257762108,88.627452580689,200.75596203747264,55.13990565732997,54.62069020027519,86.88410815511415
62.42390606750284,106.86133912783883,87.9508124490319,200.63557430161603,54.94257353393649,54.49063779499656,86.84125634351038
61.89153982325884,107.1246453475412,87.27869651799911,200.43151306747546,54.73631301589013,54.34727836631207,86.79962663664823
61.36198566436768,107.42657190669021,86.61156112908887,200.1465594263139,54.5211719497823,54.19086022274274,86.7592598283157
60.83738565180069,107.76645317894824,85.94976378773542,199.78431507298518,54.297251881398175,54.021636060930184,86.72015271914907
60.319802473888835,108.1434064026256,85.29354717102227,199.3492289104476,54.06473464184891,53.839861989433196,86.68228217302303
59.811191789919164,108.55636613634252,84.64305095478882,198.84651930553258,53.82387833759352,53.64578559479363,86.64565393818052
59.31339771625771,109.004166352963,83.99835976460011,198.28209533674294,53.57499309378575,53.43964640378638,86.61031418883601
58.82818206384658,109.48557831218734,83.35954974388684,197.66255818120132,53.31842325122805,53.22169255136784,86.57631442051074
58.35727016956189,109.99927657273543,82.72670094213257,196.9952560162982,53.05454809659211,52.99219263146753,86.54368478692159
57.90237136141439,110.54379881974165,82.09989619104338,196.28831672538976,52.78379223907987,52.75142876183183,86.51245191036529
57.46515649462846,111.11754243546906,81.47924469079678,195.55068342941846,52.5066245247538,52.49968160038785,86.48266735339243
57.047211510546354,111.7187618152885,80.86492109641429,194.79216852509208,52.22353916196918,52.23722259778889,86.45439931231255
56.649992174500305,112.34552798558344,80.25717572171725,194.02341759519518,51.93504252184722,51.964312844094394,86.42770132981079
56.27479730577821,112.9956734843181,79.6563045135755,193.25573122616694,51.64166994881377,51.681198665227015,86.40260952460262
55.922762959949125,113.6667766322074,79.06261143854539,192.50081414459595,51.34401952937958,51.38810344394849,86.37917371300097
55.59486012251595,114.3561985002262,78.47638806647602,191.77052138617137,51.04276516023605,51.08523236692662,86.3574710785303
55.291889612375485,115.06112317099821,77.89790416758888,191.07668265864498,50.73863748957919,50.772806328975,86.33757527411474
55.01449509988026,115.77855723404043,77.32739894664805,190.4310412067323,50.43240244274735,50.45111006360698,86.31952111406984
54.76320162293374,116.50530595642964,76.7650814985357,189.84517401987955,50.1248658367758,50.12051696520924,86.30331168383825
54.538451292335424,117.23797248956039,76.21115436058263,189.33028704814674,49.81689099982415,49.78147592851514,86.28895211766111
54.34060687572242,117.97299750767583,75.66584911498619,188.89700672998094,49.50940005532418,49.434480327638504,86.27645593660864
54.16993768182732,118.70671413625602,75.1294402725289,188.5552877018194,49.20336783585595,49.08004700737334,86.26581357753409
54.026641264681736,119.43539948924946,74.60222500984884,188.3143514477223,48.89983807349565,48.718716773909236,86.25697315974571
53.91091647576898,120.15533640637767,74.08449742320407,188.18255677052272,48.59995003972259,48.35106290159986,86.24986722643126
53.82302333008996,120.86288553796454,73.57654663457754,188.1672519950313,48.304934498266135,47.977688512340244,86.24444933337116
53.76327354230548,121.55455314804215,73.07866883063527,188.27468156213604,48.01606977810519,47.599215814694006,86.24069021480894
53.731985135925925,122.22706394320603,72.5911607849154,188.50993414559912,47.73462750323317,47.21628103094063,86.2385464283592
53.729467111313234,122.87745770958948,72.11428929797559,188.87691085913886,47.46184180144166,46.82953198723609,86.23795354664021
53.756040392939404,123.50319746583233,71.64826983769645,189.37835966267372,47.198913366475686,46.439616108264254,86.2388517068022
53.812051813277,124.10223111811494,71.19327774280528,190.0159969739954,46.94702508093761,46.04715942099167,86.24119663259738
53.89786936953025,124.67296639304588,70.7494714769316,190.7906069072913,46.70733697453884,45.65274861570512,86.24493111354727
54.01388062378348,125.21419682596357,70.3170021547862,191.70201187181746,46.48096383413956,45.256925555460825,86.24995465888364
54.16048551121738,125.72502560647293,69.89601127966716,192.74896569281444,46.26896327794234,44.860191258543104,86.25613475814714
54.338058808745195,126.2047826824344,69.48662119772735,193.92906954915887,46.07233746120877,44.463006466134054,86.26334259098257
54.546889594366306,126.6529302229489,69.08891599893622,195.2387431752719,45.89203058632038,44.06578321357676,86.27145999797416
54.78712473775848,127.06898279832231,68.70291986990021,196.67327783765202,45.728923855575445,43.66887845282244,86.28034865748012
55.0587371301913,127.45246969600575,68.32858085314496,198.2269905537484,45.58383737751747,43.272601825409666,86.28983069212171
55.36151660606813,127.80295141609615,67.96576426213421,199.89340524202677,45.45752419627016,42.877231902992314,86.29971324378869
55.69505767435014,128.1200740007488,67.6142674461117,201.66537150178303,45.35064056969907,42.48302499044468,86.30982184553436
56.05873763737924,128.40360583348271,67.27385557334634,203.53513728744696,45.263703423353114,42.09021839011498,86.3199937997222
56.451726348764524,128.65341484544717,66.94428837588524,205.4944447509194,45.1970544676314,41.699053050651045,86.33004566726724
56.87305474175874,128.8694024387057,66.62531941867047,207.53470473785467,45.150839904850926,41.30982405698601,86.33976924270632
57.32169262396902,129.05143075765045,66.31668691000114,209.64724584120304,45.12500680457282,40.92292537504497,86.34896428122768
57.796576551654184,129.19926555403737,66.01811281796753,211.8235090850423,45.11931294876342,40.53885567502209,86.35745650387253
58.29661087152902,129.31255095993163,65.72930393020853,214.05506242287424,45.1333407944645,40.15819580122259,86.36507157537419
58.82069414213489,129.39082000482085,65.4499527423527,216.3334901860405,45.16650432183999,39.78158775241208,86.37160354492826
59.36775594043626,129.43352278264717,65.17975174505106,218.65028173720256,45.21804595682896,39.409723564997456,86.37682445170974
59.93675680836756,129.44005932208907,64.91842217984798,220.99674251333147,45.287029045011856,39.043332507587934,86.38052102137613
60.52666488157467,129.40981703212046,64.66573118129867,223.36389831498468,45.37233396195481,38.683159201315284,86.38250543160424
61.136471043126996,129.34219774324586,64.42147797110171,225.74239976198035,45.47266670564208,38.329939683664335,86.38258778820268
61.76525053188317,129.23662227927917,64.18546881848997,228.12246408871866,45.586581819216136,37.98438919069305,86.38055765642461
62.41220023500319,129.09253004731974,63.9575177905831,230.49389580245852,45.712511536718615,37.6472040381907,86.37620826555323
63.07660716776995,128.90938814118257,63.73747542731589,232.8461966026153,45.848792908937426,37.319060881855435,86.369369660143
63.757794174732766,128.6867080695542,63.52524580824334,235.16873248678328,45.99368768363782,37.00060084467499,86.35990277709475
64.4551047062099,128.4240762583185,63.320766167462,237.45093012070438,46.145401886958595,36.69240916561226,86.347667403938
65.16791974674152,128.12119832127166,63.123968185634524,239.68247055190764,46.30213660994992,36.3950083717011,86.33251637519503
65.89565571343626,127.77793080644955,62.93475751427898,241.85341344871165,46.46218236464913,36.108866300727705,86.31432537494689
66.63772761988089,127.39427793032169,62.75302833336582,243.95422606051272,46.62400421864803,35.83440124094894,86.29300968898293
67.3935136759872,126.97036900869546,62.57869419805139,245.9757894177078,46.786265899928416,35.57197098392205,86.26849856956365
68.16235193675655,126.50645156028573,62.41170723383286,247.90944945956366,46.94782055215082,35.32185670486881,86.24070307528413
68.94354928696495,126.00290181598947,62.252064586555036,249.74707920154663,47.107721377626866,35.084263142017726,86.20952128485153
69.73636140850952,125.46022394187234,62.09981295974064,251.48109856126885,47.265245290775674,34.85933714571379,86.17486689759734
70.53994342390389,124.87905224982119,61.95504616649562,253.10448412154307,47.41988634734438,34.64718252337068,86.1366729467869
71.35331378138721,124.26021656392882,61.817886812004595,254.61085540886958,47.57131101232354,34.44785565657993,86.09486199542427
72.17535306541255,123.60486163638355,61.68846181006538,255.9946440329178,47.71930904141779,34.26135339707491,86.04932797506893
73.00480851835805,122.91451759213282,61.5668898050256,257.2512062317754,47.863770507216465,34.08761429010028,85.99996077992688
73.84027965715534,122.1910712852605,61.45328056326053,258.3767699522088,48.00468514645451,33.926535850321876,85.94668163251349
74.68022156277912,121.43670436460859,61.347733990834215,259.368281681066,48.14213573469061,33.77798828781704,85.88944150418922
75.52301594346613,120.65385605004131,61.25033954016009,260.2232627414856,48.27627063279748,33.64181117509683,85.82819060800699
76.36707985368977,119.84518607311222,61.161188666561664,260.939722863335,48.40727410296068,33.51780684137179,85.7628680172285
77.21093039033785,119.01351371980837,61.08040094185713,261.5161344344705,48.53536087413828,33.405748984419326,85.69342550594754
78.05319140688964,118.16177013108606,61.008142795087025,261.9514266289976,48.66078933366863,33.30539951546293,85.61984395820762
78.89258981641252,117.2929881662619,60.94462047738749,262.24495735422,48.78386363639378,33.216512071929195,85.54211239668737
79.72794922799943,116.41028483836038,60.890060856497534,262.3964840572453,48.904928428731864,33.13881769607558,85.46020002639357
80.55815277895013,115.51679975784464,60.84470654084042,262.40617170797736,49.0243995356929,33.072010322830344,85.37406506539125
81.38207770240909,114.61562327083521,60.808820853239716,262.2746122255178,49.142832406523354,33.01574866046102,85.2836895262886
82.19853839354032,113.70976193990445,60.78268189712711,262.0028009456425,49.26096202720043,32.96966888760832,85.1890890491557
83.00627329944805,112.80215457433313,60.76657821283309,261.592063740594,49.37967230903019,32.93338811500491,85.09028321754947
83.80397120315372,111.89572348110175,60.76083744404036,261.0439638302341,49.499930878449675,32.90649445925019,84.98727111131112
84.59028856438421,110.99342255921111,60.76587620987392,260.3602162303767,49.622745802983516,32.88854333124886,84.88004908904269
85.36383282994282,110.09825403372945,60.7822168522867,259.5426323207928,49.749157824500294,32.87907203874134,84.76864390275647
86.12315494619395,109.21325572020844,60.810448008249814,258.5931058931591,49.880235771927,32.87761665108595,84.65311303214511
86.86679445108719,108.34145914700119,60.851166878098866,257.51363540371585,50.0170461487472,32.88371133757082,84.53351714852026
87.59334333199207,107.48582627758287,60.9049455852933,256.3063728373316,50.160609321659976,32.896876274563226,84.4099105267745
88.30146627081176,106.6491933982432,60.9723176598627,254.97370677800328,50.31186884783894,32.916620293265176,84.28236076503768
88.98988046271292,105.83422904138305,61.05375561760762,253.51837257111572,50.471672793593946,32.94247042262817,84.15095780812004
89.65734559309814,105.04338928968706,61.14964469272953,251.9435233226283,50.64074872861158,32.97400443273578,84.0157877995679
90.30267949761468,104.27887957675587,61.26029687636588,250.25270286769674,50.819675597046675,33.01085677364712,83.87690388386986
90.92476865322307,103.54266662558078,61.386010366372744,248.4497471333829,51.008877501674974,33.05270399870202,83.73433406265823
91.52254840559011,102.83655424574593,61.527108685732685,246.53868976436493,51.20864239480299,33.09925681569026,83.58811321961709
92.09496509902478,102.16225865144088,61.68391981637854,244.52372757538967,51.41913341333339,33.15026537416324,83.43829192151696
92.64094827115106,101.52141367630095,61.856743135638034,242.40923530415242,51.640373695533164,33.20551925083116,83.28491093580075
93.15940681089623,100.91552057689381,62.04585261042067,240.19976507391863,51.87222757523983,33.26482940157822,83.12798411054457
93.64924673027654,100.34592625643825,62.25151098079693,237.90000194542344,52.11440532045027,33.32800342018499,82.96752293047338
94.10939780171793,99.81389512201689,62.47395068744092,235.51471299187833,52.36648311551004,33.394834739028326,82.80357542300115
94.53884144506748,99.32072789753566,62.713328829490536,233.04871357204044,52.627910921538266,33.465109107601954,82.63623123370306
94.93664658618367,98.86780874204457,62.96969821518047,230.50683059364061,52.89800531943172,33.53860923333891,82.4655955736153
95.30200267961975,98.45654978664588,63.24301206244243,227.89385218863228,53.17595476152674,33.615104315928576,82.29177570610209
95.63421983924623,98.08831049230012,63.533134383194856,225.2144876777355,53.46085302601752,33.69433653472031,82.11489306339772
95.93269623173471,97.76434416768775,63.839825948302,222.47337462353156,53.75173721987528,33.77602103267693,81.93508694198465
96.19688095817268,97.48575397490418,64.1627216555961,219.67513818370782,54.04759953915979,33.859855195171924,81.75248836484539
96.42624488574532,97.25344239767625,64.50133554050457,216.82444631775488,54.34738250107953,33.94551994885704,81.56719295115083
96.62025392347049,97.06807064626928,64.85508826040284,213.92601100540068,54.64999714395978,34.03266860209804,81.3792697744935
96.77834497238754,96.93004077620279,65.22331572669027,210.98456993924847,54.95437108778202,34.120918894177066,81.1887944484318
96.89991974042717,96.83948593611223,65.605248100003,208.00489666900253,55.25948208859055,34.20986477934909,80.99586063834275
96.98437026149986,96.79625144161092,65.99999949852814,204.99181068872616,55.5643500400485,34.29910211482117,80.8005570929773
97.03111947234021,96.79988455946487,66.40659751354056,201.95013996390577,55.86802159933082,34.388243997067,80.60294957557555
97.03964034416583,96.84965463511199,66.82402517920409,198.88464729674598,56.16958318968242,34.47691586814142,80.4031005721618
97.00944715509607,96.94457356079228,67.25123616134275,195.79998023411505,56.46818406303287,34.5647478749475,80.20110268990065
96.94009221088683,97.08337949996277,67.68714058126976,192.70071830874915,56.763033966725466,34.65138029430656,79.99708103820828
96.83118751732931,97.26449598742008,68.13057981092193,189.59152471658427,57.053375498807654,34.73647316611179,79.79116737495482
96.68242745836744,97.48600643950947,68.58030205036304,186.4772831385605,57.33846134736407,34.81970334599799,79.58348929245325
96.49359181073366,97.74569328890124,69.03494062999172,183.36310636383655,57.617559772149065,34.90074985436239,79.37418838251092
96.26454370495244,98.04115322969186,69.49299755110869,180.25424020569739,57.88997696217863,34.97928524706391,79.1634305717968
95.99523603295438,98.36990848084756,69.95283735935602,177.15594274278374,58.155068798808614,35.05498412452247,78.95138291668063
95.68571577166637,98.72944000557219,70.41268897470056,174.0733770258823,58.41224834092302,35.127536959930964,78.73818536634975
95.33611278658086,99.11718026040823,70.87064934033896,171.01152091180725,58.66101265850846,35.19665042270996,78.52395684992757
94.94661408039501,99.53052381022917,71.32468669476793,167.97509829603823,58.90097015158252,35.26203450898156,78.30882616765669
94.51744472865722,99.9668360895045,71.77264358059942,164.96855833894602,59.13183058883355,35.32339525685245,78.09294167585848
94.0488926274777,100.42342354076878,72.21224618753526,161.99611380457546,59.35336170070759,35.38044638157817,77.87644492427935
93.54138135004594,100.89748187870583,72.64112813662499,159.06178395419656,59.565348317480506,35.43292883803082,77.65944716186037
92.99553032267796,101.38607098242585,73.05686082892879,156.1693865242845,59.76758030662093,35.48061658828377,77.44204341859748
92.41215638893696,101.88614783351863,73.45697458040709,153.32250294109727,59.95986288723047,35.52330760208219,77.22434320416333
91.79225341237635,102.39463360565557,73.8389735138907,150.52446421252813,60.14201849198972,35.56081960272906,77.00647399491314
91.13699674654217,102.90845303636443,74.20036283633532,147.77836067107077,60.3138670799753,35.592998819726695,76.78855782661638
90.44775821616086,103.42452650681857,74.53869289264925,145.08707271515456,60.47521103081216,35.61972713090529,76.57070304170539
89.72610032565868,103.93975764804533,74.85159994876918,142.453327391137,60.62585061359692,35.640914197688474,76.3530261554391
88.97375553202431,104.4510539468792,75.13682586867796,139.87974607603388,60.76561331805885,35.656484106361475,76.13566662617681
88.19262201940859,104.95536957572904,75.39223104454587,137.36883661876163,60.89436323189582,35.66638036074317,75.91876643939825
87.38479604646872,105.44974171514028,75.6158293174166,134.92293403964533,61.01199177547354,35.670595082137616,75.70244177592826
86.55261498744886,105.93131906008556,75.80583785107217,132.54412797094514,61.118413811218794,35.66919518893558,75.48678786857782
85.6986611403523,106.39738858604386,75.9607036732605,130.23421103249865,61.21356995565736,35.66232011259555,75.27191046461407
84.82572509668515,106.84537751685887,76.0790979515743,127.99466978003557,61.29741778990558,35.65016084737482,75.05793862330775
83.93677135144488,107.27282227259518,76.15991176142583,125.82670874340768,61.36990888565364,35.632946551373486,74.8450022602711
83.03492729765567,107.6773528577427,76.20227355251987,123.7312641509772,61.43096863130066,35.61094589380308,74.63321285737592
82.12347941666654,108.05673535136687,76.20556418582888,121.70898360928103,61.480499457151545,35.58446668969836,74.42268338881888
81.20584816143158,108.40893650976096,76.16940269705329,119.7601957907705,61.51840678966852,35.55384136884541,74.21356485604113
80.28554046894938,108.7321462602419,76.09361186825504,117.8848941805424,61.54462103396028,35.519407335435154,74.00605086762093
79.36610952935243,109.02476676989741,75.97818900704091,116.08273195589967,61.55910236920744,35.481495135830116,73.80034923694456
78.45112546077075,109.285423692263,75.82329203370003,114.353030437741,61.561852117111926,35.44042483213273,73.59666761891091
77.5441297910277,109.51299730890345,75.62923085005154,112.69481842683422,61.55294520069407,35.396506295724315,73.39523575251503
76.64857620127695,109.70661973594248,75.39645138526944,111.10690581193818,61.53255397646725,35.35003998778196,73.19632871331699
75.767792737023,109.86562397538994,75.12552261278846,109.5879651005399,61.50093823391461,35.30131446865924,73.00025477560492
74.90497465265808,109.9894855555523,74.81715235060996,108.13657870847194,61.45842648015817,35.25060466916593,72.8073285022564
74.06317503761167,110.07778803598407,74.47222746017349,106.75123725773285,61.405422984912995,35.19817785705234,72.61787392647464
73.24526836673647,110.13020204243323,74.09183674763051,105.4303214532717,61.34242790951749,35.14429941227262,72.43225490863249
72.4539114822744,110.14645821217658,73.67725513719765,104.17209701133491,61.27003325183414,35.089225747452865,72.25088388221633
71.69156080737973,110.12631617811113,73.22991862339921,102.9747104661548,61.18889319007778,35.03318943854961,72.07419053612216
70.9605594475187,110.06954564379389,72.75142049126967,101.83616779780027,61.099700236881354,34.976395067159835,71.90259243416696
70.26321315407313,109.97592460049577,72.24351323543404,100.75430571461347,61.00317759677186,34.919033239697896,71.73650630771628
69.6017791362159,109.84524185333852,71.70808901493974,99.72677380352391,60.90006574186256,34.861296065186245,71.57637728786389
68.97839092199453,109.67729763450681,71.1471486852917,98.75103114632766,60.7910903921128,34.80337539855757,71.42267712388903
68.39497815197241,109.47191485318695,70.56278583567878,97.82435237640716,60.67693186112537,34.74545110472915,71.275870304314
67.85320423572809,109.22897439943331,69.95718358859966,96.94384202047215,60.55822140429649,34.68768777314548,71.13639531726749
67.35442152786496,108.94846873216378,69.33259828003068,96.10645981556421,60.43555780328857,34.63023880305578,71.00468391407912
66.89964700772873,108.63054009164665,68.69132295582335,95.30905478287356,60.30951175652116,34.573243307578714,70.88118151302352
66.48957288287909,108.27547542302689,68.03565617879013,94.5483964501932,60.18060536314001,34.516815329105654,70.76632968724637
66.12462555232982,107.88367594027567,67.36789553277731,93.82119417978315,60.049290230252936,34.46104378016173,70.66053005316742
65.80505088808927,107.45563390670421,66.69033953287934,93.12411785683663,59.91594832750605,34.40601523534998,70.56413520239083
65.5309661436114,106.99191712086466,66.00527786106996,92.45384410891386,59.780906714435226,34.351843045274876,70.477467309473
65.30235482896043,106.49315041895149,65.31498475357617,91.80712060640626,59.64444076959559,34.29867600924785,70.40082137483434
65.11905246854444,105.96001125658171,64.62173881942923,91.18081151505497,59.50676572571818,34.24668799846303,70.33443558065241
64.98075792638413,105.39325642307666,63.92785327273371,90.57191374280129,59.368042829305146,34.1960753277573,70.27846516622962
64.88704264558365,104.79375544736817,63.23567797545883,89.97756540376885,59.22840793239972,34.14707061221359,70.23299572418257
64.83734176679525,104.16249664849909,62.547565031832754,89.39505273983046,59.08799366963446,34.09994947154905,70.19807603730602
64.83095430888211,103.50056140278299,61.86582761976488,88.82180748069422,58.94692299135032,34.0550141628197,70.17372258333432
64.86705643585947,102.80908459074098,61.192722269869094,88.2553963910664,58.80529419826951,34.01257244209187,70.15989193429908
64.94470093958495,102.08922875881251,60.53045312598102,87.69350552854591,58.663190733578546,33.972935223649685,70.15646784765455
65.06280359874334,101.3421834156963,59.88117398783426,87.13392178787879,58.5207114185475,33.93642784084383,70.16328867114711
65.22013859564998,100.56916543933605,59.246975871206914,86.57452499788012,58.37798377955142,33.9033907857508,70.18017918204744
65.41533969192366,99.77139785605222,58.62986903091861,86.01329809888132,58.235146382356426,33.87416085329699,70.20694650663734
65.64688556191005,98.95007862506334,58.031769574956876,85.4483402250614,58.09233121488046,33.84904826190508,70.24335751483818
65.91306617944726,98.10636212904203,57.45448817742756,84.87786347126602,57.94967552645828,33.82832688734383,70.28914093716729
66.21195315223817,97.24135977635733,56.899712203234074,84.30017730912196,57.807347055748956,33.81223458665913,70.34401399356315
66.54140686812704,96.35614889740498,56.36898214875418,83.71368293722733,57.665545851426515,33.80096756580851,70.4076910716011
66.89912738892134,95.45177458777621,55.86368005216484,83.1168867764952,57.524479741768516,33.794664339341914,70.47985703792173
67.28270613818187,94.5292463112431,55.385044486368145,82.50841522495057,57.3843457944044,33.79339331652173,70.5601422580465
67.68964462134268,93.58954951705445,54.93419609279904,81.8870125154758,57.24533608411545,33.79715636429162,70.64813688493368
68.11737573478553,92.633677416603,54.512145329092135,81.25152949532031,57.107647488669734,33.80590054113187,70.74342616126982
68.563322701467,91.66265788980563,54.11978385818095,80.60092260192724,56.971470895703106,33.819521594318964,70.8455989403394
69.02495418784315,90.67756232552934,53.757879188664795,79.93426626019125,56.83697110991231,33.83786046054223,70.95422283971008
69.4997848745221,89.67954034624881,53.42706970856756,79.25076618474928,56.70428716420152,33.86070961334397,71.06883068371783
69.98533642640535,88.66993024693487,53.127843439082106,78.54976401433304,56.57355173164494,33.887832532839,71.1889471778362
70.47910375936296,87.65039647223898,52.86050874603788,77.83073373311251,56.444896810277164,33.91897800649313,71.31412332308567
70.97855127479826,86.62298919951574,52.625197885462086,77.0932756756184,56.31843280449569,33.95387549677999,71.44393320232932
71.48113673456285,85.5901134559053,52.421935604791095,76.33711221378579,56.19422781295446,33.99222153483461,71.57794403441964
71.98434086407292,84.5544874032878,52.25073815923757,75.56208275576658,56.072311050617664,34.033678573324174,71.71570652796557
72.4856797958869,83.51914674238232,52.11166401306185,74.768133834811,55.95268606316115,34.077891385098184,71.8567743242515
72.98270010974159,82.48747629661456,52.004795293904564,73.95531068270716,55.83532817147575,34.124501410517205,72.00071246337998
73.47297824468423,81.46320161991669,51.93020456698419,73.12377212944745,55.720171832195675,34.17314254278722,72.14707251981477
73.95414224464041,80.45031929641986,51.88794431509675,72.27383497426382,55.60711048105847,34.22342863299926,72.29536646662899
74.42390665176013,79.45302792099658,51.87803767066783,71.40601111028413,55.49600647867492,34.2749549383139,72.44507806862906
74.8800915258346,78.4756949674313,51.90044990587731,70.52100413898233,55.38668953588697,34.327317996227166,72.5956987906313
75.32061543459314,77.5228113212544,51.95506236971562,69.61967925397632,55.278940667536546,34.38013449125315,72.74674084862492
75.7434827543753,76.59890684430927,52.04167129508282,68.7030337114905,55.172484179493985,34.43304298233607,72.8977160789635
76.14678334645207,75.70848317360708,52.15999359994036,67.77217395405812,55.06700456531175,34.485698642142246,73.04812169493287
76.52870369613134,74.85600599205486,52.30965008019501,66.82829205732725,54.9621737366333,34.53778024994949,73.19746173345507
76.88754286290668,74.0459058534771,52.49012839163418,65.87263785340147,54.85766037223996,34.58900650321769,73.34527546240915
77.22172851729486,73.28252339112598,52.70075512232525,64.90649428185083,54.75311694642766,34.63913998255022,73.49113223021061
77.52982268952366,72.57001271180859,52.9406999273206,63.93116886324774,54.64816478206354,34.687970917683835,73.63460496777242
77.81050663906977,71.9122512426103,53.20900350265685,62.94800192387088,54.54239351338521,34.73529665408828,73.77526736772603
78.06255662333535,71.31277280841263,53.50459530098853,61.95837255207206,54.43536979995816,34.78091314277223,73.9127200638564
78.28483958242757,70.77472281715004,53.82628321686842,60.963686662938194,54.326638591313944,34.824616407079176,74.04660304440374
78.47633405916767,70.30083714281218,54.172742948090814,59.96535573449394,54.21571711841538,34.86620009008802,74.17657316998412
78.63614461763181,69.89343478728411,54.54254590551881,58.96478665684576,54.102104496184865,34.90544350147165,74.30228231484173
78.76349451636521,69.55440558196453,54.93421566095238,57.96339201048694,53.985316115116,34.94210217125939,74.42339460096824
78.85773642713204,69.2851862854847,55.34626088138611,56.96260796330377,53.86491598995249,34.97591527606693,74.53962466810196
78.91841156405904,69.08673209228823,55.77716662115209,55.96390592471602,53.74052043326011,35.00662402422879,74.6507466330856
78.94531189412012,68.95950795211819,56.225384890671094,54.96881705746358,53.6117866161883,35.03397971557987,74.75656579031664
78.93848475689285,68.90353809341211,56.689356157830105,53.97899024584196,53.47841915648842,35.05773524800542,74.8568995113425
78.89818419265438,68.91850907189537,57.16753614521575,52.99625093098633,53.34019626781153,35.077637898916,74.9515975282663
78.82481626259896,69.00385852669302,57.65839375155229,52.02261342376441,53.19698236688409,35.09343804986345,75.04057014272732
78.71891548321007,69.15881883612964,58.16039618166902,51.06025079813605,53.04871172220562,35.10490414226301,75.1237815968161
78.58115167269688,69.38246966905464,58.672014959090674,50.111463993196615,52.89536980970564,35.11182606519983,75.20122063138488
78.41233129115491,69.6738186478281,59.19174269848477,49.17867560724939,52.736999742661865,35.114008084485135,75.2728929991969
78.21337285393038,70.03183764731281,59.718087940266386,48.264440851595076,52.57372126868947,35.11126770745294,75.33884121651819
77.98528206458293,70.45541178453394,60.249558716122365,47.37145890124472,52.40573089924891,35.10344576979351,75.39914987570116
77.7291572312249,70.94325715489596,60.784685727621,46.502577025618116,52.2332830315318,35.09041357260565,75.45391535040994
77.44622038480637,71.4938852552428,61.322094786763145,45.660785325661855,52.05668519675581,35.07206582060991,75.50321310122965
77.13784359935849,72.10562357541198,61.860565042150924,44.84919478709176,51.87632122646117,35.048309663870484,75.54710126280898
76.80554540560226,72.77662963889084,62.39902232897412,44.07098923077961,51.6926719140448,35.019068346507744,75.5856487854332
76.45095859499192,73.50485635885937,62.936497312280814,43.329356852280085,51.506304304663274,34.98430021694273,75.61894262801098
76.07578631324505,74.28800888172124,63.472109447945364,42.62741888965015,51.317845881029,34.944013249701165,75.64706241522673
75.68175548251783,75.12354729592039,64.00509078159467,41.96816390935482,51.127977382951194,34.89826029769387,75.67006365949727
75.27056866585225,76.00872124035385,64.5348093881939,41.35438500489647,50.93744263192944,34.84712583139107,75.68799943106751
74.84386010134588,76.94058191741681,65.06076138610322,40.78861840165708,50.747042583017134,34.790726642736686,75.70095041284961
74.40316732174627,77.91596372002131,65.58254734884333,40.27309041153737,50.55760298105571,34.72922849544211,75.70901981079342
73.94992593834512,78.93148775633944,66.09986121745958,39.809686984753014,50.36994441159661,34.66285593964317,75.71230330766207
73.48547996498466,79.98361344187387,66.61248939070718,39.3999502207564,50.18487728136266,34.591880600566846,75.71087912838742
73.01108655488605,81.06868876289283,67.12029395684328,39.04508192058364,50.00320461911776,34.516601256078324,75.704826896238
72.52790653539707,82.18294873091924,67.62317712416976,38.74593618667825,49.82570654658136,34.43733945866858,75.69423607685682
72.03700348452455,83.32248119668517,68.12105879626974,38.5030151638462,49.65311276816326,34.354453974126145,75.6791819439276
71.53937300528621,84.48320905467762,68.61387974775184,38.3164895342944,49.48609286931014,34.26834968752902,75.65970215560677
71.03598112723803,85.6609027323368,69.10159854920478,38.186232796404695,49.325275294467986,34.179463090468424,75.63581381515299
70.5277775173397,86.85119693874341,69.5841624573277,38.11183844752877,49.17126909655906,34.08823874866729,75.60755570440988
70.01569342569921,88.04959048597455,70.06148047934504,38.09261290516623,49.02465966456229,33.995122492402,75.5750038516148
69.50066048697205,89.25144726283118,70.53342920101935,38.12756774131058,48.885987078768444,33.90057539344465,75.53824810053854
68.9836473776969,90.45202812339245,70.99987947100803,38.21543171956865,48.755741287858434,33.805086144005294,75.497374482346
68.46567267441978,91.64654396167417,71.46071040556922,38.354678560342144,48.634384254157766,33.70916263842696,75.45248553133614
67.94777847093536,92.83019019980098,71.91580196771613,38.543553001731006,48.52236826407491,33.61331088881143,75.40372870931081
67.43099525208484,93.99815340989178,72.36502401129161,38.78008365153324,48.42012518270051,33.51802237214378,75.35128906021635
66.91632716695352,95.14562617025412,72.80823023994232,39.062088906714166,48.32804599326901,33.42377578862144,75.29535655250072
66.40475149113936,96.26785403789664,73.24524860219093,39.3871901237376,48.246481354737064,33.331038224519716,75.23611543604788
65.89721071471632,97.36018747884411,73.6758660174068,39.75282967388796,48.175756207645136,33.2402525367633,75.17376637232319
65.39460375752772,98.41810291341694,74.09982112926669,40.156279539250406,48.11616770526839,33.15181981924602,75.10853942430695
64.89780992803281,99.43719989122822,74.51681342128029,40.59464096082182,48.067963629880076,33.06609647069447,75.04067048650016
64.40774388063133,100.41320734947523,74.92650893621298,41.06485494576447,48.031333053981875,32.98340840506315,74.97037224886057
63.92538660696136,101.34200956588442,75.32851949684515,41.56373770239589,48.00642453241842,32.904062634606866,74.89784076228013
63.45176153996645,102.21966962604185,75.72236726210299,42.0880261509682,47.993363451948284,32.82834134695682,74.8232851279821
62.98789137481141,103.04243015533159,76.10746853859723,42.63440668339781,47.992239563567544,32.756487501271074,74.74693259539481
62.53478021313274,103.80670104687,76.4831491783723,43.19952545173965,48.003077067493514,32.68870084697671,74.6689983154991
62.09341896171594,104.5090611822966,76.84866598865445,43.78000225118695,48.025823139410456,32.625148645499834,74.58966280551846
61.664780202207,105.14628346383077,77.20320774299216,44.37245685893108,48.06036748945303,32.565974552124096,74.50908957334741
61.249790724990234,105.71536012597782,77.54588533569513,44.97353058282048,48.106563941850816,32.51129069497316,74.42745571744237
60.84931461799706,106.21350813960285,77.87573626466116,45.5798907712171,48.16422353623445,32.46116027336802,74.34495099104899
60.46417696167373,106.63817390454015,78.1917458687565,46.18823105986847,48.23309024673238,32.41559227163445,74.26175167041539
60.0952019525216,106.98706832178488,78.49286342747821,46.79528354319798,48.31283429618793,32.37456028584605,74.17801264385392
59.74321564086328,107.25822196432597,78.77800102065383,47.39784299348478,48.40307316411704,32.338030301658286,74.0938872508276
59.40900872949302,107.45001606197134,79.04603387349115,47.992792021269125,48.50339187240523,32.30597118988691,74.00953651479827
59.09329667768164,107.56117507170481,79.29582326095223,48.57711495498626,48.61333597065221,32.2783477915325,73.9251058558
58.79670056054073,107.5907568737265,79.52625085611756,49.1478990443817,48.73238811226231,32.25512076464688,73.8407033079727
58.51973634144219,107.53816719931578,79.73623598960882,49.70233777380606,48.85996030614013,32.23626102122642,73.7564204025159
58.26279612510776,107.40317473569317,79.92473177364575,50.23775196024344,48.995413543094266,32.22175847109938,73.67237883952745
58.0261331907799,107.18589559803877,80.09073303844109,50.75162307800869,49.13807945369924,32.21161023874598,73.5887469744647
57.80987189098621,106.88675276248706,80.23332274152655,51.24161547044074,49.28725635685187,32.205800722662865,73.5057108798039
57.61403264016245,106.50643824570093,80.35172804998334,51.70558048333702,49.44218860620065,32.20429431732016,73.42344632338292
57.438539630376894,106.04589973653803,80.4453360968894,52.141560836095344,49.60206146177058,32.207042273676706,73.3421309809839
57.283201415217455,105.50635013985931,80.5136738444778,52.54780339343005,49.76602384291212,32.21398515162973,73.26197314257259
57.14768809748971,104.88927357157482,80.55640126806487,52.922765577274305,49.93321400693683,32.22504013900847,73.18320932941717
57.0315309427502,104.19641018224814,80.57333761469489,53.2651068580494,50.102761348880115,32.240086969375874,73.10607343017335
56.934141541897546,103.42973748490351,80.56449399612158,53.573678641070636,50.27377482042341,32.258970994780945,73.03078279951553
56.85482344580606,102.59146958400065,80.53008830653057,53.847524258455294,50.44534587303247,32.281519972498664,72.95755537349213
56.79276229098306,101.68406192690958,80.47054197881185,54.085878266847175,50.61656610065197,32.307553221800156,72.88661969809543
56.74701048110278,100.71019714912968,80.38645985933755,54.2881511016706,50.786533591325636,32.336874659540726,72.81819095581307
56.71648723418985,99.67275272573832,80.27859118235693,54.4539067920358,50.954339022381916,32.36926825833598,72.75244079670365
56.699993381753025,98.57477098846898,80.14777687203537,54.58285370027588,51.119056640991225,32.40451521617716,72.68950086330878
56.69622295435178,97.41944555879822,79.99489748438525,54.67485311210577,51.279764222370225,32.44242123338219,72.6294910753325
56.70376195242854,96.21011669448428,79.82083784281726,54.72992694587897,51.43557823197845,32.482825402327116,72.5725274172287
56.7210851127204,94.9502588414509,79.62647037678774,54.74824672528612,51.58566949497998,32.5255874038566,72.51869607509738
56.74656440938162,93.64346300825635,79.41264210787409,54.73011083784753,51.72925237138764,32.57057737963513,72.46803390253231
56.77849067588439,92.29343406782378,79.18015578913823,54.67593322837801,51.86557591225012,32.61768129058224,72.42054855939942
56.81510868030367,90.90401086042777,78.92975476631244,54.58625301419153,51.99393655139888,32.66680675534694,72.37625350067508
56.854670923485756,89.47919044749037,78.66212432738747,54.46174638349249,52.1136944559951,32.71787386012483,72.33517099737348
56.89549863332949,88.02313766609048,78.37791005100239,54.30321860496671,52.22426925333539,32.77079954360476,72.29730494394379
56.93601964311239,86.54021153656917,78.07774782930849,54.111580614010904,52.32512343919025,32.82549705688925,72.26262958056827
56.97476799517528,85.03505652183267,77.7623036818051,53.88783455470717,52.41575956678464,32.881893153704524,72.23111092547448
57.0103606576111,83.51271233325842,77.43231469705881,53.6330803055845,52.49573413047025,32.93993898813357,72.20272190273212
57.041478422910345,81.97864528360812,77.0886082645495,53.34852534467145,52.56466448881203,32.999597654485264,72.17742186341447
57.06686462981967,80.43871150042506,76.73208944835248,53.03547711829881,52.62221600143944,33.060820594053666,72.15512976766145
57.08533072790271,78.89912608681662,76.36372304792143,52.695327215952005,52.66808770496567,33.12353484662122,72.13573237865702
57.09574957823006,77.36642794570838,75.98454213381456,52.329548636122304,52.702018288971956,33.18764712536615,72.11911672059719
57.097038179452596,75.84739191635362,75.59567277581581,51.93970175452205,52.72380390419205,33.253050338822405,72.10517979700947
57.08815617334812,74.34890759347016,75.19833633852782,51.52742683894671,52.73330279274645,33.31961820683408,72.09380265249612
57.06813728902915,72.87787452028664,74.7938178489765,51.09441975988952,52.730427269295916,33.387195427861094,72.08483006931145
57.036130147154175,71.44112096148314,74.38343162539131,50.642411767552616,52.715148215509195,33.45560500353624,72.0780912734784
56.99141110078627,70.04531823545626,73.96851552201724,50.17316665733738,52.68751628099829,33.52467690523076,72.07343791796846
56.933369594557895,68.69687928785908,73.55044245650596,49.688482602512494,52.64767243251827,33.594272117203985,72.07075093079993
56.86149915397833,67.40186556246465,73.13061257690515,49.19018047015291,52.59583138864615,33.66427902988909,72.06991584944514
56.775410100892195,66.16592636483234,72.71041926124674,48.680079736604085,52.532256545381394,33.7345948890418,72.07081186128477
56.674842477448834,64.99426099386736,72.29121963438803,48.159981027351925,52.45725285153664,33.80512447739773,72.07333118379151
56.55965483024921,63.891575457865926,71.87432755471337,47.631668809451504,52.37117576282772,33.87580356820275,72.07739144188464
56.42979866345153,62.862029212426656,71.46100840573351,47.09692149383956,52.27443021963776,33.94661723383759,72.08291379627029
56.285305795373546,61.90920229147238,71.05245285009698,46.5575068996854,52.1674504766646,34.01758907450977,72.08979490219765
56.12629221321194,61.036110957638556,70.64974325829404,46.015165523835066,52.05068560666149,34.0887574246834,72.09791240114835
55.95295628630468,60.245254566522696,70.25384731704548,45.47160171205365,51.92461070979013,34.16016881846024,72.1071547236282
55.76556108684339,59.538644957971506,69.86564307932962,44.92848681760412,51.78974464309185,34.2318932232659,72.1174294463559
55.56442171905755,58.917796678670435,69.48593679226123,44.387457837076134,51.64664467083098,34.30403683642848,72.1286361167691
55.34991801586645,58.38370086159843,69.11544869848517,43.85010070647343,51.49588286029653,34.37673299226585,72.14064415088798
55.12251652948523,57.936813103228076,68.75479480735952,43.317927998511934,51.33803517628934,34.450119666164504,72.15331130856313
54.882770097857865,57.577060120969094,68.4045017876781,42.79236816524805,51.17369572716051,34.52432389547575,72.16651899397687
54.63129535638781,57.30385076991048,68.06504733204498,42.27476915883854,51.00349242372717,34.599458357900204,72.18017785898608
54.368760585558924,57.116091628185075,67.7368860892821,41.76640088665325,50.82807935760901,34.67561684536791,72.19420606597889
54.0959013514621,57.01222267231334,67.42044209971522,41.26844410872119,50.648116492556866,34.752857973148465,72.20852447021244
53.81354057814811,56.99026597297626,67.11608824982918,40.78197311405527,50.46426437587162,34.83118476313677,72.22308112328585
53.52258237899988,57.04786242561364,66.8241378674849,40.307946553556036,50.27719645313588,34.91053699061511,72.23786444927723
53.223985140366864,57.18229161486804,66.54484479429047,39.84720855502395,50.08760382919033,34.99080024749172,72.25287752717058
52.91874445580858,57.390490197045686,66.27839485550227,39.40049003295093,49.896179927073185,35.071814878608,72.26810409229935
52.607896777649536,57.66908070105537,66.02489458223263,38.968404126718376,49.703605771480966,35.15336995898919,72.28351037174268
52.29252155043765,58.014403878862915,65.78437772766335,38.551444331169044,49.5105559270047,35.235190248013254,72.2990762825795
51.97372397563128,58.42253903624687,65.55682530657604,38.14999646099716,49.31771046927579,35.31693465028253,72.31480778625394
51.652618854823,58.88932096125604,65.34217307847791,37.76435879994251,49.1257461831578,35.39821108503231,72.33071168945526
51.33034369645318,59.410379756010016,65.14029732413566,37.394752666092835,48.935310131159234,35.478593182661086,72.34677151888651
51.00808537386652,59.981198470684504,64.95099865684816,37.04131758524332,48.747006249728734,35.55762415359555,72.36296168169758
50.687080439529886,60.597152332639546,64.77400274096959,36.704104890615895,48.561410161319905,35.63481288238677,72.3792794937543
50.368586923721544,61.253517782340694,64.60896730071725,36.38308295858959,48.37908847587981,35.70964126840634,72.39574787550491
50.05386523212885,61.945483383127325,64.45547608166629,36.07814813577291,48.200594321847724,35.78159013917972,72.41238659116456
49.74418826985681,62.668194010580294,64.31302832170056,35.789126921349194,48.026446661920005,35.8501655306773,72.42919826630603
49.44085485544596,63.4168124311841,64.18104272011841,35.51576874624581,47.85712004105008,35.91490448757508,72.44619272028505
49.14517584649717,64.1865542028704,64.05886758853043,35.257745098412244,47.69305144808467,35.97536593069376,72.46341382887415
48.85844412613309,64.97268420359948,63.94577593272139,35.01466814098754,47.534647367379264,36.0311310213234,72.48092989611452
48.58191979742431,65.77050654660603,63.84094451227074,34.78611969188843,47.382280448608704,36.08182209224756,72.49880589725441
48.316831546221565,66.57537704286997,63.743437260080015,34.571668414566155,47.236291179743624,36.127119714731734,72.51710203173326
48.06436651304006,67.38273099953928,63.65222168317464,34.370871550755055,47.097007837530036,36.16675948337029,72.53589769772378
47.825638234180985,68.18810121496931,63.566223801146016,34.18327959192348,46.96476420275212,36.20052038386226,72.55529691001611
47.60165610143746,68.98712597853185,63.48438006264379,34.00845248232883,46.839890337801556,36.22822609240139,72.57539868665816
47.3933191391427,69.77556928419997,63.40564948290288,33.84597234971168,46.72268843576095,36.249757848754086,72.59626997295285
47.20142317614395,70.54935245830222,63.32900475894449,33.69543853870557,46.61342346198017,36.265058892611904,72.61795607447473
47.02665425429201,71.30456977820738,63.253433621762106,33.556452747303865,46.51233201340795,36.274121046904185,72.64050853746785
46.869567620875664,72.03747923589583,63.17794800272203,33.42861544339849,46.41962424402587,36.276966130073134,72.6639858806502
46.73058034694401,72.74449484121598,63.10158508134931,33.31154198021807,46.33546603620997,36.27364023741336,72.68842578929582
46.609990747105485,73.42220644534984,63.02339994512394,33.204880545187876,46.2599646283751,36.26422361013858,72.71383081676053
46.508000475121705,74.06741514339562,62.942464282224506,33.108312437843054,46.19318593195579,36.2488396103449,72.7401852992283
46.4247135853962,74.67714901204393,62.85787992466304,33.02154492860227,46.135192556481876,36.22764719182964,72.76746957547266
46.36012367179773,75.24864997217804,62.76879479938142,32.94432022698672,46.08606244408346,36.20082432883424,72.7956426583141
46.31411882093716,75.77935930154551,62.67440132780912,32.87643685443376,46.04587399309202,36.16856586018163,72.82461668954525
46.28650707410711,76.2669244269748,62.57391984632801,32.817755923157875,46.01468507147784,36.131103532723415,72.85426391402429
46.27703307350587,76.70921407016105,62.46659609650722,32.76818246176714,45.99252949641956,36.088726155342506,72.88445214237501
46.285369957904926,77.10431627226029,62.35173190514278,32.72764331023272,45.979419186107556,36.04178032340891,72.91506236356079
46.3111124003915,77.45052330983708,62.22872531301952,32.69608315698084,45.97533156483554,35.99066724392447,72.94596832144359
46.353800838817676,77.74633611950439,62.097082019611356,32.673471365745094,45.98019047322113,35.935856930986056,72.97701494058313
46.41296117781745,77.99049999941647,61.95639973952909,32.659797284148254,45.99386572823878,35.877904313404215,73.00803291796205
46.48811852600412,78.18203686147423,61.80635759179229,32.655052013371495,46.01619189261733,35.81743929148139,73.03887053999829
46.57877840817865,78.32024611919869,61.64671959774323,32.659217585575206,46.04697832910153,35.7551360127138,73.06939728353218
46.68440928081698,78.40470165536547,61.477330198616855,32.672273617594996,46.08599669819659,35.69168935205592,73.0994778141764
46.80444880958616,78.43527612233488,61.29809189944143,32.69420429630036,46.13296750930643,35.627807658436375,73.12896047591538
46.93831647752207,78.41216746844309,61.108948845304944,32.724987767324784,46.1875669119124,35.56420383764578,73.15769854511878
47.08540653418056,78.33588830813726,60.90989904769347,32.764573387549106,46.2494403282927,35.50157139859677,73.1855672512144
47.24506710482731,78.20722578234727,60.70101888861436,32.81286588889248,46.31819805346605,35.440557180280116,73.2124450780259
47.41659443847106,78.02720889446942,60.4824657190977,32.86972661257956,46.39339518873513,35.38175286337756,73.23818385339843
47.59925146611751,77.79709904589964,60.2544581156795,32.9349815251781,46.47452169671029,35.32571133551072,73.26261100461454
47.79228494343925,77.51838356562095,60.017267425095646,33.008418153005316,46.56101682007291,35.272966952438466,73.28556157445084
47.99491965255026,77.19274824516191,59.771233360685905,33.089771410020894,46.65229088156885,35.22403586986497,73.30689428912507
48.20634676137013,76.82203785472909,59.51677409181489,33.178717600396354,46.74773070749813,35.17940240226516,73.32647102581403
48.425732999543506,76.40823346523234,59.25436733297494,33.2748867770537,46.84669421138209,35.13951562026668,73.34413548140547
48.652241974790265,75.95344923949416,58.9845179097539,33.37787733076153,46.948518347657334,35.10479992839896,73.35972841517838
48.88503757138143,75.45992019476311,58.70773864981088,33.48725364212519,47.052541670651806,35.0756587289616,73.37312150915378
49.12326633706039,74.92996800284057,58.424550316590945,33.60253081988122,47.15811609828795,35.05245965774627,73.38422382657585
49.3660507042642,74.36596677837115,58.13548352322515,33.72316521942405,47.264596133070754,35.035515083700574,73.39295628473918
49.61251370172647,73.77032828951033,57.841066093732124,33.84856265648668,47.37132641930838,35.02507294424351,73.39923688706646
49.86180986696013,73.14549544959944,57.54180079305391,33.97809760673521,47.47765121440695,35.02131339439093,73.40300207736931
50.113127907620715,72.49392226672501,57.23815401716858,34.11112443544573,47.582937675158206,35.02433868474124,73.40423443063513
50.365674723852585,71.8180420617013,56.93056529408049,34.24697452544617,47.68658374366013,35.0341566925997,73.40295747673552
50.61867510943384,71.12025139195755,56.61946034578437,34.38495513059047,47.78800289686036,35.05067252931506,73.39920916731533
50.87138981415839,70.4029231415639,56.30524638409686,34.52436257049492,47.88661141572829,35.07369742453626,73.39303681501116
51.12312132278061,69.66842240627393,55.98829489524153,34.66449948736919,47.981839889862115,35.10296461848598,73.3845184312824
51.37319487511989,68.91909600648727,55.66893620677947,34.80468010608471,48.07315496339342,35.13813562195825,73.3737695901501
51.62094345134705,68.15724560832332,55.347477063539536,34.94422616842472,48.16006426430581,35.178795887342254,73.36091571119601
51.865724707196755,67.38511471204295,55.02422246504051,35.08246726259146,48.24210804322804,35.22445379094238,73.34606246112455
52.10695271410032,66.60489785827289,54.69948108688777,35.218746108464686,48.31886419570714,35.27455123660732,73.32929914392312
52.34410584863793,65.81875030420198,54.37356693616134,35.352416845075304,48.38996923751475,35.32847674393276,73.31072016722793
52.57670637032187,65.0287781037834,54.046817101937684,35.48283495047829,48.45512751249163,35.385568095535994,73.29042391578638
52.80430241495253,64.23702059869453,53.71961063869512,35.60935502684087,48.51409501025018,35.44510704197148,73.26848711282854
53.02647082086732,63.44545205676883,53.392361713957506,35.73134630899521,48.56665882167503,35.50632354847659,73.24495783057829
53.242824443811,62.65600051450392,53.06549222834421,35.84821086619406,48.61263585214897,35.56842137489037,73.21988823589881
53.45300105986533,61.87055335035997,52.739417114780956,35.9593859372146,48.65188400427271,35.630610919688365,73.19336830449237
53.65664041639164,61.090938084734425,52.41456216239722,36.064335025870555,48.68430137509453,35.69212374069773,73.16551825782378
53.85337816626717,60.31890562451043,52.09139192024878,36.162545143306005,48.709810510589165,35.75220672944683,73.1364564846544
54.04286454176254,59.556140844440925,51.77041060974175,36.25353466659529,48.728352928723076,35.810118617220716,73.10629012568869
54.224780146859715,58.80428350098146,51.45213348396258,36.336859424744794,48.73990780641237,35.865142001520866,73.07513434483114
54.398826904391186,58.064926446747485,51.13705837191868,36.412105979702275,48.74451214592655,35.91659699978645,73.0431191888501
54.56471066401711,57.339594649872005,50.82565994303068,36.47887808989684,48.74225600938016,35.96383905803352,73.0103641144148
54.722143049495266,56.62973924163715,50.518398692032584,36.53679504883087,48.73326176845857,36.00624656897491,72.97695664484037
54.87085898503006,55.93675517258136,50.215721058887816,36.585509900522524,48.71767487524107,36.0432208401443,72.94297216744319
55.010621925379006,55.26199005652652,49.9180490570119,36.62473013155538,48.69567012909404,36.07420913712961,72.90851260774208
55.14120717012748,54.606723582596565,49.62578332120897,36.65422034591416,48.667451086903434,36.09873258278023,72.87371294735539
55.2623876311903,53.972141421588745,49.339324630702315,36.67379041491128,48.63323059068928,36.116394315145534,72.8387101095093
55.373945563991455,53.359332620240394,49.05908451679796,36.6832895489508,48.59321016477903,36.12687010220361,72.80362080376605
55.47569621226845,52.76930124266786,48.78547049605207,36.682618001067084,48.54758120250241,36.12990288483231,72.76855863258113
55.567490546470125,52.20296239137755,48.51887791282691,36.67174410476564,48.49654297174476,36.12530841531025,72.73366127012318
55.64919369591633,51.661120315538646,48.259718844901265,36.65070607233894,48.44031018685467,36.11297665290413,72.6990859525934
55.72067019157462,51.14446173428136,48.00846349712007,36.61959881791623,48.379102028218774,36.092859856120604,72.6649840357506
55.781797920215105,50.65358275242359,47.765648718178426,36.57856457420155,48.313138677128556,36.064964319235344,72.63149723096923
55.83249185525323,50.189018257332414,47.531854422537904,36.52779700899527,48.24266271474223,36.02936290613047,72.5987795872785
55.872705262775646,49.75123710243118,47.307683129418436,36.46754796938571,48.16796117276803,35.98621559435284,72.56700474037976
55.90241085011418,49.340613550711154,47.093753452400726,36.398123593596665,48.089360049675044,35.93577240133652,72.53633905424033
55.921593350341126,48.957412410056946,46.89068811934763,36.31987554005169,48.007204658970316,35.87835433233238,72.50691502588552
55.93026496676041,48.6018011254748,46.69908741926784,36.23319983508503,47.92185824105135,35.814329913996154,72.4788427694996
55.92847886886102,48.27386518619414,46.51950381343607,36.13853756738622,47.833719529280636,35.744101749476464,72.4522426396418
55.91631889077722,47.97360274579736,46.35243245589744,36.0363636156234,47.74322847782032,35.66809873698944,72.4272502409197
55.893878494904136,47.700910436897715,46.19830948591173,35.92716671044667,47.65084538094379,35.586762045276735,72.40398606911167
55.86125557564929,47.455588877517265,46.057499677236684,35.81143913080362,47.55702566878954,35.50052581428597,72.38253406869993
55.818563800807574,47.237365592007954,45.93027865658616,35.68968742008129,47.46221638406192,35.40980918691571,72.36295833996243
55.76593543952703,47.04590432494531,45.81684762868412,35.56245840257447,47.3668679683169,35.315031672467796,72.34532903744044
55.703504047117555,46.880789478038075,45.717399728952,35.43036523924483,47.271433673395514,35.21663723995233,72.32971577075703
55.631387403632615,46.74151091434291,45.63219061429591,35.294099953846846,47.17634871293603,35.11510015318602,72.3161578513799
55.54969345480555,46.627471502987575,45.561552134097155,35.15443430550902,47.082012883823616,35.010911418852224,72.30465586798547
55.458540598943344,46.538004118089596,45.505851480710454,35.01221967642222,46.98879665521326,34.90457235804428,72.29519439311301
55.358064131954535,46.472372853974335,45.465441844671055,34.8683800779553,46.897056162119,34.79660842002194,72.28775572967194
55.24840300894375,46.429763458376804,45.4406302956332,34.72388601367188,46.80713083277334,34.68758243270508,72.28229957377653
55.12969284126296,46.40929055218173,45.4316538299031,34.579718107955046,46.719327161434066,34.57808462230482,72.27874002574407
55.00208454920884,46.41002474093658,45.43865431519035,34.43684409914039,46.633914362921665,34.46870677856681,72.27695920611633
54.865771144595314,46.431009284209146,45.461670669570566,34.296219440332784,46.55113713705543,34.360025982199005,72.2768428197066
54.72099138193634,46.471248780664006,45.50066605090157,34.158795754422954,46.47122214861175,34.252608193914995,72.27829008391932
54.5680088654779,46.52969112806887,45.555566548623204,34.02551723440467,46.39436533058639,34.14701443833857,72.28118914905892
54.40709624044772,46.605229453438966,45.626275029106864,33.897306288150816,46.320720980148394,34.04379070263324,72.28540122649407
54.23854369775513,46.69671836915728,45.71265932995305,33.77505269076036,46.25041609991359,33.94344756242196,72.29078340669737
54.06267428144694,46.802978698034046,45.81453587346966,33.6596097123384,46.18357725199656,33.846450620439,72.29722044952311
53.87984101248553,46.92278709707853,45.931672627323096,33.5517863966467,46.12033708394445,33.75323011841237,72.3046213398898
53.69041419110444,47.05487975793725,46.06383708136315,33.4523284557243,46.060816148684246,33.66419399277463,72.31289064968264
53.494784974029145,47.19798899960405,46.210872912225874,33.361895124617185,46.00510993564372,33.57972550828931,72.32192276940427
53.29338321404637,47.35088619449678,46.37274132999928,33.28104862727419,45.953299220774966,33.50016835734405,72.33162913078455
53.086680437547976,47.51239308817375,46.54950902994955,33.21026218446141,45.90546410923832,33.42581969034049,72.34195475935516
52.875168939328404,47.68136481090715,46.74133555813606,33.14992954400071,45.861676741531056,33.35694439450942,72.35285668836785
52.65934486901512,47.85668001282728,46.94848357933778,33.10036089249986,45.82197848316932,33.29379754023141,72.36427572034229
52.43971732348762,48.0372541949946,47.17131678484903,33.06177510776976,45.78637087949411,33.23663142688205,72.37614145595167
52.21682465725794,48.22205372897205,47.410273534057374,33.03430386518157,45.7548367233612,33.18568748527553,72.3883980319766
51.99122886080507,48.41008783912096,47.665840948575394,33.018004342335374,45.727369497104796,33.14119139397624,72.4010062187415
51.76349493749111,48.60039059007814,47.938527994387044,33.012864706845306,45.70397770204514,33.10335415657464,72.41391399228291
51.53418599434763,48.79201630475616,48.22881637532384,33.01879597060479,45.68466494347617,33.0723653036726,72.42703752440828
51.303879342425205,48.984045906860466,48.537096911411865,33.03562255680984,45.66941495488459,33.048376283187075,72.4402834015233
51.07317491307974,49.17558366791742,48.86362222632901,33.06308927052085,45.65819474715836,33.03149336266438,72.45358488042376
50.84267893028609,49.36574024272223,49.208491863139336,33.10088446158723,45.65095816199915,33.021793889549855,72.46690587849248
50.61298524719037,49.55362461558116,49.571653726903335,33.14865764386094,45.64763292311953,33.01934888879546,72.48021609460754
50.38468095009691,49.73836258851891,49.95289989923103,33.2060173004237,45.64810341773611,33.024224436137764,72.4934825356599
50.15836474110249,49.91912321684274,50.35186554872831,33.272522359859295,45.652214039717755,33.036462571499925,72.50669163944909
49.934646006493054,50.095122822509474,50.76805113538476,33.34768727045115,45.65979295276735,33.056069294488445,72.5198625145921
49.71412092815205,50.26561116563563,51.20085458245494,33.43099773611104,45.67066707192483,33.083025506527,72.53302301701238
49.4973574826735,50.429874434502494,51.64957851163185,33.52191691590737,45.68465134443416,33.11730323888932,72.54617717129948
49.28491056809819,50.587266651934605,52.11340548532165,33.61987551709105,45.70153256508182,33.158862763024246,72.55930417476578
49.07734437465997,50.737235373583516,52.59137833532017,33.72426332582549,45.72107207000353,33.20763443289291,72.57238064799797
48.875228689189015,50.87931160346859,53.08243525848564,33.83443877777953,45.74301922179025,33.26350791615396,72.58538410346698
48.679115584536085,51.01308118367862,53.58549696789246,33.94974785620131,45.76711128390566,33.326337302664,72.59826722195497
48.48952988308363,51.13817429969334,54.09953362816574,34.06953067405703,45.79305720753329,33.3959482899428,72.61094114931211
48.30698118397164,51.254280758244924,54.62356290721549,34.19311318269438,45.82052892800276,33.47213343387986,72.62329573878694
48.13196903202574,51.361163101550254,55.15661281315245,34.319804259185574,45.849177135910104,33.554639141125634,72.63522903219634
47.96496316237124,51.458643701382854,55.69769289754154,34.448910680234015,45.878656080523236,33.64315920812729,72.6466440892347
47.806380146182846,51.54657851763487,56.2457700228473,34.57975535356606,45.90863026820749,33.73734538994396,72.65742098946686
47.65658421737267,51.624848982641836,56.799732953306396,34.71167812890299,45.938764915756245,33.836828754069984,72.66740754896892
47.51590514396656,51.6933811229217,57.35835441905656,34.844021035416525,45.96872769454648,33.941232160290284,72.67644000020238
47.3846420924506,51.75216595074098,57.92027269285282,34.9761189690528,45.99821117136931,34.050167716529465,72.68435623553378
47.263044908522446,51.801256233711634,58.483999104882066,35.10730937838418,46.02695128157424,34.16323571529951,72.69097703629869
47.151300216370856,51.840752645618885,59.04793150162547,35.236949320045305,46.05471945769751,34.280033892116464,72.69608495962079
47.049545032994246,51.87080730166904,59.610357217623736,35.36441995654919,46.08129987098176,34.40016277625193,72.69943991407192
46.95789085478101,51.891640140497636,60.16946144195408,35.48912086330687,46.10648105284761,34.523214775777255,72.70081874420721
46.8764262302179,51.90353767095453,60.72335884477742,35.61047399528629,46.13007036937959,34.648754949171696,72.70003078109009
46.805198225530575,51.90682630988508,61.27013444042054,35.727941827676375,46.15190751739589,34.77631000548209,72.69689736912767
46.744203428539365,51.90184815357221,61.80787310175298,35.841040881249064,46.17185610876349,34.90537267112637,72.6912384991803
46.69340250965621,51.88896269606389,62.33468640967526,35.94933604382354,46.189787116922886,35.03541275668163,72.68289946224644
46.652735234053246,51.86856018668126,62.84877439142395,36.05242375950504,46.20558142452509,35.165881764879984,72.67178773306325
46.622111904339825,51.84105699589579,63.34853232806212,36.14992253012651,46.219150884223126,35.29621246013927,72.65787159185355
46.601391709063016,51.80687417747388,63.8326366441722,36.24147983747719,46.23044958012529,35.425824395528096,72.6411461321571
46.590377629729126,51.76642948513573,64.30004548016599,36.326786778648646,46.239460064456516,35.554132618006044,72.62161614474473
46.588835164920745,51.720154577637935,64.74993831176745,36.40558476076904,46.246172657042976,35.680547473674004,72.59931621508197
46.596507728720354,51.66851118864104,65.18165585448556,36.47766325483404,46.25058259460477,35.804470300084965,72.57433169311884
46.61310567231386,51.611981208299696,65.59466361767552,36.5428606761365,46.252703011406595,35.92530238982482,72.54678515609568
46.638283497092495,51.55104251924642,65.98852408332839,36.60106897591591,46.25256866032825,36.04246627399546,72.51680844763452
46.67163823012291,51.486158263853135,66.36285903099964,36.652228678127706,46.250220619143484,36.15541800195057,72.48454187391299
46.7127377583611,51.417781866469284,66.7173071785834,36.696312238999205,46.24569456229859,36.26363993250724,72.45015677818306
46.76115040467327,51.34635478535745,67.05149975927152,36.73331263161045,46.239031648685625,36.36662654750986,72.4138584429841
46.81644752117967,51.2722872724968,67.36506231644648,36.763248564020245,46.230295480339265,36.46387945793508,72.37585579018702
46.878190794382064,51.19594363527941,67.65762179618,36.786173678615306,46.21956864500975,36.55491421574648,72.33633781744712
46.94593385498555,51.11765204679677,67.9287964851928,36.80217134002892,46.206933044955605,36.639269068216976,72.29549129524612
47.0192375843653,51.037724087627055,68.17817380304498,36.8113373209893,46.19246319916834,36.71650620751755,72.25353529598226
47.09767183124676,50.95645630304092,68.40529774019352,36.813769695730976,46.176244740058195,36.78620957924231,72.21072453350996
47.18079708086236,50.87411652070509,68.60967652790758,36.80957521724976,46.15839376594341,36.847993997764014,72.16732186352667
47.26815597205658,50.79094222700453,68.7907975577512,36.79887765297124,46.1390529554848,36.90152750699201,72.12358493789995
47.35929794136131,50.70715817467015,68.94813150267467,36.78181130873954,46.11837755230368,36.94654651274456,72.07978332054225
47.45381516787599,50.62298839232072,69.08113113420666,36.758502571957386,46.09653483560261,36.9828485803339,72.0362083209407
47.551351598086995,50.538644859377726,69.18924430425213,36.72905474306451,46.07371079540522,37.01027507012201,71.99314811477728
47.65158519437595,50.454309665176105,69.27193843703786,36.693549520452265,46.05010237282226,37.028706466799015,71.95085785169721
47.754218267270666,50.37013655987796,69.32871247564823,36.65206288542402,46.02589601196132,37.038074886691994,71.90956602698884
47.858991749609274,50.28626819027177,69.35908945303377,36.60467567677185,46.001257088185106,37.03837476496107,71.86950655815224
47.96569854973032,50.202841197476076,69.36261316327735,36.55146853961185,45.976343441374645,37.02965556213878,71.83092833733059
48.0741725830264,50.119970627064475,69.3388672057718,36.49251490845659,45.95132250113147,37.01200528791146,71.79406671456846
48.184271107598704,50.03773914219962,69.28749989326943,36.42788470319047,45.92636584289344,36.98554614333244,71.75911651103361
48.295881802951506,49.956210548037845,69.2082284240926,36.35765142754772,45.90162717381007,36.950446048687496,71.72624347981134
48.40894798479845,49.875448987263695,69.10082466490472,36.28189013919437,45.877231569345994,36.90692568633449,71.6956143692255
48.52347426724588,49.795515751205755,68.96510794730543,36.200667060535906,45.85328602087654,36.85524572527916,71.66739871022068
48.639500263425276,49.716449371985235,68.80095601265616,36.114034342487564,45.829890415683245,36.7956845524029,71.64173990752627
48.75707286441805,49.63825979320143,68.60831645732294,36.02204132598916,45.807127562301865,36.72852663451134,71.61874148012474
48.8762439676189,49.560947562846444,68.3872106136422,35.92475446571928,45.78504037310345,36.6540658429241,71.59849261083947
48.99707858255618,49.484522264839725,68.13776929260041,35.82226540301273,45.763622841752806,36.57260805329697,71.5810983872303
49.11964390157657,49.40899616564348,67.86033369553513,35.7146826987332,45.74283508116908,36.484460094260825,71.56667526936452
49.24398289403865,49.334367897538684,67.55556982370963,35.60212267856184,45.72262165690159,36.389913838421414,71.5553294774863
49.370100945977605,49.260625794563026,67.22451052859849,35.48470823626027,45.70291186181704,36.28924570921648,71.54716149044934
49.49797303580227,49.1877681627964,66.86851336627839,35.36256764769289,45.68361311947467,36.182736500187104,71.54229163229971
49.62754794780551,49.11580951721834,66.48919070807317,35.2358259643424,45.66462125825218,36.07069034567672,71.54086136671225
49.75873351222251,49.0447625137419,66.0883568454171,35.10459673522093,45.645843706227005,35.95343299744095,71.54299820257582
49.891378994884754,48.97462365413116,65.66798976601191,34.968989586415745,45.6272089813534,35.831298625599274,71.54878524740884
50.025277881262824,48.90538684103647,65.23018503918027,34.829133989480795,45.608653573701545,35.70462818053492,71.55827046961916
50.16018596914639,48.83706709974557,64.77709766270254,34.68519832677763,45.59010888125995,35.57378261243887,71.57149523694218
50.29582758855634,48.76970209708148,64.31088838898152,34.53738875691632,45.57150914058842,35.43915048222999,71.58849692836705
50.43188124167965,48.70333386370431,63.83368487339592,34.38593847161398,45.55280781897867,35.301136738592305,71.60928317026791
50.5679692108491,48.63800283521377,63.34755043153468,34.23110970417671,45.533976099501125,35.16014455210279,71.63382076665981
50.70367381446299,48.573766397256,62.854453470544804,34.073211884418065,45.51498459779951,35.01656749845956,71.6620601412906
50.83856665057509,48.510715007679124,62.356242922567915,33.912613223093224,45.495795277349686,34.87079316562409,71.69395991158481
50.97222087383146,48.448961647490464,61.85463638637255,33.74972837506157,45.47637537765475,34.723205317647704,71.72947565751204
51.104206717177796,48.38862144208504,61.351217846104646,33.584992151229066,45.456711725432854,34.574175357339314,71.76853361914314
51.23409753556176,48.32981244763372,60.847433178647414,33.41884041692793,45.43680261272948,34.424049811780755,71.81103361152677
51.36149219224581,48.27267408959529,60.34458470690071,33.25170760162991,45.41663664725137,34.27314942881149,71.85687860058822
51.48602668290824,48.21737149020469,59.84387064810828,33.084030754285656,45.39618708012864,34.12178359899901,71.90598449037246
51.60735969240707,48.16407517353944,59.34652387821555,32.916244905335645,45.375429981601904,33.970263893954844,71.95825246044814
51.72515459293604,48.11294268453411,58.854002870401736,32.74877153764973,45.35436165120901,33.81890132976616,72.01354320268429
51.8390845902685,48.064125385491835,58.368097459790775,32.58201679684946,45.332991653196025,33.667994176068774,72.0716897632947
51.94885207058716,48.017785522098784,57.890894390234465,32.416385529065586,45.31132040432955,33.517825459303495,72.13252815617746
52.05419128981951,47.97409359535135,57.42468290301387,32.25229442859192,45.28932906842853,33.36867383871004,72.19589956543128
52.15484765797752,47.93320671468415,56.97188801603064,32.09016686542942,45.26699309663777,33.22082070836509,72.26162188113862
52.25056171602002,47.895258625662024,56.53503870191741,31.93041553636125,45.244299532169954,33.074543112559134,72.32947505854682
52.34108093633609,47.860376649442095,56.11672630657947,31.773432538053758,45.22124513738016,32.93010440731629,72.39922527434834
52.426182923645115,47.828701327232686,55.71953282036532,31.619592987559482,45.19782322632336,32.78775665196952,72.47065583210843
52.50567729977196,47.80037947250313,55.345960763156455,31.469258669554055,45.174022635993445,32.64775185194172,72.5435648402564
52.57938689009765,47.775537663839074,54.99839254574586,31.32277053809176,45.1498398749151,32.51034829788178,72.61774298278728
52.64714213243425,47.7542677444902,54.67906149958396,31.18043876068692,45.12528298483675,32.37580640727398,72.69297471139113
52.7088043796058,47.73663567629106,54.39000755484294,31.042544758510108,45.1003581369952,32.244389321623636,72.76906558018256
52.76429000337896,47.722690501859724,54.13302170228584,30.909353284904718,45.075057948298486,32.11638373080622,72.8458525082143
52.81356556637503,47.71245348810539,53.90960183515314,30.781119351906458,45.04936861563852,31.992124602859793,72.92317743173695
52.856626190448516,47.705902554487764,53.72093406911845,30.658083920781532,45.0232826757938,31.871995378202453,73.00086174043263
52.89348805138969,47.70297632418124,53.567897759744596,30.540472141411296,44.99679487102941,31.756409011791092,73.0787194693845
52.924197118620654,47.703591856935475,53.45108029781704,30.428507510220722,44.96988511433957,31.645804260308058,73.15658944172364
52.94882836155091,47.70764861921748,53.37078689504329,30.3224302218374,44.942514667244694,31.540670256940626,73.2343384240494
52.96746511617975,47.715011700467265,53.3270428589695,30.22249773451472,44.914646047618895,31.441569415214737,73.31183120837704
52.98018238729403,47.72550090561079,53.319592281368486,30.128967527863463,44.88626312961305,31.349128533174266,73.38891269146399
52.98705614086159,47.73890885005481,53.34789114344394,30.04208281228754,44.85736787155867,31.264009011829444,73.46542811166118
52.98818280968851,47.75503119698922,53.411094278143274,29.962073491128614,44.82796599660511,31.186887156313762,73.54124902546134
52.983678608275284,47.77367445504835,53.50804642881127,29.88916048281495,44.79806597340385,31.11845180387963,73.61626503938578
52.973661009051,47.79463976996835,53.637294370971865,29.82354659607073,44.76768751144666,31.059398081792015,73.69035585391626
52.95824157417564,47.81771585391362,53.79713017758914,29.765397685735373,44.736858030065314,31.01040359379961,73.76338782438727
52.937538068792215,47.842699955558714,53.985649569812686,29.71483519336798,44.705593820108824,30.97210069560454,73.83523913724726
52.911681239488544,47.86942332941808,54.200794463679244,29.67195181923503,44.673886526486065,30.94506233477096,73.90581133331065
52.88080072593164,47.89775038031551,54.44037654286578,29.63683376208997,44.64171143298614,30.929797758597346,73.97500523653865
52.84501057594825,47.92756036994863,54.70210057211458,29.609564905510894,44.60904582858378,30.926741639689755,74.04269507669156
52.80442232392477,47.958745527396495,54.98358511413192,29.590215512483784,44.57587307209763,30.9362337511642,74.10873886008507
52.759178160104675,47.991230281870735,55.282369705261075,29.578840818798255,44.542171795102874,30.95850599563766,74.17300895360269
52.70946751165194,48.02497946986579,55.59591942524401,29.57550005171193,44.50791429203628,30.993687949825347,74.23539718779251
52.655512948816614,48.05997827008585,55.92163948557019,29.58027511057641,44.47308421867981,31.041817636227105,74.2957891809727
52.597554414539196,48.096209438032226,56.25689235161576,29.593266943750855,44.43769198517115,31.102838726724148,74.35405137884827
52.53585927593963,48.13365663027832,56.599004598911826,29.614576465206575,44.40176698239214,31.176585740611248,74.41005661217216
52.4707422624081,48.17232245982701,56.945264068026376,29.644288211611755,44.36533779006991,31.26277634431897,74.46371504398904
52.402562595772864,48.21222939641634,57.292928261434255,29.68245816300517,44.32842770253278,31.361026905994834,74.51496818314841
52.33170087430781,48.25340107929378,57.63927547800414,29.729097625305656,44.29107190692893,31.470884563765754,74.5637594697598
52.25854864207873,48.295850447089215,57.981694593286036,29.784154639878547,44.25333251581963,31.591849269410687,74.61002796133812
52.18352295097159,48.33958394090687,58.31775493945086,29.84750487555041,44.215291379457774,31.723372837962742,74.65373100735799
52.10707908305729,48.38460170084413,58.64521623161292,29.918961329510715,44.177034209232275,31.864850553678636,74.69485306962133
52.02969630764826,48.43087947391666,58.962006607668584,29.998293858702986,44.13865103254111,32.015621145853615,74.73337882621001
51.95185010107413,48.47834596875486,59.26620797914279,30.085236537049855,44.10024995673562,32.17496961968618,74.76926536462112
51.874001279557554,48.526879831483946,59.55604821214412,30.179477683113518,44.06195878275289,32.342122300435754,74.80245111632249
51.79660426843024,48.576328702374845,59.82988352181657,30.280653038663235,44.02390649731122,32.51623909052354,74.83288448592671
51.720106598767174,48.626525009242506,60.086173954229686,30.38835754502046,43.98620775624923,32.696418855903275,74.8605270201243
51.644926897008304,48.677279618874365,60.3234762387807,30.502163072437924,43.948972430139925,32.8817221627142,74.88532720771133
51.571435901449306,48.7283669062401,60.54046904992188,30.621621643708227,43.91232784876315,33.07119376527988,74.90720937889941
51.4999642823334,48.77952547189035,60.735987414114554,30.74625558226384,43.87642337107357,33.263867353167996,74.92610330850204
51.43082220569212,48.83047356147374,60.90903475345593,30.875551970681126,43.84141378700299,33.45875835978802,74.94197970019567
51.364299307176914,48.8809147204712,61.05878892271765,31.008970123019242,43.8074492810996,33.65486549173685,74.95484729043167
51.3006449001511,48.93052431167691,61.184640717764715,31.14595377317676,43.774688928976865,33.85118915235369,74.96472297726169
51.24005910619882,48.97894060203599,61.286249734502576,31.285934749844742,43.7433187881894,34.04675050243896,74.97162025937924
51.18271001914647,49.025782534064646,61.363561680413305,31.4283285914397,43.71354928137969,34.240593664378004,74.97556528168758
51.12875301567102,49.07067870419389,61.416770342413855,31.572535750312376,43.68559948082358,34.431777938923496,74.97660343612701
51.078326165150116,49.11327587171871,61.44626066545754,31.717952926413417,43.65969438076012,34.619382610752844,74.97477537942746
51.03153475638395,49.15322654824991,61.45257039348012,31.86398207039412,43.63607577569128,34.8025329222776,74.97009330200264
50.9884556729658,49.19018627833094,61.43637265388099,32.01002692141221,43.61500154706553,34.98042714198319,74.9625538639647
50.94915967010032,49.22383472529753,61.39845602588648,32.15548568588182,43.59672369875635,35.152340986803324,74.95217258128515
50.913719165198266,49.25389589580394,61.33969289172274,32.299756567131695,43.58146554744029,35.31761262368178,74.93899257829868
50.882190254624255,49.28013263012308,61.26102169174594,32.442256009242136,43.569416520235585,35.47562816501441,74.92305897209047
50.85459704419711,49.30232855429833,61.1634614535082,32.58243075186692,43.56073480955638,35.625817823859244,74.90440289166757
50.83094227208777,49.320287049033865,61.04812872531311,32.71975297040465,43.55553801144924,35.76765811266958,74.8830651974143
50.811227169282795,49.33384776661341,60.9162194817096,32.8537111726093,43.5538855192405,35.900670927313506,74.8591291485615
50.79544912914895,49.34289223643786,60.76896400008392,32.983815127057156,43.55577865762991,36.024417647929404,74.83271804886708
50.78357833565084,49.34732581175503,60.60759141109277,33.10961255907929,43.56118699100458,36.138498195405994,74.8039674221019
50.77554406395552,49.34705983684423,60.43332561537723,33.230696992757416,43.57007226978022,36.24256116858939,74.77301586621991
50.77124649002448,49.34201976076495,60.24739789970265,33.34669845282806,43.582382956762615,36.33631211772082,74.74002253943222
50.77057316588092,49.332168042247716,60.05104353147042,33.45727318525303,43.59803095082675,36.41950562459518,74.70517192857417
50.77339547186661,49.317510253386395,59.84547378856301,33.5621068281424,43.61688361486245,36.4919284729857,74.66864457099108
50.77955449964312,49.298081364089796,59.631843455173865,33.66092212564519,43.63878378184426,36.55339518882603,74.63058799595183
50.78886350592419,49.27394097338979,59.41122862455001,33.75347435099128,43.66357358418189,36.603763620382075,74.59112751449639
50.80112821059063,49.24518902840092,59.18461254959127,33.8395360864096,43.691094857333006,36.6429509924013,74.55040082410409
50.81615775451144,49.211976953675745,58.95287432342118,33.918890777599024,43.72117502741969,36.6709294323037,74.50856701113129
50.83375335907085,49.17449284936153,58.71678259348524,33.99134507121754,43.753627009055144,36.687706941544164,74.46578066531504
50.853698770096216,49.132934819514155,58.477002523214914,34.056744605324106,43.78826624350438,36.69331493877086,74.42217399269909
50.87577725910741,49.08749984729476,58.2341136632896,34.1149741659148,43.82491881733395,36.68781206433445,74.37787516617998
50.89979849176758,49.03839110219046,57.98861874648807,34.16594599826867,43.86340807531029,36.671293718035166,74.3330338531357
50.92560018767761,48.985820654538614,57.74093348072511,34.20959596635628,43.90354207132645,36.64389090917397,74.28781353706667
50.953025229739644,48.92999524984655,57.49137761421718,34.24589482950528,43.94512320181075,36.605757663526354,74.24236105580638
50.98191055219551,48.871104486868006,57.24019287402571,34.274858220682816,43.98796549367149,36.55706269567053,74.1967970887815
51.012107777404196,48.80933270261614,56.98758096250173,34.296539099919066,44.03189251199425,36.49799430643523,74.15123597934009
51.04351029205822,48.74488119014454,56.733728579387346,34.31100925448349,44.07671799926029,36.428766488552384,74.10579503331527
51.07605297024148,48.67797027049955,56.47881302300767,34.31834950099207,44.12223715283283,36.34961207428371,74.06057015240505
51.1096927849167,48.608821476253866,56.22302094282439,34.31865947328272,44.168242874865925,36.26076865891118,74.01561044236091
51.144406496210294,48.53765291635161,55.96659018644932,34.31207629314232,44.21454668828007,36.16247565829035,73.97093052320302
51.18021081942978,48.46470361093183,55.70983650903075,34.29878089160536,44.26097789662721,36.05498956774398,73.92654516321889
51.21717020959249,48.39025866178677,55.45313716619729,34.27898908006231,44.307365400054195,35.93860213535875,73.88247873540674
51.25537350148331,48.314644406421486,55.19688995654224,34.25294599454822,44.35352559026989,35.813642675517514,73.83874095428374
51.2949066388904,48.23820519713514,54.941482434589396,34.220932421867744,44.39926248485706,35.680466402568,73.7953114164548
51.33585301927012,48.16129439794042,54.68728553722659,34.18326726120669,44.44436528342499,35.53944574068602,73.75216208909261
51.378311491728994,48.08428321052584,54.43465601525169,34.14029279652636,44.48859550044539,35.390973528562164,73.70928911818305
51.4223975549413,48.00756043961443,54.18392611080963,34.092352939501026,44.53167967242924,35.23546920684241,73.66671090310193
51.468222003021104,47.93151116354521,53.935386950707745,34.0397857411437,44.57332804538455,35.07337767641296,73.62444081927448
51.515878215459296,47.85649845871112,53.689294481415914,33.98293660963151,44.61326968954239,34.905170680173796,73.5824802173004
51.56545650295914,47.7828721791274,53.44590346007944,33.922172872183125,44.65126938352075,34.731365059490365,73.54084191106715
51.617061457064516,47.71099031364468,53.205494614169,33.85787910324332,44.68711345490772,34.55254477180341,73.4995627833731
51.67080312970264,47.64122082582028,52.96836659418871,33.7904385689909,44.72059164523903,34.36936112148048,73.45868045860477
51.72677228334758,47.57392263340351,52.73481013425531,33.72022044765034,44.75150502796244,34.182510912678836,73.41820678769116
51.78503112096046,47.5094364278893,52.505106454494474,33.64758025150893,44.77969314520468,33.99271612094405,73.37813821595381
51.845622661752145,47.44810074439931,52.279566173658864,33.57286262488931,44.80504693415528,33.80072284297036,73.33848917399472
51.90857095506837,47.39026870571315,52.05857291386402,33.49639384921349,44.82749718738349,33.60731160698594,73.29930045789091
51.97386029970109,47.336298182231126,51.84258694045216,33.41846825824323,44.84700554874031,33.413297747773136,73.26061158966772
52.041419811140294,47.286526909512375,51.63211642008757,33.33934781835673,44.86357746916929,33.21951980370333,73.22243960798025
52.11113800262127,47.24126474731299,51.427698964085764,33.25928182264973,44.87727872498195,33.026835879728196,73.18479558763616
52.18288973228412,47.20080725226869,51.22990645199979,33.17852532233677,44.888230250947665,32.83613449975727,73.14771135177025
52.256540562901684,47.165440546671064,51.03934406380477,33.097335877004134,44.89658841978585,32.648339146229944,73.11123447497008
52.331927619317156,47.135421397285725,50.856624639491855,33.01595739516406,44.902534058585,32.46439110831417,73.07540018928208
52.40884912541411,47.11095666116686,50.682338891329266,32.93461430870025,44.90627011318906,32.285226108500595,73.04022204507238
52.48708021083117,47.09220793658955,50.517042792100966,32.853525123595404,44.908009192396165,32.11177059622402,73.00570916508943
52.56639312060318,47.0793101041824,50.36125068787472,32.77291948804689,44.907948054214124,31.94495818079378,72.97187308654378
52.64655549211302,47.07237476631861,50.21541495279413,32.69303858122778,44.9062516685606,31.78573913817495,72.93870378515757
52.72731700667035,47.071475227693035,50.07989859089084,32.6141215900274,44.90306882521447,31.63506535061233,72.90614618263837
52.80841118734619,47.076639321031614,49.95496484930545,32.5363970388081,44.89856698691765,31.493865435870713,72.87411284847978
52.88957022963764,47.08786586070911,49.84079141277131,32.460085950948915,44.89294821911117,31.363032463166036,72.84251724877119
52.970526663599074,47.10514345979924,49.737486208201126,32.38540431984264,44.88643391521701,31.243422288882094,72.81128174956972
53.050994779119705,47.128444687121764,49.64508210681227,32.31255332785738,44.87924798866635,31.135843665759914,72.7803120121851
53.130657696955396,47.157704552770866,49.563520937362284,32.241705029264075,44.871621571163466,31.041035600163315,72.74948017919937
53.20918341970944,47.19281207814474,49.492657853162676,32.173000583858084,44.86380229996104,30.95964977084388,72.71864779036805
53.28625479855116,47.23361816030007,49.43229396148226,32.106563391662775,44.85604346901343,30.892251663993164,72.68770055573421
53.361578372302915,47.27993592857698,49.38220495884029,32.04251076338785,44.84857828175551,30.83932808786699,72.65654965779265
53.43486699798081,47.33152432354145,49.34213692170008,31.980952545733906,44.84160259012048,30.801280729653108,72.62510596454509
53.50582699544614,47.388077567501,49.31178136339909,31.921986165631917,44.83527437715782,30.778407693086297,72.59327361558255
53.5741693951759,47.449239744439,49.29075838638435,31.865702518062147,44.82971449617332,30.77089514120032,72.5609752429103
53.639625908526014,47.51462816964436,49.27861630770769,31.8121980249801,44.82499370660442,30.778830703104752,72.52816748020827
53.701943552234155,47.583837297302416,49.27483278187667,31.76157498785773,44.82111422921418,30.802221634064182,72.49481886379365
53.76086519732427,47.65642414582268,49.27880612358115,31.713926548742467,44.81800875760531,30.840995084253287,72.4608807118812
53.81612512306525,47.73190291866393,49.28985013285349,31.66932371340272,44.815566127550085,30.894982625848403,72.42629288206591
53.867467205139015,47.80976407430114,49.30721472710284,31.627821498426503,44.81366235816932,30.963909775305158,72.39101451720687
53.9146593235809,47.88949843210682,49.330129116188324,31.589478283884894,44.812169143896185,31.047401944632153,72.35503332883388
53.95748221763049,47.970599799542015,49.35783462884826,31.554365146594396,44.810945562436515,31.144995958077153,72.3183395753253
53.99570743469524,48.05255220875995,49.38958496813389,31.52255694914778,44.80984724867227,31.2561408524008,72.28090377498704
54.02909278805418,48.13483206078846,49.424629644361765,31.494123444100218,44.80876373872563,31.380188811893156,72.24269172757099
54.05739708603691,48.21693352375553,49.46221460136602,31.4691350318219,44.80764926462211,31.516391877595446,72.20369401555786
54.080388409825794,48.298388629891356,49.50161584224413,31.447671567652357,44.806515908314125,31.663914931053633,72.16392588918734
54.09783263651166,48.37875884297021,49.54218285873605,31.429816157922513,44.805403813867166,31.82185629929029,72.12340147090066
54.10948230819133,48.45761404204745,49.58335416723141,31.415635320469665,44.804361334745934,31.989258477311463,72.0821273963957
54.11508699257873,48.53452950707067,49.624642824805875,31.40516273601216,44.80344162069611,32.165108659590196,72.04012922059704
54.114412892403145,48.609103211219185,49.665628910823244,31.39839870677634,44.802697245189016,32.34834850381834,71.9974702259476
54.10724528382891,48.680965545715495,49.705985785174576,31.3953180101703,44.802168863608884,32.53790149264184,71.95423319605908
