HandOpen,HandClose,Wrist Flexion,Wrist Extension,Supination,Pronation,Rest
3.1126120471764406e-06,0.0,2.706619171457774e-07,1.353309585728887e-07,1.8946334200204418e-06,1.353309585728887e-07,0.0
3.225257163139222e-05,1.353309585728887e-07,2.9222505406192265e-06,1.3257943117367246e-06,1.9237775157178587e-05,1.3257943117367246e-06,2.0299643785933307e-06
0.00016664603092498664,2.002449104601168e-06,1.55849842825643e-05,6.602028788118313e-06,9.756873404803823e-05,7.684676456701423e-06,2.448816726752909e-05
0.0005822804281332615,1.5802288559686825e-05,5.7009637668588576e-05,2.2822591482194033e-05,0.0003356420609664649,3.451159364467094e-05,0.00014843802909515579
0.0015719838616170742,8.467676322725138e-05,0.00016953336013595782,6.36214177286828e-05,0.0008954422349935502,0.00012704400252752312,0.0006101805857145185
0.0035401181153212856,0.0003395106923650841,0.0004550272333441946,0.00015844012963053385,0.0019999447653931642,0.00039085981070442917,0.001932429847360869
0.006983545618212447,0.0010841259129031008,0.0011491747337388327,0.00037622172240103823,0.003924087909827546,0.0010275091826268683,0.005064098510781861
0.01246946252565512,0.002889717961456697,0.0027217301463369737,0.0008680336749204362,0.006983138355196567,0.002365394728598598,0.011488188774023458
0.020615029844243047,0.00666827011478262,0.005963799864908983,0.0019193930671091417,0.011521110687785642,0.004878748590678703,0.023263679368365486
0.03207240860923145,0.013702967140497204,0.012027367526959341,0.003993020095250016,0.01790115087664796,0.009191764969264719,0.04299107315067193
0.047526794971848696,0.0256303118752477,0.02240951676995978,0.007748304687939548,0.026501987862480793,0.01606669237122222,0.07371879176344526
0.0677193723889306,0.04438443984653287,0.03889703834680685,0.014038459332277048,0.03772978501588681,0.02637777850450122,0.11882021196354611
0.09350144721636017,0.07212158996144605,0.06349310747621564,0.023892910907393938,0.05205379460193683,0.041077358375278546,0.1818661734939546
0.12590990394329812,0.11113995307320577,0.09834087501655078,0.038488937121723785,0.07006191205828145,0.06116115421075232,0.2665066667186988
0.16624029370554225,0.163803425113694,0.14565067005546609,0.059114817388729396,0.0925180356375353,0.08763711707590714,0.37636716228185696
0.21609195105147994,0.2324727141423587,0.20763453155468295,0.0871291108910983,0.12040000022782105,0.12149914754771139,0.514963077550934
0.27736915279452645,0.31944534054245843,0.2864513123356526,0.12392074957729103,0.15490566125809618,0.1637067277227128,0.6856419031064771
0.35223850508742977,0.4269088063493643,0.3841658200513923,0.17087190428531132,0.19742702353440716,0.21517717800161562,0.8915693958536135
0.44305680078963366,0.5569172772337772,0.5027303002533354,0.22932453595384902,0.24950199480521418,0.27680337623559614,1.1357687945457944
0.5522869876344292,0.7114030695279778,0.6440029128459411,0.300554324942946,0.31275717564675354,0.3494982721133967,1.421200958980552
0.682414644290241,0.8922228554713705,0.8098118970733528,0.385759220037852,0.3888521742415803,0.43424184597076554,1.7508559176366472
0.8358720493894978,1.1012220025134352,1.0020494251292487,0.48606786050317974,0.47943051821784227,0.5321013386390879,2.127820328791722
1.014973137217635,1.3402924208296716,1.2227524795165179,0.6025636704059966,0.5860788015308767,0.6442210271940455,2.5552917039673795
1.2218608243909348,1.6114026555043692,1.4741293096177552,0.7363130381115505,0.710295706979624,0.7718012602147112,3.0365308929915074
1.458473849607063,1.9165894265167875,1.7585229559610216,0.8883880201034032,0.8534764322444541,0.9160867070916542,3.574768849276735
1.726547847950653,2.257913336326816,2.0783343546610396,1.059877328711453,1.0169212378193881,1.078370609233663,4.173094399466673
2.027658945433648,2.637391945946786,2.4359323261434547,1.2518797625805682,1.2018714038555802,1.2600091767035886,4.834343674308347
2.3632975509565486,3.056925672183215,2.833566841108626,1.4654790210404043,1.4095636451438476,1.4624314036202681,5.561001257869079
2.734942716159153,3.5182278437349384,3.2732923506538123,1.7017067117478657,1.641285539955944,1.687128699212311,6.355120903506677
3.1441048065286346,4.0227670952089065,3.756903381663192,1.961503154279981,1.898412782323588,1.9356228025960176,7.218284017438093
3.5923167762774555,4.571732819281823,4.28588648990445,2.245682549355147,2.1824113923385964,2.2094290220045902,8.151613797367878
4.08108109922816,5.166031786323616,4.861398852901094,2.5549063508512018,2.4947994637250135,2.510028693165026,9.155822754067435
4.611808069814843,5.806302917600865,5.484274139663706,2.8896709718952396,2.8370848272155333,2.8388421651715032,10.231235961366073
5.185780664220656,6.492920583024692,6.155032006902795,3.250313641706632,3.210710228537355,3.197189966164148,11.377770215738565
5.8041417593772895,7.225976401527957,6.873868747961829,3.6370249890048045,3.6170255070392754,3.5862546642987065,12.594915620674113
6.4678701225584545,8.005263727067778,7.640637241508946,4.04984996848923,4.057273800695425,4.007071129592767,13.881763366579827
7.177734783183168,8.830289948507149,8.4548441912927,4.4886768268949035,4.532567016746118,4.460548359420631,15.23705678583016
7.934256301380259,9.700305747199089,9.315677594285177,4.953234126188949,5.043851837796386,4.947488452550349,16.659211602166437
8.7377001598132,10.614318307342412,10.222041950396157,5.443109180503361,5.591889845504659,5.468573872071632,18.14630226097948
9.588087925382515,11.571082270350724,11.172572954684297,5.957773908342331,6.177258328046113,6.0243359048119025,19.69606468459519
10.485193574654986,12.569099790858571,12.165640513732548,6.496595557846418,6.800349694956037,6.615134449114126,21.305936625463413
11.42852288555654,13.606651475041312,13.199367821803557,7.0588339366941,7.461352060590107,7.241155814359181,22.973093178152904
12.417306870387238,14.681835467931228,14.271664333520333,7.643643376763199,8.16022285150458,7.902410527755081,24.69444315324384
13.450523870436847,15.792582018733333,15.380244741956277,8.250082046527206,8.896679758297612,8.598720662540785,26.466618195090504
14.526923546458379,16.936651405932167,16.522626738830354,8.877114906352972,9.67021356197322,9.32970729042156,28.28600368836827
15.645026137976059,18.11164808580348,17.696132780815443,9.523607225300756,10.480101229995993,10.094786731048728,30.148801163753205
16.80311226419994,19.31505511440317,18.897913944637413,10.188325681176474,11.325401643427087,10.89316953800265,32.051064999036456
17.999234193498758,20.54425886373665,20.124979624123583,10.869962829957704,12.20494357541418,11.723854936764662,33.988693833315736
19.231245955010973,21.796548791424673,21.374210073178904,11.567173966785129,13.117327604597163,12.585622312827665,35.95742421459128
20.496821635698446,23.069116149517992,22.642357424533547,12.278597534558088,14.060946962943298,13.477031007044227,37.95287010582267
21.793450990226813,24.35907818732566,23.926059887957337,13.002851790207064,15.034009523835588,14.396438817776154,39.970582757919196
23.1184380217177,25.6635158768557,25.2218769942951,13.738531853813498,16.034545021768746,15.342029482469227,42.00607561579981
24.468926811399367,26.979491290778295,26.526324146601823,14.484223576876097,17.060405903285123,16.311828025133046,44.0548131587415
25.841940061397615,28.30403981315763,27.835884523394924,15.238518767758201,18.10928326766443,17.303705763904066,46.112215011845265
27.234398194954018,29.634169987486803,29.147006668964806,16.00001248568792,19.178741185679687,18.315401398663443,48.17369637265298
28.64311990927532,30.966893710784426,30.456118656866785,16.76728810494966,20.266246273386415,19.344566708361214,50.23470370924945
30.064837192368415,32.29926452878754,31.759675867516492,17.538911281638427,21.36917493020061,20.38880746371372,52.29071309916577
31.496236175638963,33.62838972252645,33.05421786640948,18.313443553498544,22.48481176268525,21.445693855521718,54.337222915726606
32.93399266939399,34.9514220785376,34.33639520438235,19.08946190009352,23.610365281583174,22.512754115944922,56.36978322245738
34.37477566753843,36.265564948100774,35.602964592044664,19.865563909962862,24.743003429024327,23.587480266615508,58.38404310037178
35.815236308055866,37.56809638814379,36.8507853241238,20.640361283874476,25.879882613637513,24.667352870178355,60.37576637634914
37.25201767866429,38.856382497811246,38.07683482734824,21.41248049540465,27.018151434365432,25.749865667252973,62.34081554127009
38.68178851687885,40.12786454007366,39.278225746914735,22.180573792200615,28.154943290422498,26.83253055025492,64.27515191583915
40.1012680433007,41.380045654843705,40.45220367612842,22.943324666038926,29.28738496752037,27.912868657280193,66.17486960055338
41.50722290759214,42.61050582149166,41.59613386514288,23.699438723687305,30.412627175194643,28.988412732680036,68.03622232783385
42.896459535021464,43.816932197510994,42.707501786159305,24.447630021352516,31.527874954898355,30.056730512423446,69.85561306471666
44.265841524819024,44.99712857125335,43.78393325453064,25.186618209323658,32.63039733859742,31.115448135008144,71.62957942072443
45.61232374827593,46.14899852252944,44.823212120979655,25.915138397031114,33.71752334446012,32.162252761702305,73.35482303394681
46.93296946415789,47.2705357239651,45.82327829149898,26.631949763613083,34.786646989651,33.19488174726697,75.02827093051637
48.22494138790443,48.359843671007056,46.78222104847564,27.335832065152285,35.83524842449447,34.21111841084781,76.64710792744307
49.48549539118814,49.415162816283825,47.69829445927905,28.025578325985272,36.86091244310168,35.20879941975419,78.20875668870592
50.71200154232027,50.4348731639247,48.569950863650604,28.700000839447906,37.861326527899514,36.18582114679383,79.71085213516841
51.90197734870739,51.4174794450418,49.39585821129165,29.357951483094034,38.83426711044077,37.14013605171031,81.1512573706472
53.05310028582459,52.36161207948457,50.17488576437788,29.998336585763493,39.77759787056617,38.06974834340798,82.52810090735801
54.16319760545288,53.26604948001061,50.906080890908044,30.62011314309384,40.689289008831686,38.972722854167166,83.83978049888461
55.23024535990438,54.12973022311609,51.588662169191316,31.22227773701516,41.56743934192356,39.8472036272429,85.08492946627123
56.252394140647105,54.95173822794056,52.22202526974221,31.803866365454137,42.410281052824885,40.69142454845192,86.2623988954523
57.227996179738966,55.73128815120749,52.80574129862655,32.363966035950746,43.2161746264349,41.50370571820055,87.37128409888344
58.15560426847184,56.467739837969376,53.339546583722985,32.901722487693384,43.98361815853722,42.28244976222589,88.41095473840663
59.03395461637889,57.160625295410256,53.823345561917435,33.41633472663422,44.711275612742156,43.026152511498275,89.38104250987082
59.8619652284711,57.80964993986342,54.25723079388805,33.907046338422965,45.39799936325698,43.733421957936606,90.28140530138761
60.63874983883112,58.4146653769214,54.64149354861033,34.3731489495897,46.042826699834905,44.40298653504102,91.1121188998245
61.36361870666568,58.97565072364908,54.97660695544775,34.81399770290222,46.644961922548404,45.03368731898733,91.87349790505006
62.03605675875476,59.49272590085834,55.26319772095021,35.22902256635076,47.203769487316485,45.624474531390156,92.56609616387559
62.65570530339101,59.96617224087242,55.50203322853832,35.61772503934129,47.718783486283115,46.174437346871905,93.19066562059413
63.22237055884041,60.39642470225905,55.694026416006025,35.97967149348211,48.18971404868962,46.682863233280564,93.74811697131095
63.7360436267032,60.784042256354546,55.840235149250205,36.31450402188524,48.616435132270865,47.149280236326184,94.23952740808696
64.19689964313689,61.12969105081319,55.94184395462087,36.62196966334275,48.99896411253821,47.57345080532885,94.66617428988228
64.60527477898007,61.43414806976148,56.000149259658485,36.901941948376155,49.337455901848806,47.95533666382579,95.02953513667413
64.96165209175524,61.698297646340876,56.01656967752073,37.15441605377378,49.63221567434141,48.29506878823202,95.33124353365201
65.26667190274102,61.92310530040018,55.99266433191741,37.37949038175679,49.88370826338589,48.59293506600172,95.57305364662719
65.52114234972686,62.10959239482266,55.930126228018324,37.57735746337132,50.09254569998272,48.84938042061124,95.75684756752689
65.72602359244782,62.25883836957535,55.83075112965541,37.74830876953474,50.25946334545409,49.06502100643978,95.8846513151268
65.88239875495967,62.37199845575738,55.69641689468027,37.892739314596405,50.385310833325555,49.24067539713877,95.95861464102448
65.99146474243115,62.450302469053305,55.52909715099857,38.01113998708773,50.47106500812804,49.37738624539089,95.98097068267593
66.05454552699678,62.495028875940044,55.33088769320426,38.10408355206648,50.517841210278306,49.47640211347628,95.9540245503723
66.07309521682008,62.507486678648476,55.10400630845623,38.1722172864287,50.526880235327624,49.53913093880294,95.88017276327011
66.04867334393118,62.489028033326576,54.8507666538312,38.21626012184251,50.499521201024486,49.56709845938437,95.76190389626369
65.98291645660454,62.441068719521084,54.57355912439494,38.23699124633911,50.43719033519926,49.56192453244366,95.60175772522197
65.87753320709542,62.365082598694826,54.274844908761445,38.235229831020725,50.34141460104224,49.52530445464276,95.40228454168209
65.73431289413337,62.262577414047485,53.95713692487779,38.21182148933561,50.21383313148319,49.458981036464166,95.16604923561827
65.55511803236698,62.135084683057606,53.62295901045302,38.167639900356086,50.05618064931257,49.36471196962783,94.89565982729334
65.34185807026034,61.98416742518212,53.27480951726207,38.103591386285004,49.87025344848911,49.244249302875886,94.59376400758366
65.09647340128745,61.81141664099192,52.91515141871451,38.02060741310295,49.65788721570054,49.09933615900183,94.26300569873221
64.82094610585331,61.61842289541975,52.546415104785474,37.919627861112566,49.420955639273245,48.931703730607495,93.90599353979444
64.5173131203824,61.406746319124316,52.17098516189679,37.80159137696985,49.161370202740606,48.74305660554127,93.52531440104602
64.18765381948717,61.17791128671253,51.79116926925677,37.66744166829212,48.88106324849793,48.535067213723046,93.12355720820258
63.834064812371295,60.93341833793368,51.40917579041192,37.518137727896395,48.58196234292546,48.30940689298227,92.70330053130225
63.45865336207959,60.67474380818641,51.027114445308875,37.354650251906385,48.26597716189383,48.067798636569464,92.26707872970164
63.063548334396934,60.40332047948441,50.64700039366111,37.17794654297512,47.935004359371725,47.81204355616184,91.81737690652702
62.650898084701545,60.12052812843387,50.27073871410464,36.98898345092119,47.59093099653884,47.54400212073106,91.35665740444311
62.222844902052266,59.827714389001905,49.90009509921389,36.78871740039974,47.235618538685884,47.26555940059449,90.88736574284383
61.78150385481716,59.5262220952249,49.536677155232915,36.578116238502005,46.870877332183625,46.97860728993937,90.41189157691818
61.32897100224671,59.217388484154775,49.18194022256979,36.358154983717824,46.49845703873921,46.68504231019647,89.9325288118434
60.867343583939316,58.90252384141654,48.83720453787111,36.1298009087813,46.1200597347918,46.3867538891847,89.4514813668675
60.398716374902314,58.58290648721277,48.50366071922952,35.894007215562944,45.737352575762294,46.08559269448995,88.97089336861487
59.92515289065007,58.25980172612533,48.18236868500359,35.65171882299897,45.35195792156853,45.78333798081045,88.49284768336082
59.44866577206949,57.9344716850241,47.87427920223335,35.403873832938864,44.96542942637684,45.48169044011581,88.01932643615264
58.97122542208864,57.6081555636644,47.580278180564385,35.151392346614955,44.57923917751058,45.18229222917519,87.55218482606143
58.49477282427666,57.282043936168236,47.301212882202044,34.895169084942886,44.194782635753505,44.88674308879947,87.09316947688885
58.02120720374773,56.9572780326654,47.0378774515165,34.63608913239132,43.8133819304932,44.59658697203687,86.64394644380445
57.55235997527405,56.634967255888085,46.79098352255088,34.37505817814988,43.43627166993384,44.31328255438796,86.20609180551192
57.08998638495727,56.31619214814439,46.56114751433817,34.113017181586414,43.06457863071777,44.03818700035834,85.78105665589959
56.635774314742676,56.0019835048659,46.34889292108558,33.850929230847996,42.69931975935632,43.772558060858785,85.37015670073727
56.19134040111542,55.69330595686728,46.154645239543214,33.58975809197988,42.341424563049344,43.517553409997966,84.97459573526793
55.758203557896195,55.39106893583884,45.97871537240719,33.33045926846706,41.99175864202357,43.27421331325434,84.59547674994249
55.337763580455956,55.09614680982001,45.82129730554675,33.07397936638332,41.65112596519164,43.04343820457928,84.2337734234061
54.93131032880705,54.80937689921914,45.6824944978801,32.821246515462846,41.320259604862684,42.82597859161675,83.89029872197648
54.54004678880522,54.531540018692,45.562346432167196,32.57314931143997,40.99982329014706,42.62243708692808,83.56571649568092
54.165089103020186,54.263355283288604,45.460823743873355,32.33052152585237,40.690421935042,42.433270004513055,83.26058184544424
53.80744161783079,54.005496015157775,45.37780435719512,32.09414602893134,40.392601465061304,42.258785863064155,82.97535627394356
53.46798359507923,53.75859755611407,45.31307118889753,31.864766892924397,40.10683480448834,42.09915087042873,82.71038486660812
53.14748809837347,53.523239257400064,45.26634721631662,31.6430894154777,39.83351473946147,41.95440812996505,82.46588224784834
52.84664628954879,53.29992496935382,45.23733393736423,31.429769208737945,39.57296868738918,41.824504436307514,82.24196017528003
52.56606407648636,53.089093432996705,45.225716060511644,31.225408552783215,39.32548056600375,41.709307583972944,82.03866407235222
52.306240778469146,52.89114805373738,45.23114371433368,31.030563640201372,39.091294130697264,41.60860325264968,81.85597050530717
52.06756295157486,52.70646636951422,45.25322577151829,30.845746656226595,38.87059804011062,41.52208010997187,81.69375546920116
51.850317148273824,52.53537802818144,45.29153985536574,30.671414287426334,38.66351838389633,41.44931989054279,81.55178446030108
51.65469267008874,52.37814320856493,45.34563660011993,30.5079550063034,38.470132374277654,41.389805104794064,81.42973713319822
51.48076238350839,52.23495878009659,45.415023348047136,30.355690388773002,38.290484482595886,41.342943688254536,81.32722220295203
51.32847072296552,52.10597647940263,45.49914075780667,30.2148876390122,38.124583595720004,41.308093593307134,81.24375456005636
51.197656458885305,51.9913005512893,45.59735633379147,30.085765373350668,37.972390989481404,41.284580602111085,81.17873036140105
51.088090401030215,51.8909668176249,45.7089754966013,29.968483819255532,37.83382245258438,41.27171819073171,81.13144396549626
50.9994863749396,51.80493680690629,45.83324642011705,29.863132267193855,37.708763720834476,41.26882211071891,81.10112976812799
50.93148253555166,51.7331189680663,45.96935166151816,29.769732708240497,37.59707716731691,41.275204310545426,81.08697591289231
50.883631107283286,51.675387291842014,46.11641470837924,29.688261008014397,37.49859178387843,41.29015378948267,81.08810107397812
50.855418426457454,51.63157261047923,46.273541139899876,29.61866607972617,37.4130955775491,41.31292829703637,81.10354371936837
50.84629034468126,51.60144533825934,46.43986676723032,29.560871942245807,37.34034771248132,41.342771604133944,81.13229732954257
50.855651962206665,51.58472070313142,46.61457066960174,29.514771751046712,37.280097643865794,41.378943927125455,81.17335725334095
50.88285229521924,51.58108108086346,46.79685229288106,29.480229220358524,37.232086615154415,41.420736828580736,81.22572860542579
50.92718704725087,51.590182687848646,46.985909688090146,29.457083643700976,37.19603393492957,41.46746596998912,81.28840536711154
50.987922133715706,51.61163670204143,47.18094292377184,29.44514411581926,37.17163601049797,41.51846730445488,81.36037242904231
51.064305887694466,51.644993058685486,47.381165961195045,29.44417453923147,37.15858964093368,41.57311617702283,81.44063962629896
51.15555411964214,51.68975237835677,47.585801280799075,29.45388916306371,37.15661465713674,41.63085189448707,81.52825972357542
51.260833790527485,51.7453906874124,47.79406312361314,29.47396714125729,37.16545096517487,41.69117933194196,81.62230413953831
51.37927272458799,51.81136345002684,48.00515005700589,29.50406669262394,37.184841096693624,41.75365415425952,81.7218365796947
51.509983021783775,51.88708889482652,48.21824587560349,29.54382016900089,37.21452290166312,41.81788493939408,81.82593136294429
51.65206644536813,51.971942956553406,48.4325132638242,29.592819355077406,37.254231604541154,41.88355780722792,81.9337185721849
51.80460003808687,52.06527792872846,48.6470794261651,29.65061247190567,37.303692417615444,41.950449389012235,82.04439814442345
51.96663299177403,52.16643784421823,48.86103620785298,29.716717883281763,37.36260126732171,42.01840803094712,82.15721058653696
52.13721068502332,52.27474793233536,49.07347295878189,29.790638238839176,37.4306146134604,42.08732625928367,82.27141503839032
52.31540059917338,52.38949439129682,49.283520948461344,29.8718591870081,37.507363569925424,42.157130521551935,82.38631163192652
52.50029142875996,52.509926332251034,49.490369314065404,29.95983718015556,37.59247653912008,42.22778097948984,82.50127616140638
52.690977247736846,52.635281804239305,49.6932473147289,30.05399624426634,37.68558268243039,42.299259847617954,82.61575593531802
52.886559840849415,52.76480516076263,49.891403901317254,30.15374638842895,37.7862960450313,42.37154597052527,82.7292360026847
53.086171119744364,52.89773622829929,50.08410645738721,30.258510849474234,37.89420681044182,42.44459271037839,82.84123105908826
53.28898256159016,53.03329293761881,50.27064737346836,30.367737187440106,38.00889318573155,42.51832277011528,82.95131657707452
53.494186148147705,53.17067646484588,50.45033782090928,30.48088931177156,38.12993572195105,42.59263453106301,83.0591480245794
53.70097487070541,53.309094564155316,50.62249269768905,30.597441416091208,38.25691415546,42.66740281627262,83.16443394406933
53.908551551393046,53.44777268816187,50.786430058645664,30.716883738702094,38.38939641878103,42.74247038670619,83.2668994336368
54.116151431154265,53.58594264081354,50.941490528751295,30.838725690335867,38.52694151767089,42.81764479376694,83.36629022584725
54.3230441821381,53.72283762514659,51.087052652904866,30.962484730447507,38.66911356036757,42.89270674492661,83.46240602090393
54.52851367527025,53.85771455596036,51.22252610463808,31.087671946659047,38.81548380101377,42.967416249189654,83.55510818298056
54.73184853495741,53.98987832998216,51.34733723634372,31.213793908612665,38.96561515923288,43.04150713009342,83.64428628856159
54.932361724002035,54.11867651237639,51.46093315311449,31.340372395152226,39.11905385823375,43.114682473385365,83.72983052126011
55.12941411471633,54.24347361757582,51.562805845824016,31.466959811516155,39.27534695266797,43.18662558429223,83.81164818482108
55.32241136067065,54.363639126279274,51.65250909537186,31.59313360850376,39.434067283140244,43.25701707861481,83.88969587540058
55.51078470229626,54.47856549473626,51.7296486978273,31.718481644182518,39.594816147974136,43.32553692942488,83.96397616156145
55.693989189882146,54.58769407658655,51.793860540170364,31.842600456380254,39.757205833444985,43.39184812746302,84.0345049088508
55.871522107339516,54.690516691957455,51.84480703144289,31.965108035130687,39.92085065908833,43.45558272259094,84.10130191990866
56.04292991754431,54.78655645595792,51.88220170000206,32.08565140837736,40.08537868014112,43.51635866942539,84.16441768346131
56.20779012260225,54.87536165997514,51.905836401245594,32.203896038775405,40.250442034827294,43.57382830523197,84.22394725171894
56.36569665634017,54.95652543433807,51.91558465311798,32.31950746881332,40.415705415794015,43.627717501328306,84.28000056192369
56.5162752248169,55.02970346555106,51.91139401883898,32.43214444808937,40.58082420862834,43.67782394767056,84.332666832673
56.65921034247616,55.094603773175805,51.89329763498325,32.54146848159581,40.7454364092774,43.72399287981257,84.38202134684944
56.79424713734845,55.15096263094326,51.86144039035842,32.64715484516672,40.90917368118179,43.76610510996835,84.42816116489809
56.9211657189406,55.198540866978306,51.81608520330777,32.748889849468775,41.07167310277864,43.8040835386884,84.47121369895294
57.039762425287506,55.23714794771944,51.75758846794553,32.846359373587084,41.23257384878683,43.837895370828726,84.51130197319065
57.14986029803387,55.266663221494696,51.68637368440713,32.939245928486955,41.39151193812798,43.86753477221134,84.54851482475226
57.2513291278779,55.28703003438874,51.60292849673289,33.02723871035585,41.54813287318809,43.89299824462901,84.58292366584946
57.344083945755855,55.29824115323859,51.50781200477478,33.1100416313168,41.70211067148363,43.914268987028244,84.614618684305
57.42806631996514,55.300346543679055,51.40164506027267,33.18736669885281,41.8531464462002,43.93131051604168,84.64371015418436
57.50323941480208,55.293477430384975,51.28508622545846,33.258920711128006,42.00094665610893,43.944064060530714,84.67029635614458
57.56960314936643,55.277851585460375,51.1588236072157,33.32440367967408,42.14520885303304,43.95244857310008,84.69445018066834
57.62720041301338,55.25374889420034,51.02359286513884,33.38352377812603,42.28563264299516,43.95636602202909,84.71624222275729
57.67609837024548,55.22148780115017,50.88019194797719,33.4360122518623,42.42193885712019,43.9557143067689,84.73575601986882
57.71636924289698,55.18143181166082,50.7294657288301,33.48162286022604,42.553870300595975,43.95040021866473,84.75306383641401
57.74809631965408,55.13401181427194,50.57227331011133,33.520123165289,42.681177581962594,43.940339210171345,84.76819736564778
57.771391365804156,55.07972766326999,50.40947163963861,33.551297190122995,42.80361536101034,43.92544277848362,84.78115992672194
57.78639297668088,55.01912554285152,50.2419284009422,33.574965017482256,42.920955973124904,43.90561262981065,84.79196624374678
57.7932478937062,54.95278283973912,50.070539429056495,33.591002161790456,43.033000199125254,43.88076039567771,84.80065473822724
57.79210513792021,54.88131343531699,49.89622169250468,33.59934089708662,43.13956938773637,43.85084364371473,84.80725779138979
57.783130450324144,54.80536798222821,49.71988992174837,33.599958677726725,43.240490343714335,43.815883901519214,84.81177709699656
57.766513338239854,54.72560971736349,49.54244491106605,33.59287162142534,43.335593674920304,43.77595458653628,84.81420222025186
57.742448444541665,54.6426841089429,49.36477681239069,33.578137075488634,43.42472464853581,43.73116741212968,84.81454446861049
57.711111316458364,54.557210270860665,49.18776122301898,33.55585200274826,43.50774618962664,43.681679134972335,84.8128357952655
57.67265902469533,54.469790569453586,49.0122407800816,33.526140770818635,43.584525120095826,43.62770037947219,84.80909903173482
57.627253640127854,54.38100904653708,48.839018943887204,33.489145853889084,43.65491607570464,43.56948278931393,84.80334115333937
57.575074833513945,54.291408561604825,48.66888834128856,33.4450345923474,43.71875967946532,43.50729232745846,84.79558172012379
57.516304132700654,54.20147130639922,48.502668906338855,33.39401349029844,43.77589146237221,43.44139433325236,84.78586848617134
57.451105956961435,54.1116220948033,48.34121278960552,33.336331305788796,43.82614411864974,43.3720616985052,84.77425001478197
57.37963588509856,54.022238855374006,48.18537670626213,33.272267338727815,43.86933874939638,43.299589427260884,84.76074158445732
57.30206680923619,53.933649494421324,48.03600254202542,33.20212012659974,43.9052824640246,43.22429231714037,84.74533255991877
57.21859833173672,53.84612815637797,47.89392626942652,33.126210857946624,43.93378464151508,43.14649104179061,84.72802397688469
57.129442541006256,53.75991817397115,47.75998851931744,33.04489572136691,43.95467663232702,43.06651241473029,84.70884096284026
57.03481741250989,53.67527315571217,47.63501757158447,32.95856821969473,43.967814818527195,42.984707967170145,84.68780136656596
56.93496751619591,53.59247637689889,47.519796343336886,32.867646567710835,43.97307435470784,42.901465844140276,84.66488617790388
56.83018751217861,53.511822850727455,47.41504358571997,32.772562231454465,43.970354085037705,42.81720060062667,84.64005339973237
56.72081738708781,53.43359181420018,47.32141178331259,32.67376121479724,43.959591152123124,42.73233877066573,84.61327172636314
56.60721966283093,53.358042344066135,47.239478321639176,32.57170784209363,43.9407645404177,42.64732462912342,84.58452388709706
56.489771095973666,53.28542942333373,47.16972284471506,32.466876531561326,43.91388082590146,42.56263957962734,84.55378178004901
56.36887254740606,53.21600838106461,47.11251359096871,32.35973524180192,43.878962421427666,42.478805586052765,84.52100249455634
56.24494963952117,53.15001472832229,47.06811912968634,32.25073716344385,43.83605984799392,42.39636476090489,84.48616001103508
56.1184310890929,53.08764851649581,47.03672797925583,32.140327948599655,43.78527808342562,42.315862285081174,84.44926685296839
55.989728142809305,53.029091116691305,47.01844838830267,32.028955734017124,43.72678584776056,42.23785140779581,84.41035273138829
55.85924181350431,52.97453530316565,47.01329092579223,31.917067136011873,43.660802469290225,42.16290009726094,84.36943241784039
55.727386440144855,52.924188947774006,47.02116939547698,31.805090365027368,43.58759153557976,42.091574243106855,84.32651171137958
55.59459362908681,52.8782512654531,47.04194209448011,31.693422753728175,43.50747651569547,42.02440606394551,84.28162506958931
55.46128965721184,52.83689889225247,47.07546310741508,31.58243485054693,43.42085432850271,41.961876062146786,84.23485113215912
55.32788003713355,52.80030001070558,47.12159768915679,31.47248269141496,43.32818199346076,41.90442060258967,84.18628483606584
55.194765112653684,52.76862931482544,47.18020358230156,31.363910823649558,43.22994513041599,41.852446078937064,84.13601086346497
55.06236416905495,52.74205603273187,47.25111911912927,31.257045560223016,43.126636665409414,41.8063241205711,84.08412116144137
54.93111326372527,52.72072086727594,47.33417617500217,31.152195681517657,43.01876154698103,41.76637102763458,84.03075144935156
54.80144188387813,52.704735053328704,47.42921111027375,31.04966800219618,42.906852283920436,41.73283884115596,83.97608297279784
54.67376291644915,52.6941996677519,47.5360485572778,30.94978205104813,42.791468214807544,41.70593019910106,83.92031026100695
54.54848529932897,52.68921147987287,47.65447837561451,30.852868437789354,42.673179299011565,41.685815050593156,83.86362555261104
54.42602084610491,52.68984241657913,47.78426484016375,30.75925972782696,42.55256108419102,41.67262763057158,83.80623672253557
54.30676654588624,52.69612211379643,47.92518537631693,30.669290100257726,42.43020927549191,41.66645647768398,83.7483759252259
54.19108435545256,52.708052304836755,48.07705249500055,30.583299181848243,42.306749282021414,41.66734875630072,83.69026920726242
54.07930829257097,52.725636396791906,48.23969735638203,30.501624443250194,42.182820996663466,41.67532106785827,83.63209972053636
53.971770984585326,52.74888544032402,48.4129463870768,30.424581541763256,42.05905198890415,41.690355224643966,83.57401121516601
53.86881352063262,52.777796730174444,48.59661715141888,30.352447100637455,41.936042555648434,41.71237942775461,83.51614342720458
53.77076712767846,52.8123398382014,48.7905164841735,30.28545572519688,41.81436342893181,41.741257286137284,83.45864561816583
53.677937621820334,52.85247023890821,48.99441804904336,30.223806692499934,41.694548296781306,41.77679785076472,83.40164807032401
53.59061894129741,52.89814640484577,49.20802950894394,30.16766490641507,41.577075206599645,41.818772123219716,83.3452364813348
53.509116085369996,52.94932140360897,49.430980177680176,30.11715028087078,41.46235361861135,41.86691619052058,83.28947213457464
53.433741989938696,53.005922234824425,49.662838560815345,30.072326033527673,41.35073151819685,41.92092275947648,83.23443378780125
53.36479221719277,53.067850150346175,49.9031307705647,30.03320070378899,41.2425106983634,41.98043507461193,83.18022656342934
53.302532180301036,53.13500055515472,50.15133136808806,29.99974585524612,41.13794735610695,42.045050130575504,83.12695505544333
53.247206212072804,53.207268623512455,50.40683763152263,29.971912354401017,41.037238701401215,42.114326228052796,83.0747107556101
53.199040211400295,53.2845289479536,50.668961323066554,29.94963086818377,40.94051956157975,42.18778587624896,83.0235942725171
53.15822127748553,53.36661929371557,50.936949891690276,29.932805044899165,40.84787836135831,42.26492058746058,82.97373060698895
53.12487845236086,53.453354025540705,51.210009487605966,29.921312276305134,40.75937161655479,42.3452157232914,82.92524488859748
53.09909224213142,53.54454827125053,51.487300966542236,29.91501025628201,40.67501965990806,42.42818803132062,82.87822955902286
53.08092004982135,53.64001820303268,51.76791658260486,29.913736536032943,40.59479650430535,42.51340360879966,82.83274918498121
53.07040126225528,53.73955966411952,52.050865278809184,29.917299150227905,40.518635455414454,42.600468028104196,82.78887429208703
53.06753523427397,53.84294134427575,52.335083529939475,29.925472885773097,40.446448872410315,42.68901379064569,82.74669224224041
53.072264526069404,53.949928663625535,52.61946263628831,29.938010957035356,40.37813951618081,42.77870029316235,82.70627601598261
53.08448660890776,54.0603076616413,52.90286847604915,29.954659463751277,40.31359252407647,42.86921289098426,82.66765400346414
53.1040736153833,54.17387704386639,53.18415374339078,29.975156821500914,40.2526660885351,42.96024633889831,82.63082275994132
53.13086868622408,54.290423449160535,53.46218595979949,29.9992219046371,40.19520198615211,43.05147917026817,82.59578108962616
53.16466494390958,54.40971570265848,53.735886260785996,30.02655298337962,40.141047264032004,43.14256012495835,82.56253368078922
53.205199014808336,54.53152037659503,54.00424500181858,30.056849190128617,40.09006027557479,43.23312053780123,82.5310608892386
53.25216608263243,54.65560753568291,54.266307175949564,30.089837404065666,40.042095165909394,43.322800143697314,82.50130274992154
53.305228745201646,54.78173172771519,54.521159703084386,30.125279906568778,39.99698530212088,43.411257657145754,82.47318281291854
53.36400324302605,54.90961276888734,54.767945647812795,30.162964957724952,39.95454214007785,43.49815614534005,82.4466365916714
53.42804486002796,55.038942472759615,55.00588984921212,30.20270374996933,39.91456267851014,43.58314150759599,82.42160359517383
53.496858439401414,55.16940448616726,55.23430262779666,30.24434166832294,39.87682756843753,43.66583754472197,82.39800101919785
53.569923999063995,55.30067484541677,55.45255722399667,30.287764882598143,39.84108732744337,43.74586200626535,82.37572898857485
53.646705561008936,55.432401670259715,55.6600709422458,30.332887134811035,39.807056327934106,43.822844333502104,82.35470864447956
53.726636688950315,55.56419761626429,55.856311163602,30.37962869678512,39.77442925874505,43.89642728347412,82.33489976711226
53.80911210480957,55.69566296064537,56.040808797460656,30.427910832449562,39.74290496955252,43.96626024661592,82.31627332396631
53.89350695067674,55.82641164498797,56.21315261816404,30.477670456155295,39.71219345013864,44.03199891076015,82.29878345083027
53.97920409814505,55.95606935298182,56.37297213029709,30.528873801632056,39.68201027447273,44.09330592623205,82.2823855101898
54.065598991877486,56.084256522354465,56.51993680785916,30.581510192058868,39.65208433512669,44.14984101895967,82.26707788701879
54.15208662714218,56.21058876214748,56.653772342736154,30.635573583712734,39.622182639432594,44.20124458979987,82.25290943247613
54.23805938383267,56.33469514284466,56.77426499599377,30.691052595693872,39.592124456642075,44.247128382711864,82.23994717889936
54.322922585209426,56.45622421723489,56.881241770288455,30.747935499229904,39.56176887548205,44.28707918170954,82.22825712741715
54.4061039507283,56.57482543616959,56.974549726110105,30.806216090439136,39.53099627992551,44.32066662787216,82.21792270796075
54.4870420631132,56.69013195261396,57.0540555407382,30.865886772590223,39.49970777991233,44.34744523347079,82.20905978724966
54.56517431014794,56.80177089123053,57.11965265690247,30.926924304919577,39.46783549536281,44.36695775732698,82.20179403558424
54.63995089930897,56.90938788515681,57.17125431742451,30.98928472966202,39.43534009607794,44.37875374412933,82.19623273693142
54.71086462821418,57.01265235875282,57.20877831585073,31.052913888917203,39.40219470941719,44.382422015004714,82.19247603142132
54.77746060567744,57.11123982286531,57.23214340917151,31.11776033486558,39.36838234326369,44.377620265867634,82.19065052359288
54.8393172218702,57.20482335281155,57.24127546191964,31.183774800036748,39.333920343080116,44.36408303864291,82.19091231654392
54.896028889422396,57.29309344097027,57.23610396968629,31.2509012804651,39.29888572036534,44.341606826258776,82.19341322747265
54.94721490629883,57.37578169506307,57.216543769945325,31.319077550221685,39.26341319070567,44.31003662983236,82.19827911501399
54.992538775337486,57.45265784857953,57.18247856364632,31.38824648387223,39.22767753949521,44.2692754221446,82.20562935934512
55.03170806875086,57.52351097554701,57.133766565765676,31.458360425613648,39.19189175033428,44.219303957728094,82.21560317929949
55.06445703553819,57.588148193110506,57.0702680828277,31.529370728894225,39.15632433733498,44.16018625812418,82.22834852662525
55.09054384949778,57.6464130641732,56.9918684405898,31.60121743197385,39.12130611027191,44.09206592684242,82.24398766364133
55.10977540614115,57.69819169926209,56.898476392489634,31.673832779282296,39.08720970407342,44.015173771064326,82.2626095604123
55.12203110286736,57.74339229836163,56.79001187850132,31.747150168710967,39.05442383671959,43.92983980906628,82.28429584794728
55.127257274710345,57.78192692361531,56.66640805585098,31.821102343501007,39.023348461115795,43.83648646055211,82.3091317314163
55.12544705736858,57.81372587755048,56.527628999812,31.895608543265965,38.994404044610036,43.73560801405765,82.33717654456221
55.11663845060455,57.83876975338094,56.37368198660072,31.97056629485766,38.96802834625747,43.62777219316384,82.36843427368423
55.1009297929383,57.8570977879115,56.20461210536608,32.045859617102096,38.944655837195846,43.51365830017804,82.40286768565072
55.07848162455725,57.86878462007208,56.02049442657542,32.121374671066455,38.924706048523845,43.39409296765132,82.44043551006145
55.04949394040099,57.873921967044225,55.821445406156116,32.19700347618898,38.90859781522651,43.2700421066252,82.48109850245116
55.01418740966671,57.872630475723085,55.60764730428297,32.272632676581466,38.896767590361264,43.14257017479956,82.524788634188
54.972814534135544,57.86507862710725,55.379356728454034,32.34813453302163,38.88966309808515,43.012802321976885,82.57139006169108
54.925682270808956,57.851475871089434,55.1368896998894,32.42337358472941,38.887719783960975,42.8819006853402,82.62075582158796
54.87314996714122,57.83204859732515,54.880609824502834,32.49821963100858,38.89135044051192,42.751041606143374,82.67272364128942
54.81560495373073,57.807032149633,54.61093904750849,32.57254790633758,38.900956058980874,42.62138311643125,82.7270984193501
54.75345143008086,57.77668296253605,54.32837425302722,32.64622690765238,38.916933359843796,42.49403194568842,82.78363006448303
54.68712335748549,57.741280341758305,54.033484824793824,32.7191154623543,38.93965929410442,42.37002995749767,82.84203037878177
54.61709053952909,57.70110321806065,53.72689746151953,32.79108012864881,38.9694658302943,42.25036185314496,82.9020136991375
54.54383732269115,57.656408681715966,53.40929433294858,32.862015336193345,39.006629360484965,42.13596034776704,82.96330801892164
54.467837576196935,57.607440119039694,53.08142694382115,32.93184561360276,39.05137416569463,42.027691610085164,83.0256285537503
54.389556584621886,57.55445056804725,52.7441199964493,33.00051597115563,39.10386798052867,41.92633463672789,83.0886632555567
54.30947066223259,57.497706383361965,52.39825540842176,33.067989824715085,39.16420271508169,41.832580062490734,83.15210099744027
54.228069443695944,57.4374685187842,52.04475954784422,33.13425552856972,39.23238189448312,41.7470499211652,83.21566728301049
54.145831917577134,57.373984438029574,51.68460975120996,33.199324630922824,39.30833244056114,41.67031158586107,83.27912089525903
54.06320717327962,57.30750915118382,51.31884201729258,33.26321607334248,39.39192535903069,41.60287009044991,83.34222547345823
53.98062615267256,57.23832945439569,50.948538031763604,33.32594313806261,39.48297888572864,41.54515706388129,83.40474716476491
53.89852630946679,57.166758901112374,50.57480074368878,33.38751695524081,39.58124421126984,41.49753420808146,83.46648429391585
53.817352494281565,57.093113541315745,50.19874208498585,33.44795520697358,39.68639573415188,41.46029861959829,83.5272795593501
53.737532846943566,57.01770351864749,49.82148428204863,33.50727758448472,39.79803759577013,41.43367238285901,83.58698996513412
53.659464097640914,56.94084573848985,49.44415525785486,33.56548970438974,39.9157149479738,41.417786620714686,83.64545568768554
53.58352404518594,56.86286695464672,49.06786841255688,33.62257320830965,40.03891515577184,41.4126853522793,83.70251237655081
53.510086229502754,56.7840817702588,48.693700274981836,33.67849153673136,40.167067209208355,41.41835229659444,83.75802704864348
53.43951067251175,56.7047731687245,48.32268264762145,33.73320002075734,40.29955912379215,41.43473283156822,83.81190356579869
53.37212689441312,56.625206882263235,47.95580455704569,33.78664389876915,40.43576787878041,41.461728631805286,83.86405084273838
53.308239641822425,56.545665404926226,47.59400566044525,33.838745989664126,40.57507404411008,41.499172725820415,83.91436303712472
53.24815021389285,56.466459359226114,47.238158479111185,33.88940174245481,40.71685203075072,41.54680398998465,83.9627423780935
53.19215939665341,56.38790754627198,46.88905932650626,33.93849179914203,40.86045798184137,41.60425163309299,84.00913106316987
53.14054517071373,56.31032168807503,46.54744196787615,33.98589957659482,41.005235899361836,41.67103014043452,84.0535056827423
53.09354772032343,56.23401922194386,46.21399770315743,34.031515035729555,41.15053330338182,41.746537303121436,84.09584532815681
53.05138478868526,56.159339243582274,45.88937584244711,34.07522683995631,41.2957039754111,41.830050079474255,84.13612468124722
53.01427461191494,56.08663051083536,45.5741698084745,34.11692305339884,41.440097157346024,41.92073110362436,84.17434250768729
52.98243226263246,56.016224011384224,45.26892318815925,34.15650719265899,41.58305636383031,42.01767071947284,84.21053640947625
52.95604516405396,55.94842483221991,44.97416862160808,34.193910535488584,41.723939224377276,42.119959251885824,84.2447541160287
52.935263060278075,55.88352643556868,44.69046474698816,34.22908407406382,41.86213884768989,42.226741130165436,84.27701986366118
52.92021461094,55.82181589064844,44.41839482765353,34.26198021163837,41.997085189141835,42.3372216633493,84.30734192761744
52.91102201081351,55.76355375878982,44.15853881038497,34.29254658853854,42.12823452895254,42.45065274923848,84.33574468466652
52.9077888287119,55.70895275779505,43.91145665701841,34.320738317576456,42.255070142968236,42.56632856154563,84.36227286302106
52.91057908193812,55.658183195025366,43.67769320784294,34.346530534648394,42.37711682698943,42.683586055347526,84.38695932901103
52.919418535656,55.61139449776914,43.457779125153536,34.36991296068764,42.49394803546103,42.80179245826939,84.4098032345295
52.934312391142335,55.56871905245648,43.25220924911904,34.39087271190519,42.60517235243273,42.9203216853252,84.43078899246251
52.95524694794717,55.530252481305574,43.061414153133406,34.40938516041258,42.71041212241493,43.0385390793472,84.44991415303868
52.982167755141475,55.49604242027531,42.885751606862485,34.425418177119404,42.809294347270246,43.155804491947706,84.46718220764555
53.014964459474996,55.46610870980006,42.72551855111616,34.43893545567287,42.901457322315885,43.27147988901494,84.48257244802184
53.05348743898746,55.44047236811585,42.58095744051995,34.449887261080995,42.986558095098545,43.3849244332047,84.49603512048645
53.09757847885434,55.41915736716378,42.452243432025284,34.458195299713516,43.064269228089735,43.495481365218474,84.50752020129823
53.147077851900896,55.40217044628556,42.33947382346724,34.4637475851275,43.13427718096645,43.60247458481411,84.51699424894527
53.20180484902521,55.389495865813956,42.242680429969525,34.46640809463444,43.19629964178677,43.70521921803784,84.52441756917004
53.26154679804448,55.38111505438446,42.16184846678753,34.46602739371961,43.25010973508987,43.803029510326084,84.52971608072536
53.32607446595754,55.37701928228476,42.09691431937037,34.46244102571225,43.295540997877346,43.89521549845017,84.53279298742737
53.395157623357626,55.377193799771774,42.047745222868926,34.455461628395064,43.33247597769559,43.981086189920084,84.53356801505046
53.468555294852926,55.381596575579984,42.01412857199332,34.44488045705318,43.36084341898935,44.05997088851516,84.5319911859343
53.54599799996212,55.39016308698211,41.99578560826268,34.43048146386648,43.38062828605986,44.13123898412129,84.52801753841361
53.62719264626993,55.40282865115209,41.99239223838664,34.41205320927833,43.391874295180266,44.19429741463969,84.52158995131268
53.71184395933024,55.41953245581738,42.00358775354619,34.38938769906124,43.39466994258257,44.24857251723013,84.51266287971914
53.799658851530616,55.440196428842945,42.02898290034372,34.362275620412966,43.38913291008129,44.29349856341582,84.50123305092013
53.89032529495826,55.46471375211603,42.068181929130404,34.33051443915956,43.37540544311686,44.32853173850688,84.48733152616016
53.983496924518775,55.49296822247774,42.120801721573216,34.29392996264258,43.35365224311133,44.35318585575851,84.47099151622317
54.078808766588104,55.52485733310825,42.18646476690559,34.252392645816045,43.3240483796287,44.36705832851622,84.45224138270585
54.175905394546064,55.56028669687104,42.264772278723875,34.20581343842181,43.28676562600814,44.36982397251063,84.43112887921846
54.27444556146123,55.599147132847826,42.35528260085424,34.15412730666926,43.24198090070282,44.361213163228335,84.40773049982033
54.37408240997454,55.641308895604915,42.457505880577145,34.09728646412191,43.189912871551954,44.34101290382212,84.38212275919882
54.47445295857125,55.68663773701269,42.570902028099994,34.03527246140541,43.13085863239983,44.30911291340557,84.35435432577655
54.5751945983179,55.735002381226366,42.69486725552752,33.968110831686296,43.06519922913041,44.265569245337666,84.32446093356343
54.675964399560264,55.786256452314376,42.82871474283214,33.89586910495485,42.99337861424058,44.210635946846736,84.29250344204014
54.77643369437535,55.84021749732437,42.97167005905698,33.81864259499959,42.91588489872003,44.144764835381466,84.25857575223935
54.87627083668327,55.89667018471315,43.12289074073803,33.73654667525081,42.83324471353213,44.068607719438326,84.22277346259423
54.97514374276551,55.955384614571955,43.281490989049,33.649721909100386,42.74601423369621,43.98301626817771,84.1851711107897
55.072741113443605,56.0161186390655,43.44654852488067,33.55833966656017,42.65475405473982,43.8890110195706,84.14584244810199
55.16877968145006,56.078599808431115,43.61710184457708,33.4625962238399,42.559998629926184,43.787727840003384,84.10489312941263
55.262985561536944,56.142518400656016,43.79216237485446,33.362701328475495,42.462241590283526,43.6803831848506,84.0624571606243
55.35508011700792,56.20754984034333,43.97074052985892,33.25887962188068,42.361942572735344,43.56828157967896,84.01866583065512
55.44479658275744,56.27338055809116,44.151859269485044,33.15139048871064,42.25953566118649,43.452837505568645,83.97363914146017
55.531906327132816,56.33970614594574,44.33454438374351,33.04054548321187,42.1554203266248,43.335565557479114,83.92751037548251
55.61621877492898,56.40621195046086,44.51781575906009,32.92670268728363,42.04994165719114,43.2180363234161,83.88043866805332
55.697560484460176,56.47256989106594,44.70070793779365,32.810246883076346,41.943381336372376,43.10183595025509,83.83258256805243
55.77576952303845,56.538457401901844,44.88231017440579,32.69157998259386,41.83597047143862,42.988548443128686,83.78407052349239
55.85071406292193,56.603568378251,45.0617882275429,32.571128220185535,41.72791099919321,42.87973930760053,83.73501191553704
55.922303176838604,56.66759885585963,45.23837970943965,32.44934769099609,41.619382615686334,42.77692226184376,83.6855321998244
55.990468568785666,56.730231967374465,45.41139509965981,32.32671228225766,41.510534267228714,42.68153031669624,83.63577874552412
56.05514171123002,56.79115021887852,45.580238200233,32.203692423155175,41.40148352603818,42.59492723365923,83.58588692919406
56.11625932215403,56.85006227429229,45.744417784303366,32.080745928327126,41.29233908699808,42.51845362740746,83.53595637213888
56.17378848426214,56.9067084628852,45.90352929018132,31.95832915447011,41.18323063121579,42.45345417663283,83.4860746258822
56.22773442147934,56.96083865345942,46.0572246444745,31.836912330981157,41.07432017652064,42.401254613615684,83.4363562837879
56.278120680715126,57.01219518536186,46.20519847959088,31.716978629011535,40.96579712486514,42.3631178610283,83.38694399845566
56.32497285037351,57.06052529364673,46.34719241468206,31.59901007630995,40.85787819120367,42.340218324799885,83.3379779524013
56.36833144302585,57.10560344488745,46.482994745028165,31.483479347010466,40.750812087829296,42.33363380282838,83.28958696125024
56.40827465793834,57.14723088775929,46.612425390773154,31.37085230071224,40.644872257864144,42.34433030841763,83.24191458342692
56.44491572910361,57.185216330493375,46.73532909724454,31.261587457420823,40.54034062441706,42.373131170327724,83.19513337493281
56.47837602341926,57.21936836722954,46.85159672316123,31.156123899568236,40.43750254957064,42.42068994055418,83.14941696253517
56.50876792343106,57.24950697827207,46.96119210440715,31.05486658037722,40.33665493824544,42.487494789112866,83.10490417750458
56.536205093777305,57.2754680548763,47.06414934355488,30.958179001476054,40.23810608217735,42.57390474989675,83.06170151083508
56.56081730917508,57.29708576817482,47.16054594159963,30.866378815068025,40.142156558506365,42.680179473981546,83.01991303480055
56.58274232485104,57.314174920409435,47.250493467735424,30.779727399703464,40.04907651172302,42.80647305038758,82.97964604322793
56.602106321257494,57.32653880717844,47.334166218705015,30.69841489030408,39.95909652043121,42.952807374561424,82.94097917384259
56.61902475659238,57.33399141895384,47.411833488891105,30.622551040057214,39.872408663589766,43.11905095907261,82.90394057992502
56.63362284261021,57.33636198049504,47.483854436054614,30.552170831508885,39.78916279493471,43.304904760404135,82.868532915177
56.646042550890144,57.33347619448709,47.550644301241675,30.487251151725037,39.70945711827687,43.509886188157516,82.83477416797102
56.656424268274534,57.32514359816061,47.61264729150184,30.427722722033955,39.63333976181438,43.73331524529094,82.80270154368154
56.66489177932563,57.31117290418752,47.670327386977746,30.373468652054548,39.560826928648865,43.97431791688311,82.77234279928714
56.67156569286194,57.2913963794158,47.724159556303825,30.324319603146563,39.491917630650576,44.231851934057204,82.74370701833656
56.676588196280484,57.265672046330124,47.77460763055665,30.28005986818893,39.426587926012125,44.50473809980085,82.71681119344373
56.68012477254786,57.23386921958696,47.822100212711526,30.240442982916946,39.36477437975674,44.79167886246831,82.69169750598188
56.682341777917955,57.19587061299978,47.86702479640298,30.20520161102131,39.30636747944661,45.091269573791166,82.66840924314806
56.68339259985492,57.151598074815965,47.9097387758083,30.17404435400312,39.25122146715251,45.402017549364714,82.64695883791167
56.68343124022833,57.1010297647572,47.950573759279564,30.146650106067852,39.19916728324155,45.72236459944861,82.62733394045017
56.6826315137651,57.04418792047303,47.989820282514025,30.122674762316414,39.15001390677365,46.05069641931414,82.6095288907319
56.681182573024515,56.981119853797814,48.02770766662014,30.10176981821021,39.103541993514426,46.385338102334146,82.59354937878992
56.67926923225678,56.91190134964912,48.06439752673932,30.083596007614865,39.059504104708,46.72455492295488,82.57937753461606
56.67706811934579,56.83665365204583,48.09998725390639,30.067821550346526,39.01763603405077,47.06657297366268,82.56694463390986
56.67476100976683,56.75554235223312,48.13450634856207,30.054115320500934,38.97767051812551,47.4096083055445,82.55615008835721
56.67253540041341,56.66875227475499,48.1679046279959,30.042151027881587,38.93934250703006,47.75188199869622,82.54689976354753
56.67056151911417,56.57646716218076,48.20005237969973,30.03162275349401,38.90238827258995,48.091623011093986,82.53911105582132
56.66897381148638,56.47887583576927,48.23076158869061,30.02225592435471,38.86654979846578,48.42708543471096,82.53268587060946
56.667882569654125,56.376188471049026,48.25980767647485,30.013803652596817,38.83158205129065,48.75658888611256,82.52750217263699
56.66739859946992,56.26863373690819,48.28692952802381,30.006038214578943,38.79724933921784,49.078553771118045,82.5234421217575
56.66763518842601,56.15643953290324,48.31181442761669,29.99875251033683,38.76331012473818,49.39150530106116,82.52041287677591
56.66868690608674,56.03982883586677,48.33409376336127,29.991769490435036,38.72950624169455,49.69405527649314,82.51832596378989
56.67061913226096,55.91904175396794,48.3533620233995,29.984943271097496,38.695570682582485,49.98488538493154,82.51706648307083
56.67348347418067,55.794354315289766,48.369201388578304,29.978146516197853,38.66124784830534,50.262739334380065,82.51650076447358
56.677332659297115,55.666067135856565,48.381186798608894,29.971259818402235,38.62630451718203,50.52641814099113,82.51651365976937
56.68220941896926,55.53447793262073,48.38887312903525,29.96417778680704,38.590524231408246,50.77478294866292,82.51702101278232
56.688125456384924,55.39987206552708,48.39179362713724,29.956823232146295,38.553703673385584,51.00677300668685,82.51793915257002
56.69506386428603,55.26254055203658,48.38949386673739,29.949150351826763,38.51566777818173,51.221425243024775,82.51915681934706
56.70300431947614,55.122797690304516,48.38158474332616,29.941138306896068,38.476292664769055,51.41787551558705,82.52055062528778
56.71193541920216,54.98097351070679,48.367772642426495,29.932797618767964,38.4355126922531,51.59534158521393,82.52202062056377
56.72183680395906,54.83739743258313,48.347860060406234,29.924197024880822,38.39330963637939,51.753101185299904,82.5234942323653
56.732658478442104,54.69240385393278,48.32174366246159,29.91548644417729,38.34970244296866,51.89048040856704,82.52489780203793
56.744328299312244,54.54635402878208,48.28941330088886,29.906893112304875,38.304743821422186,52.006863301880955,82.52614550924832
56.75677611298323,54.39963966696641,48.25093481903406,29.898699721053884,38.25851161553614,52.101714648292415,82.52716408422644
56.76993856279569,54.25265918831763,48.20641904103224,29.891227005273432,38.21109021914142,52.17459220734238,82.52790985969402
56.78373950439872,54.105798187648865,48.155997594039476,29.884826847752667,38.16255461570639,52.225141945925685,82.52834512850413
56.798079444960514,53.95943912915515,48.09981920004185,29.879874431237752,38.112967277019415,52.25310228301675,82.5284045902394
56.812853543580474,53.81398157472029,48.038057168188544,29.876751320401183,38.062380345168485,52.25833705736474,82.52799874157837
56.827973654769764,53.66983974783511,47.970906237235994,29.875827784247935,38.01082951049635,52.240872002568096,82.52704738219792
56.843365107446125,53.527420664654514,47.898568321130945,29.87745618127065,37.95832029513973,52.200897125873034,82.52549255675677
56.85894941079407,53.387116836624855,47.82125312857264,29.88197186980685,37.90482317400665,52.1387361761432,82.52327199572174
56.87464489392625,53.24932520228067,47.739202803609416,29.889687793634437,37.85028754021214,52.054812806439024,82.52029505238357
56.89038644055018,53.11446300466497,47.652711994257864,29.900879547522774,37.7946602652574,51.949634975254,82.51646161343055
56.90613241775073,52.98295459052828,47.56211763954473,29.915775016626423,37.73788846127006,51.823798338419365,82.5117015384151
56.92184463018445,52.85520389429363,47.467770940035486,29.93456218603609,37.679907140231734,51.67799441252943,82.50598165725076
56.93746800700349,52.73158673235027,47.370023824896215,29.957406796627886,37.620630353796436,51.51301302483156,82.49927760372755
56.95293779720628,52.612468615704515,47.26924182469319,29.984457429882905,37.55996038410746,51.3297426341843,82.49156103499632
56.96820151624674,52.49821585218924,47.165820229517536,30.015832944106613,37.49780759152842,51.129167691828066,82.48282251480803
56.983221258847294,52.38917794423719,47.06017768538624,30.05161159566373,37.43409937768404,50.91235240068935,82.47308679416366
56.99795316806098,52.285663392721645,46.95273416049854,30.091835439198157,37.36877494720146,50.68041733692156,82.46238706331263
57.01233774146784,52.187938735341774,46.84390130398269,30.13651808333537,37.30178913753787,50.43453087054845,82.45073027064973
57.026319070142506,52.0962425318196,46.734097428806294,30.1856397790276,37.233142240242515,50.17591515987093,82.43810304152876
57.039866224618066,52.010783294121154,46.62376740433547,30.239136625846214,37.16291798991759,49.90584217253827,82.42451145480727
57.052966070624315,51.93171584702888,46.513382733102524,30.296906605361837,37.09129630676802,49.625608546485516,82.40999884988254
57.06559937913039,51.859126007083496,46.40342919530471,30.358839293992773,37.0185395438139,49.33650750301559,82.39461813973547
57.077734601429846,51.793047160723674,46.29440686432829,30.424845017713395,36.944987438798265,49.039824666094546,82.37840254196128
57.08934268292703,51.7334901725594,46.18684031267051,30.494858640393236,36.87107621033639,48.73685870058186,82.36137806471359
57.10040143766644,51.680451439192204,46.081273212938335,30.568825804681882,36.797350897639696,48.428934559957725,82.3435949587396
57.11087494406841,51.633899050504446,45.978241324154,30.646694848947174,36.72444339681947,48.117386290623095,82.32512776325734
57.120695549802065,51.59376951439704,45.87825226701419,30.728418234576797,36.653031574069594,47.803524307691866,82.30604522825482
57.12977665531982,51.55998767361392,45.78180152599687,30.813948303919492,36.583812691780764,47.48861993037814,82.28639842896634
57.138040797817446,51.53248273181365,45.68941216182931,30.90321942072563,36.517501661572595,47.17392673475414,82.2662441226268
57.145425466197295,51.51117631222523,45.601653982894426,30.99612719174212,36.45483342860547,46.86071988757967,82.24566178566491
57.15186304780459,51.495957391634306,45.51912942168604,31.092520479365053,36.39655008496526,46.55031051735864,82.2247337599752
57.15727008373353,51.486674623066015,45.44245895597729,31.192208112569386,36.34338328954387,46.24402311505953,82.20352217510387
57.1615653132146,51.48314912324209,45.37228315064371,31.29496534067203,36.296048714593255,45.94316339964313,82.18208617208441
57.16469058470939,51.48518129609385,45.30925719143911,31.400528231683822,36.25524375637202,45.649001273554326,82.16051965687963
57.166605691255796,51.492537536438874,45.25402106987998,31.508585967229145,36.22163088297075,45.36276962634826,82.13895568228644
57.16727039529578,51.50493771769069,45.20716774453933,31.61879124824198,36.19580983855708,45.085661456140045,82.11753386142733
57.1666454252148,51.52206783077941,45.16923974965312,31.730788863374098,36.178299700785345,44.81881306896034,82.09638109254803
57.16471177803904,51.54360755160749,45.140748967217675,31.844236794884342,36.16954289715047,44.56329016615233,82.07562799820984
57.161476169364136,51.56924014090875,45.1221838191531,31.95880298811474,36.169917652621386,44.3200980805895,82.05542185426775
57.156949219074626,51.5986366575865,45.11398833192967,32.07415166185613,36.17973765147388,44.09020098921434,82.03590242642828
57.151123975925074,51.63144496574568,45.11653867941376,32.18994124442212,36.199239699011436,43.87452170438126,82.01716773811025
57.14398314258032,51.66731022809166,45.13014317974455,32.30583564397462,36.22857920519006,43.67392994558716,81.99927599679567
57.13552188839621,51.705909097721296,45.15505390487973,32.42151158792524,36.26784059944074,43.48924308502803,81.98227879091533
57.12575182924023,51.746959122864034,45.19146364421756,32.536650577377394,36.31704478619875,43.32123030028972,81.96623386975426
57.114683054120675,51.79020108847585,45.23949467468442,32.65092534465606,36.37614071488359,43.170597243258236,81.95117585008329
57.10231644481184,51.83539002766543,45.29920723139534,32.763999824400024,36.44499598896965,43.03795998554702,81.93708833255651
57.088662814685215,51.882312139077854,45.370624498423894,32.87554518506151,36.523404813939536,42.92383388548535,81.92392239041625
57.073762462399856,51.93080004417628,45.453740613741786,32.98525230753007,36.611105025661345,42.82863653100176,81.91163947289188
57.05767625630059,51.98071970683873,45.548499805366085,33.09282773386348,36.707781716373226,42.752681213665596,81.9002212044529
57.04046079774962,52.03194729052827,45.65477161483459,33.19798770174723,36.813053563945125,42.69615706228927,81.88963843844718
57.02216122540327,52.08437029035268,45.77234497455881,33.30046967513976,36.92646324312054,42.65912204262031,81.87983080731726
57.00282586425899,52.13790871413917,45.90093245397818,33.40005468453823,37.047493905150446,42.64152619830172,81.87072880766839
56.98251258104577,52.192519860959024,46.04016319252395,33.49657612226604,37.17560468342803,42.643249645275674,81.86228476314987
56.961270786854286,52.248174836705566,46.18956425929431,33.5899079391074,37.310253382492604,42.66412857111571,81.85446687067315
56.939125014414934,52.304837724957494,46.34855604046535,33.67995217844642,37.45089437846495,42.70395612904712,81.84722971018567
56.9160890664791,52.36247370008966,46.516480811899505,33.7666426816031,37.596979088963565,42.762467878650185,81.84051116571429
56.89219593359111,52.421068564563896,46.692644178054536,33.84995417746347,37.747982101544864,42.839333210732605,81.83426139481635
56.867504964102125,52.48062678107478,46.876331678766064,33.92989674778305,37.90343273644903,42.93415513159977,81.82845532384938
56.84208137908138,52.54115034655408,47.0668000084038,34.006496256977236,38.06291821799623,43.046464363192975,81.82306397482843
56.81598240912394,52.60263016107507,47.26327940537046,34.07977868960138,38.22605924054148,43.1757156301788,81.81802533947054
56.7892707457196,52.665059128593306,47.465003576704845,34.149768653021404,38.39248589247414,43.32131065937402,81.81326065181142
56.76203243549721,52.72843906726238,47.67123721424793,34.216492431854874,38.56182919790212,43.48264060097928,81.8087167411645
56.73437043826048,52.79276199732273,47.88127235038672,34.27997103261167,38.733717854105535,43.65910809713388,81.80437744606681
56.7063850519012,52.857986705063894,48.09441342517692,34.34020505918023,38.907766022119404,43.850116509611915,81.80023437754704
56.678173476696614,52.924041282227115,48.309990642853066,34.39716716151905,39.08355718232456,44.05506354885845,81.79626549753958
56.64984947010902,52.990846716539735,48.52739914547924,34.45080909161578,39.26064095700172,44.273365832091976,81.79245133413886
56.62155140765881,53.058327199402385,48.7461211434125,34.501070700306556,39.43854455284909,44.504488468131534,81.78879657541233
56.59342419302024,53.1263934383921,48.96571485032249,34.54787629945131,39.61678054351438,44.74795164051389,81.78531692841123
56.565598954545656,53.194924292356006,49.18580623775036,34.59112242839181,39.79483911201829,45.00332136317746,81.78200855135795
56.53819716117029,53.263771500397205,49.4061084862267,34.630674024356736,39.972174161966954,45.270196648243385,81.77884863649726
56.51134985795414,53.33277589829807,49.62643896744212,34.6663759551591,40.14819976505479,45.54819638492046,81.77582940743179
56.48520031839702,53.401767291586125,49.846699420393314,34.69806621999837,40.32230045712627,45.83694647568174,81.77297517252795
56.459884299876535,53.470548849815806,50.066831370237765,34.72557513361661,40.493841477632095,46.1360621366782,81.77031692182086
56.43551890814028,53.53889436385427,50.28678229016024,34.74871540850897,40.66216692041053,46.445123886313894,81.76786304575512
56.41222089768191,53.60656637752315,50.506498595902904,34.76728383292513,40.82659474090378,46.76365522811907,81.76561061557094
56.39013065476718,53.67332790590312,50.72592835072255,34.78108310254572,40.986425727004026,47.0911067988961,81.76358104353088
56.36940868136346,53.73892990793365,50.94500924523835,34.78994441538482,41.140963891107056,47.426842118430294,81.76182800187071
56.35021265039618,53.803095061481464,51.16364641849965,34.79372901273487,41.28952716829625,47.770122993557,81.76041020784064
56.33269000907542,53.865525385680975,51.381702732624355,34.792315060644626,41.43143920399931,48.12011006731976,81.75937635346597
56.316992744489276,53.92592759807443,51.59900201112164,34.78559526314644,41.566017392435405,48.47589399608062,81.75878512791705
56.30328315652673,53.98402475008975,51.81532376750834,34.77349653105449,41.69257395005552,48.83653763449226,81.7587211534356
56.29171335678167,54.03954359453996,52.03038248522738,34.75600237414633,41.810426295891396,49.20109145611489,81.7592732964743
56.28240494979196,54.09220458440466,52.24381288881676,34.73315377445874,41.918900389684545,49.56857635227994,81.76050634453678
56.27545821913878,54.141738446172525,52.455183349342434,34.705034182157945,42.01732396116428,49.93795765593184,81.76247260108178
56.27097644340833,54.187912772383505,52.66402695714693,34.671763839625314,42.10502788982207,50.308128145918296,81.76524922245427
56.26906786828319,54.23053569456851,52.86985903825885,34.63351043885542,42.181369673603335,50.67790423062313,81.76894618448291
56.26982046629305,54.26943818233438,53.07217643406719,34.590496752343505,42.24576381369078,51.04603174052235,81.77367345074506
56.27328379143145,54.30447019840005,53.270463477200515,34.54298988987536,42.297695475916775,51.41119390927175,81.77951576811896
56.279479996882685,54.335525540418914,53.46421080681204,34.49128124778563,42.33672278405258,51.77202545821656,81.78654894653656
56.288421696034455,54.36256469822229,53.65292295674921,34.43567475325374,42.36249017898093,52.12714059221847,81.7948670992963
56.30010694275255,54.38560502268625,53.836103664096804,34.37648639660097,42.374750359956785,52.47515961400327,81.80457473078387
56.314501330468104,54.40469124020802,54.01324196773015,34.314042402544544,42.37336945477212,52.81471423118094,81.81575378487732
56.33153754819362,54.41988169599228,54.18382171292319,34.2486665570556,42.35830896345681,53.14443922530375,81.82845553871405
56.351132068792104,54.431259169568946,54.34734230319974,34.18066418400255,42.329609147312254,53.46296971970358,81.84272715735437
56.37318900925311,54.43893864587683,54.503322822274654,34.110319251165315,42.28739398393871,53.76894949584857,81.85862599295258
56.39757980127247,54.443050364202655,54.65128466823884,34.037907804142556,42.231884068570736,54.06104268717656,81.87619315967214
56.424124914819004,54.44371421421407,54.790735670269086,33.963709862824054,42.163394140881564,54.33793832162608,81.8954218446155
56.45260363522017,54.44103352835409,54.92118132507153,33.88800508140157,42.082321250496605,54.598345606691794,81.91626525655595
56.48277848883109,54.43510713141451,55.04215853262746,33.8110621296888,41.98914854053112,54.840990862188754,81.93867086539976
56.51439994550205,54.42603211921154,55.15325567618814,33.73314182086742,41.88447215439393,55.06462713837559,81.96258946874325
56.54718738701979,54.413886301407395,55.25410208280169,33.65451505144661,41.76903095148761,55.26805107534482,81.98794731100236
56.58082033199478,54.39871550158039,55.34435770552085,33.57547475144833,41.6437112671726,55.450112666476294,82.01462742922457
56.61496301281859,54.380549853172,55.42373401876414,33.4963282126259,41.50952331221598,55.60971852312234,82.0424950518611
56.64929883711015,54.35943224668051,55.49202724736005,33.417382582064334,41.36756916195985,55.74584087879555,82.07143672024546
56.683537773019324,54.33542422471697,55.54912349390133,33.3389454631079,41.21901176043857,55.857531511688066,82.10136278341315
56.71740054281646,54.30858942238981,55.59497331309837,33.2613418779641,41.06503924534449,55.943929116788624,82.13218007275017
56.75061408769601,54.27898848473713,55.62956909251492,33.1849252925424,40.90682656639448,56.00426007916352,82.16378499975298
56.78292687326547,54.246699954779025,55.652942147865595,33.11006839053628,40.74551166165949,56.03784761078684,82.19608807504619
56.81411559995152,54.211838540922,55.66516090041503,33.03714597678871,40.58220288503722,56.04413994100788,82.22902476955588
56.843966758397606,54.174544481773616,55.66631288360807,32.966526769157824,40.4180056955454,56.02274275977417,82.26252713031539
56.87225748042175,54.13496288469878,55.65648347361038,32.898571497782015,40.25403259718531,55.97343329561664,82.29649353115164
56.8987644681495,54.093246373794145,55.63575264007376,32.833623996377696,40.09138482903669,55.89617279750823,82.33080025631426
56.92328824123787,54.04957588447677,55.604208096057675,32.77199267789199,39.9311347110135,55.79115682338808,82.36533824253154
56.94565640687138,54.004165265422735,55.56195358893164,32.713934672916324,39.77432980387238,55.65888777484231,82.40002203555647
56.96570188332612,53.95723914141758,55.509103048488335,32.65965546341571,39.62200002120811,55.50020424409838,82.43475964936077
56.98325099242409,53.90901261501057,55.44578278140613,32.60932026549082,39.4751430381058,55.316241986814276,82.46942937902594
56.99814257349638,53.859699092989146,55.37216278155168,32.56305912910173,39.334695896088036,55.1083646182542,82.50389888023423
57.0102529775112,53.80953198181687,55.28849386066132,32.52095832307627,39.20152619453477,54.87811156892811,82.53805838067004
57.019493704500675,53.758766825055645,55.19511154598389,32.48305195975642,39.07646787689475,54.62717597670864,82.57181905870578
57.025789976066754,53.70766253546261,55.092408898692426,32.44932795972759,38.96038043553198,54.35738525309992,82.60508246807935
57.02907430885155,53.65647390744371,54.98081348691686,32.419741869382015,38.85417884744404,54.07065866089371,82.63773129503576
57.02930178014811,53.60546997351053,54.86078814504823,32.3942213076481,38.75882286826549,53.76895308915305,82.66965530982412
57.02645793082203,53.554951164439004,54.73283943699596,32.37265798033023,38.67530573430319,53.45422496505356,82.70076780590428
57.02054167519272,53.5052377962716,54.59750931658797,32.354902186918665,38.6046623876102,53.12841921103515,82.73098256066795
57.01154543687928,53.45664372246615,54.455356012855596,32.34077047257404,38.547971995714704,52.7934689039345,82.76018579971091
56.99946086362308,53.409468935784645,54.30695390455995,32.33005660278521,38.50633075924684,52.451286421696956,82.7882484764237
56.98430084846582,53.36401439911421,54.15291643215729,32.32253100780683,38.48080575870362,52.10375844081222,82.81506394153965
56.966104256854706,53.320587528367525,53.993907553493656,32.31793235111718,38.472396872856734,51.752766446315945,82.84055717975836
56.944916278338255,53.2794817912965,53.830621096861236,32.31596843196882,38.48201410980274,51.40021773424623,82.86465346012285
56.92077400359916,53.2409561261772,53.66375317882957,32.31633177066986,38.510454843280755,51.048056964820404,82.88725273991655
56.893718595658065,53.2052416778963,53.494000694098986,32.31871406459705,38.55838294805888,50.69826123676281,82.90824512416103
56.863815403817185,53.17256124784198,53.32208040103694,32.3228040458721,38.62635313770252,50.35284590246641,82.92754048115229
56.83115282967806,53.143127771605776,53.14873410057834,32.32827523289837,38.714899704591595,50.01388919084994,82.94506602027836
56.79582601367884,53.11712110903606,52.97470607419655,32.33478422823231,38.82462164547736,49.683551126912434,82.9607387042155
56.75793575852152,53.094675733447495,52.80071720592443,32.341987430088615,38.9561896921315,49.364066418025544,82.9744600019467
56.717606798342956,53.075896525856315,52.62746338688902,32.34955894786277,39.110291390839826,49.05772604812642,82.9861422524763
56.6749953732468,53.06087910725297,52.45563281216565,32.357190493897406,39.28757784739232,48.76687024962582,82.99572149784319
56.6302700358319,53.04970603608961,52.28591074933795,32.36457859392519,39.4886391773954,48.49388651835443,83.00313195458779
56.58358948428468,53.04242853151781,52.118959894523044,32.37142171879843,39.713988959594815,48.24119198152218,83.00828023736908
56.53510584890734,53.039064760346726,51.955405517555626,32.37743680784098,39.96404187893589,48.01121060229533,83.0110633259754
56.48498463085367,53.039616981624256,51.79585226794763,32.38237723389212,40.239105100186336,47.806396250821074,83.01141230940206
56.43340780292692,53.04407793412227,51.64091310597826,32.38603196693553,40.53940463497336,47.62932428582929,83.0093051823356
56.38055280429562,53.05241304575438,51.491213730004645,32.38821114094296,40.865124010436176,47.482792038692985,83.00473543173936
56.326580393064006,53.06454370054919,51.347373499017664,32.38874039638802,41.21641940694287,47.36985504973404,82.99768637932343
56.271655943017855,53.08035770518842,51.209990908348004,32.38747425147799,41.593430343863595,47.29380976646401,82.98815170530168
56.21597990408442,53.09973354454717,51.07963926038422,32.38431160639481,41.996331458767955,47.25823215761084,82.97617365089872
56.159788601023656,53.122544606519966,50.95685300111293,32.37919222812834,42.425411666723875,47.26716061767557,82.96184482704727
56.10332995181295,53.14864090412473,50.8421006114003,32.37207800850983,42.88112453051786,47.32531812221573,82.94527685161866
56.04685094001112,53.1778408107566,50.735772507343206,32.3629399792894,43.364086795733485,47.43818908284575,82.92658888189854
55.99060721035087,53.20994807310365,50.63820880720433,32.35176094401409,43.875056073260765,47.611996343378465,82.90593192932435
55.93486656760079,53.244767376122084,50.54974413765957,32.33854199792029,44.414927962191136,47.8537790493109,82.88350277954991
55.87988887085201,53.2820942254305,50.47072153258616,32.32329868554395,44.98474047607387,48.171568256806424,82.85951623418659
55.825905839136475,53.32169733628927,50.401467294082984,32.30605011066719,45.58564513964227,48.574469894130374,82.83416885473298
55.77312986142877,53.36332598586254,50.34226408838135,32.28681791750535,46.21885851424793,49.07257176098553,82.80764042512412
55.721780370706796,53.40673939228249,50.29334855906505,32.265644575456044,46.8856455711443,49.67671619425823,82.78012428269608
55.67209008496016,53.45172240644729,50.254918465670954,32.24261582762425,47.58732799471425,50.398191120395445,82.75183516129923
55.6242826357685,53.49806861854214,50.22712462036902,32.21786402013477,48.32525392566639,51.2484130011689,82.72297685678032
55.57855459072516,53.54555328429401,50.21005276856521,32.191554765987725,49.100707705871535,52.23867378033576,82.69371301957845
55.53508536049846,53.593929996719574,50.20371808748805,32.16388172603139,49.91481613054927,53.38000126505279,82.66418004199612
55.494053719969486,53.64295305376932,50.208072044608,32.13507943663061,50.768530646400755,54.68315040680311,82.63451771016713
55.45563086274323,53.69239224859004,50.22299844079758,32.10543501195485,51.662701736099265,56.158650626000615,82.60486885639297
55.41995916854752,53.74202076616574,50.24829644181923,32.07527929224164,52.59816510046412,57.816785320413,82.57535154772793
55.38714895271496,53.79160206638929,50.28368614547161,32.044964835860334,53.57576155202931,59.667466131997784,82.54605283260166
55.35729660754278,53.84090529542748,50.3288570241083,32.01485356398675,54.59629493463107,61.720115452790736,82.51705808628807
55.33049294817787,53.88974018169299,50.38351979422525,31.98532222250725,55.66048432218798,63.98368034895338,82.4884704363029
55.30680582094543,53.93799322238686,50.44741397511363,31.956769122345843,56.76900419522762,66.46669942342311,82.46038828953236
55.28626329271425,53.9856635095729,50.52028047798845,31.929605788895923,57.922645595541596,69.17725104994658,82.43287397998817
55.268866620720296,54.03288598317251,50.60184066883967,31.90424196313136,59.12246392789943,72.12276091289931,82.40596070667543
55.25461919511827,54.0799217852824,50.69179587086814,31.881079370989077,60.36979479297637,75.3098002004631,82.3796873725506
55.24353293439267,54.127118678143205,50.78982571890704,31.86050896040159,61.66618985165662,78.74403686611458,82.35410831958951
55.23560478617772,54.174871050841176,50.895567368764155,31.84289801870814,63.01335266022487,82.43034556782364,82.3292619478274
55.23079701769489,54.22361800181942,51.008588044432514,31.828569950620277,64.41309389280404,86.3728528380594,82.30514344965131
55.22904738319211,54.27388449872723,51.128380345840895,31.81779281122075,65.8673217579297,90.57475160162615,82.28172082579053
55.23029174002838,54.32631608632759,51.254392960179395,31.81078525264894,67.37806458200552,95.03799676062242,82.2589694490906
55.234465830287995,54.381665446206256,51.38607096272903,31.807728359788765,68.94746360500254,99.76310385268796,82.23687457486038
55.24148691743776,54.44075234104467,51.522867643838275,31.808765597320154,70.57768516387871,104.74916282727007,82.2154023618823
55.25124735344217,54.50443790845085,51.66422491346335,31.813991465424728,72.27077202993166,109.99398738245496,82.19448891705989
55.26363264364509,54.57361185252881,51.809553896561106,31.823447028716487,74.02848080514873,115.49421788871844,82.17406647600706
55.278536448796096,54.64916419638041,51.95823964075503,31.83713188052394,75.85214842900237,121.24531572220141,82.15408436752234
55.295848043717825,54.73193610659633,52.10965843026039,31.855018382551368,77.7426204000884,127.24154835460224,82.13449054444168
55.31542795669587,54.822671189297374,52.263181965998925,31.87705034440214,79.70024207660762,133.4760512434728,82.11520333470284
55.33710394482424,54.92198287477185,52.41817254352832,31.903130008706164,81.72487854795708,139.94094438489975,82.0961202849056
55.360690986607494,55.03033238537358,52.57399591124098,31.933112964457134,83.81591626680373,146.62742999121554,82.07715551409653
55.386005359191806,55.14800532603348,52.73004929302587,31.966820774534433,85.97223146659593,153.52581792964727,82.05825240884603
55.412853203873205,55.27509072979966,52.88577352509133,32.00405812798424,88.19214642111298,160.6254635019401,82.039353471808
55.441014469561175,55.411498694134515,53.04064197169051,32.044617970450474,90.47339224146496,167.91466488533604,82.02037283909628
55.47025048007251,55.55706216372672,53.19414651488247,32.088281758829865,92.81308096687432,175.38063228862197,82.0012133265312
55.50032593487362,55.71169600851231,53.345787232668904,32.13483185708454,95.20767948294328,183.00958318862524,81.98180368505218
55.53101279223685,55.875517322018915,53.49505500317592,32.18406969580026,97.65298596968493,190.78689253534506,81.96210319685763
55.56207009735831,56.04890553591734,53.641405709633055,32.23581758500874,100.14412611217394,198.6972122598184,81.94207355206572
55.59323028545811,56.23256384683458,53.784240034551196,32.28990050644825,102.67558498100176,206.72455006049523,81.92166905979887
55.62421419991979,56.42757424032257,53.92290342977573,32.346127329835255,105.24129489785459,214.85237319422248,81.90086420207878
55.65475508496375,56.635385720380505,54.05670386318185,32.4042884346519,107.83477894545275,223.06379794958113,81.87967419264555
55.68459982729686,56.85774207552636,54.18492663939232,32.46416462470825,110.44928455038188,231.34182068835938,81.85813327571573
55.71349174270471,57.09659001936788,54.30683295818137,32.52552955175685,113.077847049979,239.66948160440504,81.83626042966654
55.74116610409026,57.35399065068769,54.42165679801183,32.588142078930616,115.71329645890849,248.02989277977713,81.81406009080644
55.76736726629632,57.6321004897827,54.52862464925498,32.651743321078335,118.34824293903358,256.4061697144348,81.79155213278054
55.79186118184721,57.93330941895386,54.62699493763596,32.71606665278301,120.97506806067256,264.7813694270512,81.76878117404954
55.81442442882231,58.26046722431497,54.71608438496643,32.780849204429046,123.58594563959538,273.13846265229574,81.74578784290992
55.83482942866477,58.616985084521424,54.79526425964205,32.845830567405976,126.17288462438177,281.4603206158305,81.72258633436606
55.852855529773514,59.006720856114235,54.86394834055526,32.91074366559356,128.72776066445286,289.7297484083666,81.69918651241365
55.868318970225125,59.43375346258607,54.921600443561054,32.97531741856471,131.2423373259483,297.9295830509874,81.6756312588364
55.881084650476154,59.902160414451245,54.96776235239899,33.03929711498544,133.7083320529008,306.0428269807649,81.65199560984833
55.89104669912753,60.415831202025764,55.00207970111011,33.10246329820712,136.11756107685596,314.05278579147017,81.628350222656
55.898110561062666,60.97831631817875,55.02430776111363,33.16463160855217,138.46210230405316,321.9431847032923,81.60474160042875
55.902212509050734,61.592712467762205,55.034306443020576,33.22564301352754,140.7343836917526,329.6982598282842,81.58121344145236
55.903363760522325,62.26158323264104,55.03204110306999,33.28536380899352,142.9271898756701,337.3028298928699,81.55783152148757
55.90167061906511,62.98690689173755,55.01757943882206,33.34369289498143,145.03364282914373,344.7423267728066,81.53467254629184
55.89731549641341,63.770041507447225,54.99106754919958,33.40055777279379,147.04718157697607,352.00276801202887,81.5117970531216
55.89053455019313,64.61169869169704,54.95269665043296,33.455896782413916,148.96153976095422,359.0706968257385,81.48925243219026
55.88161739129047,65.51191705080174,54.90269533638816,33.50964666574516,150.77074462710794,365.93317545859236,81.4671034602991
55.87090971176722,66.47003601475676,54.841367004958336,33.56174796940914,152.46916127983562,372.57796270668695,81.44544126638444
55.85879502958472,67.48470640827567,54.769141313884305,33.612156109591645,154.05155273726868,378.99387782565594,81.42435176571607
55.84566873262537,68.55401279679597,54.68658849869863,33.660840197459024,155.51310498792208,385.17116489795325,81.40388596908117
55.83193334561653,69.67570931566536,54.5943923968589,33.707772427518115,156.8494173290788,391.10170114229777,81.38407353714712
55.818011310192894,70.84741934152187,54.49331623470451,33.75292579086658,158.05649592204105,396.77900991355506,81.36495800073403
55.804342821824704,72.06667503921126,54.38417546382576,33.796284849892565,159.1307603413105,402.1981300730213,81.34660096106039
55.79135915779817,73.33084789876551,54.26780714533496,33.83785289035458,160.06904038809787,407.35545465767495,81.32905032263193
55.77946192235644,74.63708061673564,54.145034581032434,33.877643247070985,160.86855371783457,412.24857010166414,81.31232104181278
55.769033359172276,75.98227051103115,54.01664587882697,33.91566747095502,161.52688778411257,416.87606722982065,81.29641502740445
55.760457756394736,77.36309295990141,53.883401473442184,33.951938052516276,162.0420213088109,421.2373564360294,81.28134476349452
55.75411766140156,78.77602117265884,53.74605458375301,33.986480537730394,162.41238686319656,425.3325317260903,81.26712082364475
55.7503670212029,80.2173153575591,53.60535463232221,34.01933548094686,162.6369244050229,429.16232175636014,81.25372354620514
55.749518069192305,81.68299033782701,53.46203423863688,34.05054433854967,162.71508695816615,432.7281652817824,81.2411073982294
55.75185864326822,83.1687790512282,53.31680333305227,34.08013158003484,162.64682565943784,436.03235932438446,81.22923683591651
55.75767183914235,84.67012036657607,53.17035094290698,34.108093258787555,162.43259475500543,439.0781332379603,81.21810227543388
55.767230542526306,86.18224178018495,53.02333411909942,34.134388523351305,162.07336948361643,441.8695425291523,81.20769447909991
55.780785497364626,87.70038478643806,52.8763540064671,34.158927907632254,161.5706490176051,444.41123707540874,81.19798025302843
55.798576204382655,89.22009513644481,52.72994841878486,34.18156007739607,160.92643891311988,446.70825693199424,81.18892217709939
55.82085118232077,90.73747970857879,52.584617956554276,34.20206318414377,160.1432262313564,448.76590803623327,81.18051929687532
55.84786705709506,92.24943399841867,52.4408577936215,34.22014780507401,159.22395631324915,450.58964603073787,81.17281406844278
55.87986454758809,93.75381450987065,52.299157498217845,34.23547208166546,158.1720038947199,452.1849709138262,81.16586157455671
55.91703605215722,95.24946450558514,52.159972050282796,34.24765754738048,156.99113541511718,453.5574232847191,81.15971166606421
55.95949458887819,96.73609530271726,52.023699534971875,34.256314494277184,155.685495453523,454.7126591313703,81.15443093747311
56.00724813713395,98.21411138111824,51.890692339549716,34.26113099426331,154.25964467187208,455.6564862067917,81.15012701260615
56.06020264804248,99.68448864584994,51.76129064658173,34.26203707821603,152.71861200850987,456.39484123112675,81.14693267658326
56.11827092480679,101.14882791004476,51.63583967626663,34.25934092994519,151.06792077098225,456.9337781350745,81.14496967537502
56.18161706420664,102.60954568827857,51.51467695648448,34.253746773036255,149.3136083568486,457.279478023098,81.14434395235213
56.25088796707891,104.06995114816684,51.398118227702334,34.24629139076974,147.4622691635837,457.43820592529397,81.14517556682296
56.32726374263897,105.5340829518704,51.28646414886438,34.2382726338428,145.5211070935163,457.41620833205053,81.14761195902415
56.41234725702441,107.0064725681389,51.18001086249084,34.231186408302236,143.49794650751792,457.2196549770272,81.15179865679391
56.50800804826226,108.49200078619313,51.079041310459594,34.22665979564929,141.40117805709124,456.85467932433994,81.15784785405472
56.616248414513066,109.99580803347254,50.983808846871476,34.22638254757579,139.23967144315046,456.32746494824755,81.16584902371964
56.73912171001054,111.52316253084065,50.89454465238491,34.23207732168565,137.02266838783132,455.64430291990067,81.17590147758833
56.87870051473872,113.07929779394533,50.811492023699806,34.24558314810754,134.75964059058796,454.8116254527549,81.18811577866762
57.03704792037475,114.66930133289328,50.734932168425516,34.26904755662324,132.46013552804894,453.83605971805184,81.20258008418496
57.216161738578904,116.29808075235402,50.66517682721482,34.30507284003981,130.13366255982754,452.7244416766056,81.21934316136681
57.417914508741696,117.97033240480678,50.60255136477493,34.35669236230089,127.78963988683022,451.48374356637754,81.23844234665302
57.644007984819815,119.6904363605649,50.54740229208755,34.427226927577536,125.43737220331853,450.1210205425304,81.25993655414769
57.8959501013011,121.46229003013276,50.50011723388996,34.52012239931123,123.08601657737941,448.6434380318677,81.28389622305163
58.175118493736214,123.28914866093119,50.46111997407763,34.63881430030432,120.74451772240494,447.0583086268106,81.31036695332058
58.48295323777718,125.17353535903663,50.43083801554951,34.786665302674926,118.42152471347701,445.37310322062456,81.33936134408233
58.82115691429976,127.11722975947562,50.40967371166583,34.96705106425798,116.12531593046607,443.5954541697193,81.37088674833316
59.1917389677866,129.12129891476934,50.39799277676374,35.183580791594544,113.8637418461915,441.73311315573585,81.40495852900979
59.596907925270884,131.18617035563136,50.39611163950036,35.44027888617961,111.64417499158047,439.79381560518385,81.44157227150859
60.03893390974601,133.3117579705778,50.40426773906267,35.74157482462623,109.47345887536743,437.78510097105686,81.48067740348723
60.520082581421235,135.49755439580522,50.42258503706644,36.09213957086258,107.35786277611021,435.71417856098265,81.52219742304489
61.04263278903832,137.74260539533194,50.45106234774323,36.496702054497135,105.30305261705871,433.58785391124735,81.56607252985454
61.60890521528435,140.045439114543,50.48959199900256,36.959910984633844,103.31407045555412,431.412496494257,81.612267372709
62.22123662705407,142.40408381398603,50.53797987919926,37.486237346401246,101.3953120526272,429.194057961265,81.66073974389388
62.88189394027,144.81621843983052,50.59594253061223,38.07994875258832,99.55050998093591,426.938123958168,81.71142196450644
63.592976395011924,147.2793788291371,50.66309866301507,38.745188209019624,97.78273371474049,424.6499247957119,81.76424357720245
64.35643110984783,149.79109618285912,50.73897858148417,39.48606536166677,96.09441061595953,422.33426329038434,81.81915986582214
65.17426795509218,152.34898703579034,50.82304059537898,40.30666620403952,94.48736021353066,419.99542533974125,81.87614208995579
66.04884107429338,154.95088927559738,50.91467167757318,41.21104835768979,92.96281948437205,417.63715084654905,81.93514408134277
66.98299441767834,157.59494321908772,51.01317509068091,42.20328195999246,91.5214570746876,415.2626443255667,81.9960956485044
67.98004111160282,160.27950659348144,51.11777005181206,43.28746314770813,90.16342127178308,412.8745626898048,82.05892991342377
69.04364085148597,163.00307308675954,51.2276179963956,44.467687861720535,88.88844465582883,410.4749867740135,82.12359602092177
70.17761666969372,165.76434416413613,51.34185677030954,45.748088214826595,87.6959488534621,408.0654697206947,82.19003083923221
71.38576560276846,168.56228774990106,51.459613395843164,47.132928005066255,86.58510163227584,405.6472036351924,82.25812871703111
72.67172715252086,171.39599957250883,51.57999727622472,48.626616171149735,85.55485584092833,403.2211798083222,82.32775342440203
74.0389149053309,174.26446662752397,51.70210184287217,50.23356557325229,84.60399212951039,400.7882160663357,82.3987736466146
75.49044249522507,177.16648755728775,51.82502326835246,51.957963278323895,83.73113276182387,398.348880648091,82.47106846850637
77.02901312796988,180.10086687743396,51.94787277270602,53.803538263377106,82.93471186622833,395.90339919880336,82.54449567921729
78.65684348669772,183.06669463528493,52.06976644984164,55.77336110361885,82.21294202071151,393.45161907387023,82.61887229547399
80.37565844852968,186.06342203978394,52.1898115854143,57.869698652418734,81.56382770536314,390.99308942902326,82.6939967226224
82.18669576246552,189.0906926361356,52.30711761240754,60.09393586833645,80.98523298193344,388.5272058754887,82.76967745262732
84.09067844980773,192.14811257818792,52.42082768808968,62.446536130330664,80.47495246316733,386.0532785991289,82.8457243494052
86.08777103663203,195.23510017682636,52.530137432230866,64.92704676412208,80.03073088173406,383.57048685536904,82.9219171492859
88.17754652805598,198.3508038857142,52.634285236902926,67.5342078013906,79.65024276136015,381.0778148448055,82.99799983122091
90.35897526012971,201.4940135160113,52.73253849126415,70.2661169285059,79.33108996361615,378.5740425800508,83.07370748241483
92.63041580485995,204.66302885863257,52.82420135782525,73.12030577670087,79.07083565217769,376.05781442827083,83.14878051010804
94.98959567826493,207.85550086923277,52.90863268055848,76.09369603178769,78.8670406613828,373.52777177688114,83.22294202243694
97.43359591043856,211.06829529961155,52.985247990639586,79.18252828392784,78.71728377057501,370.9826657279833,83.29587469475408
99.95883171109591,214.2974419999399,53.05351144593979,82.38231988194309,78.6191727129113,368.4214045748775,83.36723788939656
102.56102274789012,217.53820229852468,53.11294877510826,85.68784569962611,78.57033662523624,365.84308660371784,83.43670693344461
105.23519753528352,220.7852637030252,53.163184528835124,89.09313337413761,78.56838945385667,363.2470157009534,83.50398320933418
107.97579390929953,224.03301378395435,53.20396768322409,92.5914730837867,78.6108835325014,360.6326576676365,83.5687662932413
110.77684627808203,227.27574532262787,53.23516265885031,96.17545860058136,78.69528846492298,357.9995896704177,83.63073421707085
113.63214581518586,230.50773624862893,53.256729489011065,99.83710950757947,78.81901001754613,355.3475277402432,83.68956418461369
116.53528103605727,233.7233041903073,53.26873437093472,103.56808123442352,78.97942915410218,352.676453734441,83.74496442236979
119.47959268503266,236.91684089632668,53.271395394341646,107.3598505564001,79.17393187361002,349.9867965158109,83.79667202585027
122.45813110628262,240.08274372242056,53.265121868923096,111.20376943037215,79.39991078367402,347.279575224399,83.84442741090275
125.46365721286841,243.21529873692873,53.250516363717246,115.09101198161542,79.6547364895375,344.5564422837729,83.88797507935632
128.4886608259449,246.30867560360315,53.22836323271841,119.01249644656737,79.935718385451,341.8196323480763,83.92709789754747
131.52536262143815,249.35706913358885,53.19965277726071,122.95883111415053,80.24007553787239,339.0718426639956,83.96163489906309
134.56571074695776,252.35481693411637,53.16564176317663,126.92031770637223,80.5649241139999,336.3160759208316,83.99145468398467
137.60139059333602,255.29636550214474,53.12788734500039,130.88704752974525,80.90727998249757,333.5554808519111,84.01642389998332
140.62384755149242,258.17617745130553,53.08822335585197,134.84906251132782,81.26407144125123,330.7932010325301,84.03641898304014
143.62434213200206,260.9886855048479,53.0487170787974,138.79648935278223,81.63215478685761,328.03222187684537,84.05136621654192
146.59405249077037,263.72825415474006,53.01163190173558,142.71963316253184,82.00832238751588,325.2752400945251,84.06125418593362
149.52417071365576,266.38909967241756,52.97938984797877,146.6090951740227,82.38929712117488,322.5246439024303,84.06610609535265
152.40593948821913,268.96521191096355,52.9545357468999,150.4558910444978,82.7717225041,319.78264063845694,84.06595945050415
155.23068382435855,271.4503366927268,52.9397123365927,154.2514865235034,83.1521640639027,317.05140256441604,84.06088539839604
157.98992565504827,273.83800384908807,52.93766087645295,157.98777376211328,83.52713079602692,314.33308649439624,84.05101662666182
160.6755516140139,276.12155838140785,52.951241372821336,161.65706721108455,83.89311541368929,311.6297444738988,84.03653944735758
163.27991602480142,278.294235205214,52.98343433452983,165.25211049290456,84.24664099467105,308.9432270369238,84.01766079475154
165.79583287761926,280.34934671110517,53.03732605819658,168.76606981183463,84.58429873550676,306.27515198605914,83.99459849353921
168.21653367855467,282.28052438026737,53.11611253882839,172.1925726935043,84.90276932763526,303.6269433474899,83.96760407104752
170.5357077457954,284.0818779567177,53.22310225079548,175.52581289245558,85.19883470495625,300.99985894798874,83.93697214884361
172.74765031406778,285.7480378806349,53.361678412101185,178.76062467383656,85.46939340828357,298.3949357839339,83.90300915261601
174.84739436001715,287.27416019959213,53.53522915080525,181.8924965188181,85.71147919225555,295.8128911373171,83.86599765391499
176.83070444369307,288.655966289346,53.747091805136264,184.91763985697446,85.92227693746631,293.25407683639617,83.8262004401133
178.69396051158304,289.88984214617443,54.00056350300028,187.83312972510873,86.09914092898649,290.7185469700748,83.78388909190271
180.43402193001742,290.9729794280976,54.29896008151572,190.63699147131595,86.23961320182754,288.20619100998846,83.73934560228389
182.04811653275672,291.90348104216275,54.645625886978664,193.3282446288944,86.3414280045253,285.7168204882504,83.69282706002765
183.53377329049422,292.6803664659454,55.043857622529366,195.90703227081286,86.40251045591853,283.25019720143825,83.64454009902512
184.88880588768166,293.3034840170555,55.496806262608594,198.37484163070846,86.42100084988454,280.8060901048571,83.59465955614449
186.11131840408788,293.7733640951263,56.00739665708502,200.73470872371615,86.39530703869717,278.3843628238451,83.54336259405767
187.19968874573036,294.0910606338435,56.578246996978955,202.9912808581729,86.32414732465122,275.9849955289718,83.49082934438668
188.15253491340334,294.25801967638205,57.21160306605368,205.1506726985464,86.20657036604513,273.6080176560117,83.43721512767343
188.9687289579647,294.2759615351068,57.90934677815151,207.220171147207,86.04197123984846,271.2534270766505,83.38264371808744
189.6474824988332,294.1467557527088,58.673080332320346,209.2078787031814,85.83009793514434,268.92114205245707,83.32723484956689
190.1884275549554,293.8723142578301,59.504200765827015,211.12236938990748,85.57103292931522,266.6109638319304,83.2711204591013
190.59163626398072,293.4545351318749,60.40390426173824,212.97244693795585,85.26516200500993,264.3225251836097,83.21442002966631
190.85761571286693,292.89528076638123,61.37313669156728,214.76702998217405,84.91314088721083,262.05523980573116,83.15721062303203
190.98731044562263,292.19634599194217,62.41252396270571,216.51506157634063,84.51585784171635,259.80828880858337,83.09953863880642
190.98209710628927,291.35940370051117,63.52231584022212,218.2253576616378,84.07439840127395,257.5806515063555,83.04146043378361
190.8437477017356,290.38596426489613,64.70239937785698,219.90642530692202,83.59001615981465,255.37114134246937,82.98305648074236
190.57435533770814,289.2773969911977,65.95240038370649,221.56628867121273,83.06410275009736,253.17843840406633,82.92440226668192
190.17626687964773,288.0350124388824,67.27178597719805,223.2123300430908,82.49815562363993,251.00120334021605,82.86554204329619
189.6521186985546,286.66014500016195,68.65988715095362,224.85121129681613,81.89374853074172,248.83830090755254,82.80650587791992
189.00499263269467,285.1541975512742,70.11590286737625,226.48892191925563,81.25250353416365,246.68897704861786,82.74734496149189
188.23854299331074,283.51867435185386,71.63896546488309,228.1308532080562,80.57606198095857,244.5528634356649,82.68813432349832
187.35697175758278,281.7552210148942,73.2282032640619,229.78181293308597,79.86605684618216,242.42988172210988,82.62894589508731
186.3649279458067,279.8656516743102,74.88270974401544,231.44603029452585,79.12409708452036,240.32015342749798,82.56984198327237
185.2674616469223,277.8519888730335,76.60146060995571,233.1271581998534,78.35179006134442,238.22393665025365,82.5109032547507
184.07003438868935,275.71658664829766,78.38327617133635,234.82820679726356,77.55081260574595,236.1415914595985,82.4522453719135
182.77849374985172,273.46230212164517,80.22684360490656,236.55143473991836,76.7229897383445,234.07357593922634,82.39399340819513
181.3989685704696,271.0925741338106,82.13074872222987,238.2982967595552,75.87033118600168,232.02044903572994,82.33624824296126
179.93773553986117,268.6113532555837,84.0934886511337,240.0694746873556,74.99501735725195,229.98288755255678,82.27909210844398
178.40113295164758,266.0229687898822,86.11347045216658,241.86494299235693,74.09935394283657,227.96175777811507,82.22262261694918
176.7955449454263,263.3320485556505,88.18901938129652,243.6840329803305,73.18572208239365,225.9581965670957,82.16696188724846
175.12740578933781,260.54354282964096,90.31840473517514,245.52548518642044,72.25655324897102,223.97360708155318,82.11222444766777
173.40316317741969,257.6627931017389,92.49983893259129,247.38747903169468,71.3143342155193,222.0095785038275,82.05848943755463
171.62919455892822,254.69554772465813,94.73142212113906,249.26763190670695,70.3616108743188,220.06780387263885,82.00581556007653
169.81171437810636,251.64792708430898,97.0110800433693,251.1629607867239,69.40096638607925,218.15001390425567,81.95427253335754
167.95672099658162,248.52640361822307,99.3365546140115,253.0698154427962,68.4349872902856,216.2579104354059,81.90394035222948
166.06999821627358,245.33778557297805,101.70546149360734,254.98384648278775,67.46624072761685,214.3931108478828,81.85488201068586
164.15712439642414,242.08914285716972,104.11538782772284,256.900093769114,66.497265789543,212.55711653499552,81.80714014365938
162.22344958223698,238.78767411861546,106.56397792143424,258.8131719605787,65.5305652390797,210.75128752158804,81.76077018357562
160.27406796186176,235.44057643685446,109.04896394577315,260.71743116658683,64.56859422932268,208.97681966057178,81.71586128190648
158.31381564266093,232.05497093074047,111.56814619681403,262.60708803756233,63.6137637692172,207.2347446140564,81.67251150343122
156.3472797415307,228.63787771527643,114.11936853680787,264.47641833558447,62.66845975062012,205.52593446318954,81.63079077201965
154.37881581419933,225.19618363931727,116.70051418513108,266.31997256853424,61.73504907094165,203.8510803507457,81.59074134513594
152.41258334662933,221.7365827962685,119.3094858691583,268.13269957855505,60.815865142066336,202.2106611568928,81.5524109601703
150.4525677693374,218.26554969499816,121.9441418162898,269.9099446778161,59.913192055813575,200.60492618022187,81.51586750588761
148.5025605056267,214.78938176155788,124.60222771573083,271.64736716491683,59.029246256042654,199.03390642385207,81.48117396602504
146.56612250273582,211.31424343638048,127.28134729472151,273.3408433623582,58.16614036561916,197.49749916969398,81.44836428645343
144.64656047909853,207.84614217312486,129.97895747042253,274.9864291330547,57.325836496151325,195.9956407193858,81.41745916752214
142.74691383318057,204.3908699164312,132.69237037181102,276.58051290938573,56.51011502646559,194.52847033056133,81.38849832689823
140.86993900038647,200.95398511274718,135.41879882131929,278.12019431173144,55.720578597231075,193.09638940629742,81.36154052715978
139.0180835274061,197.54084273820357,138.15547051130582,279.6036270210929,54.958680950760034,191.70004976512027,81.33663389051515
137.1934578575295,194.15660717845697,140.89972967908201,281.0300877059959,54.22574799312134,190.34035712558025,81.31380582039223
135.39782686360206,190.80620672581747,143.6490295502926,282.3998884058118,53.522984745011975,189.01850782997357,81.2930890184005
133.63263119697257,187.49426645197428,146.40085566760985,283.71432389438934,52.85148748972859,187.73599693646025,81.27453939285473
131.8990174265035,184.2250730688415,149.1526821151711,284.97561724334224,52.21226580753698,186.49454823092896,81.25821275715103
130.19784826185958,181.0025826512439,151.9019674123408,286.18675364327095,51.60628326428404,185.29600023528764,81.24413105512076
128.52970227839006,177.83044805843937,154.64613209907898,287.3512274091847,51.0345259617666,184.14220129694544,81.23228358786184
126.89491487776198,174.71205327216325,157.38250774018096,288.4728022932838,50.49806216690249,183.034916834008,81.22265505479561
125.29368188622755,171.6505952210156,160.10830598089555,289.5553398867682,49.99805659949273,181.97574395900878,81.2152322057224
123.72616108001867,168.6492433531413,162.8206319945795,290.60269699895224,49.5357511953036,180.9660651439383,81.20997424005836
122.19250982817785,165.71128908818955,165.51650087855353,291.6186528966854,49.11242518261863,180.00704906413068,81.20678924271998
120.69290250485105,162.84017637504755,168.19284192665145,292.60679315677106,48.72933670386939,179.09963904880257,81.20555324874991
119.22758407105692,160.03943578552136,170.84653188690046,293.57033729860717,48.387668367773465,178.24448984264933,81.2061468701448
117.79691283204241,157.31259531163923,173.4744367344388,294.5120318176309,48.08849620852884,177.44189484851438,81.20845998130649
116.40133386716572,154.66308437768538,176.07338997878094,295.4341894910385,47.832774011578714,176.69175977826146,81.21236537714927
115.0413176050959,152.09414165974422,178.6401063824744,296.3387663969655,47.62132889554625,175.9936288485208,81.21770956705392
113.71732444618361,149.60875488459124,181.17109086113445,297.2274027370765,47.45487881200294,175.3467368432591,81.22433832361146
112.42981018512117,147.20962234240073,183.6625838245222,298.10152963182816,47.334063604304994,174.75006070143334,81.23211427133641
111.17925294165856,144.8991024963876,186.1105480285561,298.96254965135284,47.259459656120896,174.20234571486608,81.24089354409801
109.96617298534898,142.6791578357771,188.5106782947598,299.81191006691716,47.231556529736885,173.7020994400118,81.25049275629331
108.79113046517251,140.55132713178122,190.8584111669547,300.65098306376456,47.2507007466178,173.24758754611082,81.26069324467431
107.65470179969081,138.51674213635627,193.1489423252744,301.4808589848174,47.317031743765085,172.8368649195787,81.27127447632157
106.5574380570699,136.57617014921172,195.37727057896828,302.30218116973606,47.430431467816014,172.46784040108204,81.2820254611544
105.49982357269917,134.73004676634147,197.53826216608437,303.1150670660967,47.590492490212974,172.13835826987443,81.29271662598138
104.48225961825607,132.97850354317177,199.6267585022784,303.9190702303306,47.7964973799075,171.84625510501124,81.3030766416418
103.50506641270424,131.32142671743597,201.63774644157414,304.7131532287042,48.04740405238774,171.5893479592331,81.31281545306769
102.56847371551416,129.75854108710718,203.56649565875094,305.4957699787983,48.34184421237576,171.36538586910174,81.3216685227079
101.6725866313442,128.28949284117238,205.40857370485716,306.26510787248264,48.678139530625906,171.17203797454516,81.32940857572738
100.8173374561436,126.91391638793694,207.159804757878,307.0193056593102,49.05432142388088,171.00692772619038,81.33582462898279
100.00245179838274,125.63145519397823,208.81627950859362,307.7564729060772,49.46814026314246,170.86768161099195,81.34071800234305
99.22746127562269,124.44173368050099,210.37441615695815,308.47457222723096,49.917072262504306,170.7519832364075,81.34393160806077
98.49175473127389,123.34432835355125,211.83099530116667,309.1712896555921,50.398345852550236,170.65761336651263,81.34536793231884
97.79461098327926,122.33875276238163,213.1831405059844,309.84394196586817,50.90899440463363,170.58243443349357,81.3449630285575
97.13518923639869,121.42442113970081,214.4282926238908,310.48945184411457,51.44591101619613,170.52431850527955,81.34264887348039
96.51252965020323,120.60059996422952,215.5642101891506,311.10439084116985,52.00587854503284,170.48107568873104,81.33835441987247
95.92559995002506,119.86639748955373,216.58897630109092,311.6850155872557,52.585580773614986,170.45044158438574,81.3320407856425
95.37333853054528,119.22077767928194,217.50099844997376,312.22725117307175,53.18161810864117,170.43011860441482,81.32371666692728
94.85464281074087,118.66253831404173,218.29903338211327,312.7266791346525,53.790538700824115,170.41781176865086,81.31340940467402
94.36832469474153,118.19025947647634,218.9822498417406,313.1785806480034,54.40888259581673,170.41122966500376,81.30113230736589
93.91307408754267,117.80228181056671,219.5502640519755,313.57799020728186,55.0332383082237,170.40807302886373,81.28689269855148
93.48743495528821,117.49671826518797,220.00310360904177,313.9197120938705,55.66030954575828,170.40604466062155,81.27072385471158
93.08978589798032,117.27145017975259,220.34115886025452,314.19835070911927,56.28697156238719,170.40291037070594,81.25269035807767
92.71834109445444,117.12410242277039,220.56518362902798,314.40842012668395,56.91029753783375,170.3965965617014,81.23286255592944
92.37119895059897,117.05204497903392,220.67631338487047,314.54449478324415,57.52756588484423,170.3852653720522,81.21130821886203
92.04642979625042,117.05244241075442,220.67604524102052,314.6013344052954,58.13626880730874,170.36735833000347,81.18812017388922
91.74214888795736,117.12231308975468,220.56618435468155,314.5739754573056,58.73412011248392,170.34163466313765,81.16343567980357
91.4565445813044,117.2585435978724,220.3487837172824,314.45778277036493,59.319050495092874,170.30718612146336,81.13741266034343
91.18791161652545,117.45784905500986,220.0260869450917,314.24844451499064,59.889188347052546,170.26343122784786,81.11019319479077
90.93473920404212,117.7167203710369,219.60047717523517,313.9419425963692,60.442830736156125,170.2101243134583,81.08190424499811
90.69579916294752,118.03140219755572,219.0744280436849,313.53454934075495,60.9784208626378,170.14734794485773,81.05269214897505
90.47015089422989,118.39794260181392,218.4504560449348,313.02285103453755,61.4945529181817,170.07545056496093,81.02273840808282
90.25706809348944,118.81235173504145,217.7310814404643,312.40377619116396,61.98999235902749,169.99497137815908,80.99223348754055
90.05594493510519,119.27081561359529,216.91879262455333,311.67464568392506,62.46367484206119,169.90658559379088,80.96135051084933
89.86623228622484,119.76981586802668,216.01602871610498,310.8332491937984,62.914676276026256,169.81103827171913,80.9302615798359
89.68744270095225,120.30608891101582,215.02524273055724,309.8778880918861,63.34217950693384,169.70906238213072,80.8991734171314
89.51921030665386,120.87650728218016,213.94905448378515,308.80734820779685,63.7454572019466,169.60136097085316,80.86832827939739
89.36132565251818,121.47798025282385,212.79038196137816,307.6208460733889,64.12386916051551,169.4886996151735,80.8379691567855
89.2136972174187,122.10740408873292,211.55246261831343,306.3180169415698,64.47685921871228,169.3720110426627,80.8083212439171
89.07627690963704,122.76164777152565,210.23882234304264,304.89896165677993,64.80394073279923,169.25239834036162,80.77961112220352
88.94900552126201,123.43754911325962,208.8532798150697,303.36429669376025,65.10467500270464,169.13105904379998,80.75208184432528
88.83179427070927,124.131906586401,207.39995987532902,301.7151624675821,65.37865067476714,169.00921733787308,80.72596850851203
88.7245209981195,124.84145687841715,205.8832418146227,299.95319676713217,65.6254641924736,168.8880963655623,80.70146192699085
88.6270274586072,125.56283572167806,204.30765412119325,298.08048346638185,65.84470419632365,168.76890111158843,80.67870847858376
88.53914331236633,126.29254349643301,202.6777904653402,296.0995031471308,66.03595599061022,168.65278001174997,80.65784250883732
88.46074108527317,127.02694975571005,200.99827448515472,294.0131361925651,66.19883628941919,168.54076814955474,80.63900018316649
88.39176487516653,127.76235030232989,199.27373019155388,291.8247453698989,66.33303607773833,168.43374806848138,80.62229277363035
88.3322049548831,128.4950401052552,197.50872363206878,289.5382972207878,66.43833747007471,168.33248209476076,80.60777955861694
88.28207206966923,129.22134128297435,195.70771507936638,287.15840794266387,66.51460356523513,168.2377244459352,80.59548100986447
88.24140778169716,129.93757510711777,193.875081662168,284.690255868056,66.56177129164048,168.15034536153502,80.58541193391663
88.2103039667075,130.64002432937954,192.0151864377107,282.13944895493734,66.57986463135106,168.07140158383487,80.57758469263482
88.18893774643185,131.32492884411798,190.1324152064975,279.51192876250116,66.56901225025592,168.00212376209996,80.57198010159435
88.17765061459545,131.98852943148853,188.23117436495116,276.8138757286622,66.52944665286415,167.94382521057244,80.5685337921753
88.17701109588836,132.6271448469978,186.3158945600922,274.05157831104935,66.46149047538498,167.8978026587015,80.56715849703383
88.18778174916295,133.23723408655448,184.39103244056554,271.23130322386163,66.36556194352114,167.8652955509756,80.56776279286379
88.21081697843591,133.81541730165753,182.46104989869715,268.35921486649863,66.24221038334609,167.84748289539596,80.57023211036201
88.24696793014796,134.35848600324113,180.53038946797298,265.44136831341,66.09214420174911,167.8454894286152,80.57439773379483
88.29703071299511,134.86341866513862,178.60345429814743,262.4837669523251,65.9162163004261,167.86041821535449,80.58004115311674
88.36173308612074,135.3273722583418,176.68458151880523,259.4924115704107,65.71538458667666,167.89339133105824,80.5869323912811
88.44173454013428,135.74765574797837,174.77800217553943,256.47327759887213,65.49069577559469,167.94554001826305,80.59485126415595
88.53761555096746,136.1217607934547,172.88778950390667,253.43225965033844,65.24331813826889,168.017937475901,80.6035661775487
88.64987096433151,136.44747721903528,171.01781890757843,250.3751394830021,64.97459136747773,168.11154140674793,80.61280980826648
88.77893724496604,136.72299281482142,169.17175299702845,247.3075512170124,64.6860364941415,168.22720152929466,80.62229698824397
88.92522226649496,136.94689390727316,167.35301830896543,244.23491725806358,64.3793188326984,168.36570094609945,80.63176820804792
89.08908845571467,137.1181165458957,165.56474746583095,241.1624084431362,64.05620999531354,168.52778042640546,80.64100422961647
89.27082025927253,137.23592063534088,163.80971532586537,238.094975206626,63.71857644609732,168.71414843664206,80.64980166737995
89.47063684728232,137.29989704784975,162.09031697426641,235.03742370749305,63.36837160745784,168.92547704274236,80.65795815973622
89.6887316678825,137.30998835349763,160.40861126599862,231.99450338722454,63.00760796340285,169.16236496539,80.66529663389169
89.92526945821125,137.2664896254662,158.76640162506405,228.9709827569299,62.63833052217981,169.42527859588992,80.67169272612115
90.1803261388289,137.17000919636158,157.16528207754257,225.97166253070847,62.262616108768725,169.71449920926295,80.67706308610298
90.4538218413777,137.02141497643615,155.60661469496915,223.0013070831385,61.882573866211395,170.0301028888613,80.68133384289344
90.74548868518258,136.82179241349016,154.09148506971266,220.06456795852228,61.500313181403875,170.37197190690276,80.68443946072941
91.05486661757921,136.57239825553398,152.62069570648515,217.16597335632147,61.117889038073415,170.739784265799,80.68635398600809
91.3812960611982,136.27459812359623,151.19480032573668,214.309952465472,60.737260496464586,171.1329626891501,80.6871042687687
91.7239064338984,135.929819742778,149.81413609462916,211.50083881710856,60.36028515137854,171.5506683377009,80.68674097488156
92.08165184393886,135.53954406534308,148.47883645018837,208.7428769009204,59.988736987349164,171.99188896024495,80.68530705032609
92.4534135533554,135.10530749461873,147.18884847278264,206.04025095025906,59.62430890946769,172.45551665333213,80.68284636757069
92.83808697859189,134.62870410302088,145.94395301847933,203.39707753749656,59.26859434381966,172.9403191086113,80.67943444504117
93.23457778625742,134.1114154497313,144.74375806981246,200.81732693306398,58.923104770444574,173.44486213260026,80.67518043496275
93.64174434476544,133.5552552042755,143.5876768874837,198.30472626486272,58.589356333226114,173.96746797464763,80.67019381496823
94.05836209381562,132.9621778878123,142.47493509736287,195.86271675623092,58.268957030348666,174.50620152613436,80.66456347707913
94.48312390586374,132.3342461901551,141.4046094519868,193.49447627326745,57.96361587910635,175.0588465827575,80.65837926956115
94.91463747418399,131.67358844269884,140.37565211952452,191.20296358444705,57.67509467559976,175.62287456136391,80.65176193620937
95.35141979728076,130.9823758914985,139.38687729631144,188.99094642735594,57.405164519211255,176.19542053196614,80.64485534280603
95.79196899667352,130.26285458438738,138.43695443700778,186.86099341167994,57.15558463574698,176.7732660170485,80.63779521195467
96.23493577739801,129.51742879904464,137.52446159831408,184.81543673393904,56.928086028539674,177.35284264215673,80.6307060836651
96.6792611896126,128.7487368460994,136.6479718433415,182.8563701675428,56.72433940730045,177.93027412723973,80.6237319255249
97.12417720266816,127.95969157940553,135.80610027044733,180.98571562504634,56.545903128322905,178.50143836185998,80.61704936383674
97.56915471275114,127.15349244165775,134.99750654042614,179.20527859210677,56.394170012978925,179.0620502166249,80.61083762364923
98.01391667058729,126.33358370684705,134.22089553453597,177.51673606782424,56.270333803896094,179.60780941809148,80.60524615708763
98.45848840771592,125.50354723665782,133.47502497919572,175.9216045552278,56.17537605408559,180.13458849932968,80.60040619897846
98.90318422442806,124.66697321276537,132.75873847889966,174.42122296933456,56.11005737598427,180.63856235552882,80.59646836233364
99.34851331644046,123.82736257889518,132.07106367628046,173.01675390390346,56.07490393511131,181.11626220893606,80.59361002204324
99.79507019968838,122.98809753748027,131.41134737578673,171.70920519611786,56.070197966195416,181.56463313760008,80.59200163389738
100.24344993971523,122.15246823125516,130.77937755999082,170.49942751416182,56.095975227417625,181.98116312954178,80.5917822431893
100.69417606133331,121.32368641438086,130.1754892794298,169.3880475471151,56.15201596151716,182.3640731009177,80.59308112701696
101.1476332650564,120.5048485478722,129.60061732048007,168.37536907820083,56.237826663408555,182.7124463973593,80.5960554454461
101.60402288000027,119.69887817309396,129.05623662223059,167.46129646189075,56.35263311557144,183.02617953689534,80.60089232617997
102.0633453152498,118.90847602289273,128.54421012297917,166.64529072251312,56.495398767979346,183.30579170064726,80.60777968093856
102.5253845133787,118.13610169298643,128.06661321615957,165.92632643835026,56.66485214455174,183.5522126633232,80.61689560199963
102.98967521875358,117.38401700211158,127.62560310817805,165.30284067773871,56.85950057551284,183.76662511103714,80.6284298941253
103.45547484468435,116.65436398659165,127.22339449219643,164.77272135546056,57.077634846799505,183.95039326674228,80.64259338626997
103.92179638075135,115.94920304490861,126.862320186672,164.3333628360642,57.31735277213246,184.10506055968835,80.65958621226874
104.38751397216551,115.27048009634653,126.54485390235398,163.98173999605947,57.576619985139594,184.23234605008022,80.67955957618018
104.8514569378151,114.6199507766604,126.27353155630647,163.71445065902708,57.85334520096825,184.33409566995525,80.70261732857114
105.31242942009159,113.99909785829982,126.05085109195215,163.52774034724922,58.145424380422114,184.4122093206792,80.7288465265948
105.76921874642127,113.40906840225527,125.87925390327047,163.41753173006316,58.45074460325964,184.4685847882261,80.75832536085336
106.22066054621781,112.85066092982726,125.76118026571169,163.37944160881977,58.76718526560847,184.50509690554932,80.79109474576596
106.66570989009598,112.32436709938499,125.69908899387019,163.40876557038195,59.09264774976866,184.52358226624588,80.82713884037481
107.10344654628466,111.83041328126032,125.69539865423363,163.50045058157258,59.42510121809772,184.52579204807554,80.86640899843599
107.53303481518469,111.36875283803398,125.75244407717042,163.64910129660237,59.76261340430371,184.51332822891646,80.90886164653713
107.95370476361977,110.9390279411484,125.87249493259745,163.84903070943886,60.10336397352102,184.48759431324302,80.95446122764628
108.36478018931199,110.54054843080672,126.05776701316992,164.09431358794572,60.44566556241818,184.44975612355321,81.003153898605
108.76570949724865,110.17232296616932,126.3104416125436,164.37880935690097,60.78799536451125,184.40069320227707,81.05486035435243
109.15604537084901,109.83314806382525,126.63283097274042,164.69616485443746,61.12900390918526,184.3409385844786,81.10949957581498
109.53538835388255,109.52171298208539,127.02767003092667,165.0398246557216,61.46749072761346,184.27062178249938,81.16699949072635
109.90334690995626,109.23666869403282,127.4982915866345,165.40306249552026,61.80239121984755,184.18944200294283,81.2272684689073
110.25951978938504,108.97664662932273,128.0485531438585,165.77901939065106,62.132801486780714,184.09670464891107,81.29016503706875
110.60346677826601,108.74024386323262,128.68264105640355,166.16072492208838,62.457998773019305,183.99143229223208,81.35551086769904
110.93465460302906,108.52600536475666,129.40492796133196,166.54110400762997,62.77741380736653,183.87254722496567,81.4231309060665
111.25240100507025,108.33242808853379,130.21993249902172,166.91299136223853,63.09057196489293,183.73910941845963,81.49286592641432
111.55585576203964,108.15797994190999,131.13227738554485,167.26916701183862,63.39704773129131,183.59051124027036,81.5645458404177
111.844039506889,108.00110654088557,132.14653416706295,167.6024344510806,63.69644976232557,183.42651095451694,81.63797221675931
112.11590796096884,107.86021956759232,133.26700285307749,167.90577918304987,63.988414112188366,183.2471271813716,81.71294426481309
112.37038309543853,107.73368205899143,134.4975310694096,168.1725763038113,64.2725789350707,183.05250652140265,81.78929546381221
112.60633789724817,107.61979576809104,135.84137114375488,168.39673733363978,64.54855158549289,182.84282594722077,81.86689149301375
112.8225727713935,107.51678800725699,137.3010378696021,168.57277014174315,64.81590982376507,182.61823883741388,81.94560010896114
