HandOpen,HandClose,Wrist Flexion,Wrist Extension,Supination,Pronation,Rest
56.501119350709004,119.8499298707525,71.49461013898505,156.1490543515921,49.37699843228387,85.8373242567226,85.78492064586469
56.504812625231665,119.86434913325681,71.1990263001337,155.48091095556177,49.48577021707498,85.3553762403398,85.73111144438175
56.52640048067035,119.87789667764673,70.91101406053373,154.80628179073844,49.592923289882286,84.87854054777938,85.68082584628067
56.56553415692383,119.88829275901755,70.63048098054136,154.12789413510092,49.69825585737237,84.40698360081839,85.63431155960703
56.62177710187838,119.8933533454751,70.35724325655832,153.44852235827105,49.801544188882744,83.94090441893391,85.59181012977373
56.694647180324694,119.89101897033422,70.09102419595105,152.77099663476835,49.90253787806305,83.48048566440137,85.55357427060044
56.783613386429245,119.87939274819043,69.83144420223749,152.0981250301433,50.000979219812926,83.02585191357032,85.5198385985563
56.88806760065681,119.8567540974343,69.57802782441499,151.43258329038272,50.09662271854907,82.57705588260222,85.49078251895104
57.007319089562245,119.82154943598289,69.33024421403108,150.77687909105333,50.18922877214742,82.13408386206234,85.46653750354228
57.140635787214066,119.77236956081755,69.08755700317019,150.1334163310735,50.27853938221382,81.69685839248734,85.44722671342753
57.28729924971268,119.70791310013037,68.84945094788914,149.50456113284773,50.36426443908732,81.26523167331632,85.43297832943057
57.44662132696857,119.6269427312661,68.61543086972497,148.8926365090044,50.44609101081825,80.83898500870578,85.42389402943984
57.61792251305314,119.52826145770163,68.38501194698861,148.29990039680146,50.52369693254836,80.4178491080719,85.42002029874907
57.800523547064664,119.41072993099378,68.15771842259036,147.72855053342906,50.59674630482287,80.00153325111079,85.42136390354113
57.99377695892063,119.273302878208,67.93308528643837,147.18070697834247,50.66487142866181,79.58973615413475,85.42792516101241
58.1970980062253,119.11504103524103,67.7106547820975,146.65834745432977,50.72766354491342,79.18215174397264,85.43969654711202
58.40994984058625,118.93508793119148,67.4899877099283,146.16324777061104,50.784684257148626,78.77852536087788,85.45662926111898
58.631796022168665,118.73264977308455,67.27070527159213,145.69696373096016,50.835484209700255,78.3787607327582,85.47862057700921
58.862064076970135,118.50701718449896,67.05253377772323,145.26082152634575,50.87960776208552,77.9829923704357,85.50554037015466
59.10014869178986,118.25760874957597,66.83531788874123,144.85587872407976,50.91658456132626,77.59157890478122,85.53725086319554
59.345447928374085,117.98398707439473,66.61900118063512,144.48286585419314,50.94592415285117,77.20507547397264,85.5735846289145
59.597400704457584,117.68585011562091,66.40359098194617,144.1421366724579,50.96711673826376,76.82423297746908,85.61431400343146
59.85551418171517,117.36305013898144,66.18912366154191,143.833642890334,50.979631002201565,76.4499922111704,85.65916202605563
60.119388721542784,117.01565557454794,65.9756391331564,143.55693205563145,50.98290558261925,76.08343415334052,85.70784510003016
60.38872366564308,116.6439957794423,65.7631626592826,143.3111537133249,50.97633963573528,75.72569975961882,85.76008989598064
60.66328290244489,116.24863486275505,65.55169688002061,143.09507199435592,50.95929008568272,75.37792030878887,85.81560443416383
60.942844957597494,115.8303033950687,65.3412417065609,142.90709803030225,50.93107744131953,75.0411951938842,85.87405171409497
61.22719859468016,115.38985173456219,65.13183916456424,142.7453333951205,50.890993436785116,74.71661719806589,85.93507021702297
61.51620458527246,114.9282392771261,64.92360132910615,142.60759767319752,50.8383054948832,74.40529229536625,85.99831419112869
61.80985695269302,114.44652329469504,64.71669761720997,142.4914355259295,50.77226549004344,74.10831259683198,86.06345737742862
62.10827648062368,113.94582503530727,64.51133045621218,142.39412394743832,50.69213356184366,73.82670098237556,86.13016222612663
62.41165893080681,113.42729158218474,64.30773230982108,142.31269456516003,50.59721043057558,73.56135895828616,86.19806971592605
62.720230180188324,112.89206895362861,64.10617648571402,142.2439615759666,50.486857793268676,73.31302548227723,86.26682826739071
63.034211693069295,112.34127400135098,63.90697267845224,142.18454075224923,50.36050561984272,73.08224656703031,86.33611438666061
63.35378380994961,111.77597273672674,63.71044453205992,142.1308632126563,50.21767227307841,72.86935873834774,86.40561003602795
63.67906825321725,111.19721790894347,63.516916046770916,142.07919085218728,50.058006031827304,72.6744853866241,86.4749706899789
64.0101475270702,110.60615290634075,63.32671382183261,142.02562562310018,49.881315737902185,72.49753986449207,86.54383499873994
64.3470862280776,110.00408871780323,63.140159423573195,141.96612156359058,49.68756370614506,72.33823831821157,86.61186663894995
64.68991145287387,109.39248352420431,62.95754326660342,141.89655089860207,49.47683661052629,72.19613980109987,86.67877063752286
65.03856157434068,108.7728627439642,62.77911381042671,141.81284839935051,49.24932491634327,72.07071392258501,86.74426390755401
65.39284514858377,108.1467403867479,62.605108712993555,141.71117231167088,49.00532118618067,71.96139249828296,86.80804739057142
65.75243442537439,107.51556585752127,62.435797323781806,141.58801113350523,48.74523032016244,71.86756842297595,86.86982335302571
66.11687912040905,106.8807088797385,62.27148654258227,141.4402267508452,48.46958177496668,71.7885659013372,86.92933285259204
66.48560807041429,106.24347528733412,62.112494453654065,141.26505772813073,48.17903531181761,71.72362461575567,86.98635847487769
66.85791977568763,105.60511769175537,61.95913235038597,141.06010734006637,47.874382550207955,71.67190000068022,87.04069201570202
67.23301077539742,104.96683244166242,61.811705830152654,140.82332883402736,47.556551395410516,71.6324571524145,87.09212151242335
67.61006172919085,104.329766304331,61.67050841154372,140.55300084470915,47.22660266817043,71.60426032984387,87.14045880974305
67.98831454009799,103.69502866218174,61.535793868408085,140.2476931978167,46.88570373585634,71.58618978233226,87.18556016873768
68.36707577432344,103.06370229565417,61.40774837225192,139.90627424627726,46.535091812644325,71.57709396898414,87.2273018096286
68.74567188071931,102.43687444920803,61.28648740482973,139.52800719366604,46.176064420508105,71.57583392646764,87.26554306419523
69.12341881327878,101.81567922652452,61.172074631280495,139.1126860474952,45.81001304380353,71.58128310423915,87.30012896851979
69.49962673511185,101.20130667176836,61.064538235905474,138.66074472602097,45.43846053731086,71.59231890862927,87.33092542338565
69.87361178369143,100.5949634046533,60.963869496523145,138.17333331706507,45.063059026256205,71.60789239225572,87.35783196458145
70.2446905393187,99.99780883897544,60.87001328829839,137.6523256713109,44.68556608211329,71.62718544088125,87.38075191299862
70.61218203001792,99.41090064090461,60.78286670352088,137.10020973543388,44.30783859459008,71.64973261654369,87.39956659072162
70.9754442997276,98.83517164496088,60.70228383008589,136.51990357882835,43.93183694017229,71.67541670552642,87.41415733839064
71.33391265660264,98.27142888688462,60.6280717142146,135.9145839036259,43.55960465686198,71.7043866150159,87.4244481482871
71.68709455859353,97.72034237714466,60.55997871759433,135.2875739913796,43.19322086984631,71.7369688420543,87.43041085011257
72.03453023637135,97.1824105279776,60.497694409224685,134.6422803969195,42.834758679335806,71.773593217911,87.43203188384868
72.37576476533492,96.65793749564436,60.4408626002281,133.98213853436417,42.48627018701557,71.81474679944058,87.42929460178597
72.71035761355004,96.14709000395648,60.38908530646538,133.3105703932477,42.14977897389137,71.86096311145745,87.42219879501255
73.0379036589675,95.65004979624715,60.34190765854807,132.63098473056763,41.82725341967822,71.9128189667467,87.4107747689586
73.35802311068942,95.1671777126556,60.29880020491605,131.94678499426146,41.520564429605244,71.97090672729937,87.39505722735647
73.67032217415077,94.6991028508466,60.25915575220021,131.26132548480095,41.23145259954645,72.03578549082957,87.37504875494773
73.97436618900608,94.24672319471283,60.222295394619934,130.5778311253098,40.96151848319533,72.10793018187358,87.35072260985734
74.26968826949607,93.81113742346288,60.18746661304767,129.8993375762634,40.71222085950984,72.18768330644704,87.32206028589943
74.5558074699276,93.39354275784778,60.15383329293676,129.22866846327753,40.48486011922589,72.27520879934983,87.28906912455841
74.83222168850683,92.99514560423724,60.12047989448904,128.56843163469225,40.280549641149385,72.37045794073396,87.25175650761895
75.0983786529382,92.6171061033912,60.086444141550075,127.92102233733506,40.100204824110214,72.47316113111741,87.21010630772389
75.3536510195185,92.26050240046267,60.05075800439774,127.28862695995015,39.94457314034639,72.5828425234895,87.16410378704187
75.59732582267613,91.92629977126026,60.012465256223095,126.67322648581212,39.814285883740126,72.69883745529184,87.1137833405174
75.828596761387,91.61533069600303,59.970618138849886,126.07660545862072,39.70988413443007,72.82029977118403,87.0592387464159
76.04654975449037,91.3282960933933,59.924285632889315,125.50034984781207,39.631803375462134,72.94620154321593,87.00059201464518
76.25015101789816,91.06578606031724,59.87258365906519,124.94582249767146,39.58034719083666,73.0753418612021,86.93797540116172
76.43825181913144,90.82830459073773,59.81469758226733,124.41416136661799,39.55567930299104,73.20639680802404,86.8715504611277
76.60960667781512,90.61629132714012,59.749875525204075,123.90633217006793,39.557829628146834,73.33801478165248,86.80152148598698
76.76288858349803,90.4301901935881,59.67741405746231,123.4231777676241,39.58669365190289,73.4688995459179,86.72810792696859
76.89669558092385,90.27060032784594,59.59666686641598,122.96541820119998,39.64202230317972,73.59782897976707,86.65150683458143
77.00955847588469,90.13840676081016,59.50707064180196,122.53367253069597,39.723416589195175,73.7236236969974,86.57189575855759
77.09995624194447,90.03477015330886,59.408156868721804,122.12856091747412,39.83032854177799,73.84510768092451,86.48946984484157
77.16633514158622,89.9610113393871,59.299541139330024,121.750796936698,39.96205866987713,73.96108901704339,86.40445755452411
77.20712632822097,89.91849982545138,59.18091955146852,121.40118320009508,40.11775606543655,74.07036827641322,86.31709221895191
77.22075996892228,89.90858461041451,59.052097546921786,121.08057874963445,40.29643642299624,74.1717561145958,86.22758311058216
77.20567650228263,89.9325377206205,58.9130305168042,120.78993265737569,40.49701506520493,74.26408025596268,86.1361295626225
77.16034653465368,89.9914865432303,58.76383237991621,120.53035151656287,40.71833592267782,74.34619861722845,86.04295643065109
77.0833190026617,90.08634306458481,58.60474741204443,120.30311854239014,40.95918069666051,74.41703874578853,85.94831770514034
76.97328963686053,90.21775734333104,58.436130342699805,120.10967878148315,41.218261927583725,74.4756340409452,85.85246428370891
76.82914745522825,90.38614867533617,58.258465364610565,119.9516411820192,41.49422455808268,74.52111859979216,85.75562651721806
76.64998001852891,90.59183119470455,58.07239352004979,119.8307575570842,41.78566818882654,74.55269996985548,85.65803986125772
76.43506319326018,90.83514016700788,57.87870373416737,119.74883706087893,42.09116710444199,74.56966440478914,85.55997612412666
76.18385739134212,91.11647772420409,57.67829171639745,119.70764081198234,42.409266002023664,74.5714266365712,85.46173386797113
75.89600467980134,91.4363053078483,57.47212029952875,119.70879288683679,42.738465395474044,74.55757016994967,85.36360332436372
75.57132054127767,91.79510455202765,57.26119360162784,119.75369225471077,43.077226438711264,74.52783267156181,85.26585742964355
75.20978830114454,92.19328936106709,57.046532563230414,119.8434252002528,43.42399932483427,74.4820602069761,85.1687754400612
74.81155959988621,92.6310956134849,56.82914589918551,119.97872005418733,43.77724693445695,74.4201911892185,85.0726508660106
74.37694879888731,93.1085109259839,56.610014858573926,120.15997088991263,44.13544243868691,74.34230226137831,84.97775923575809
73.90641506401903,93.6252729981586,56.390104944689156,120.38729234847439,44.497053729277425,74.24867951498001,84.88432696354104
73.40055459613953,94.18090120027443,56.17038072147469,120.66054812011998,44.86054059457797,74.13984714500262,84.79254787494212
72.86013834813123,94.77471867903046,55.95179440881607,120.97932856681346,45.22437541441206,74.01653554001675,84.70262806165685
72.28618665016626,95.40587750526971,55.735255703525326,121.34289728084904,45.587073250814065,73.87962301415823,84.61480010056961
71.6800165454547,96.07341108211848,55.5216187718174,121.75017222479052,45.947206478605544,73.73007949360073,84.52929600603989
71.04322652503129,96.7762902636313,55.311711660190795,122.19977940692527,46.30340396520131,73.56891552496278,84.44633097042374
70.37766352336712,97.51343785726084,55.10638475359528,122.69011640540334,46.65436364175129,73.3971374172375,84.36613017746241
69.68542739673919,98.2836880010348,54.90652714153034,123.21935499905997,46.998887396261516,73.21572671133671,84.28896115639533
68.96889959586024,99.08571738739995,54.71304071486773,123.78541493492594,47.33590628846644,73.02565502252699,84.2151242666755
68.23073923308512,99.91798054670646,54.52681036005529,124.3859704491994,47.66447295907707,72.82790295832214,84.14491901646964
67.47383217436527,100.77866844891258,54.348697330764516,125.0184730547586,47.9837403118259,72.62344989883472,84.07864119400986
66.70124051893121,101.66571403075991,54.17954053612017,125.68014476046137,48.29295259014047,72.41325138317269,84.01661519560706
65.91618574007762,102.57685156496875,54.020141239220976,126.36795684529923,48.591451811013215,72.19823655493482,83.9592065299164
65.12203560352377,103.50967764430263,53.871240313735996,127.07863808844355,48.878688015735484,71.97932093203704,83.90678632107053
64.32226040146105,104.46166133061034,53.733515849828464,127.808709855332,49.15422762508108,71.75740260224875,83.85968960411886
63.5203791578436,105.43013371992701,53.60759798034966,128.5545117069636,49.4177816474182,71.53333642015697,83.81821507390691
62.719928459651264,106.412316239793,53.4940694920145,129.31219900155384,49.66926756964326,71.30792930356911,83.78265029586818
61.92444350624285,107.40539759557102,53.39344198663362,130.0777241437952,49.908855574863985,71.08198912009449,83.75326972975066
61.13742346415678,108.40662494650421,53.30613462899722,130.8468302685325,50.13694698942264,70.85638755435004,83.73029761053995
60.362280190937504,109.41334973908947,53.23248469604222,131.61507076391865,50.35410810830019,70.63207345190848,83.71388482000582
59.60229658421429,110.42300485053175,53.17277988950878,132.3778400581162,50.56101421419832,70.4100338781659,83.7041310904807
58.86061179601425,111.43308227845341,53.12727307243178,133.13041992321266,50.758421189882526,70.1912434446521,83.70111745427137
58.14021335113837,112.44116883418725,53.09616833801929,133.86806771985457,50.94714218057548,69.97662024049046,83.70490073497696
57.44391922829508,113.44498507916965,53.07960616643318,134.58613873435337,51.12800908396287,69.76698161097966,83.71548219176015
56.77438987847274,114.44237527129873,53.07766291011002,135.28019958538752,51.30182866718064,69.56299838529613,83.73280103376513
56.13420535998054,115.43130646998534,53.09034823251291,135.94608787908743,51.469351603993694,69.365161114029,83.75676086278216
55.52594882413955,116.40992502663472,53.117585963550844,136.5799012487305,51.631253327956195,69.17378572021732,83.78724221542944
54.952211919415205,117.37660152038148,53.15919173689225,137.17794999167188,51.78811356634343,68.98907642226688,83.82407649497472
54.415525268118095,118.32990153974096,53.2148724778357,137.73672439213652,51.94039809733042,68.8112110835179,83.8670208658133
53.91828176694984,119.26852218900271,53.28424655993747,138.25288922211521,52.088475378761764,68.64038473240765,83.9157773774895
53.46270456157788,120.19123539688562,53.366855665525875,138.72328426724957,52.232690117519866,68.47679661032959,83.97003531699006
53.05085441149004,121.09682344181962,53.46215811860963,139.14493231354163,52.37346114201665,68.32061639033658,84.02948115685791
52.68462892307662,121.98400082603847,53.569530739667556,139.5150849836323,52.51134553633665,68.171951488881,84.09376917334731
52.36573816940841,122.85134335713167,53.688295051825264,139.83129285182665,52.64704521408754,68.03081267273622,84.1625049406032
52.09569689943358,123.69723681289071,53.81774063514857,140.09143680841385,52.781382993553606,67.89708251867746,84.23527407307417
51.87584799289686,124.5198755711315,53.957119128567555,140.29369926352626,52.915283685810614,67.77050599757845,84.31167925709681
51.70737183025698,125.3173965417397,54.105626501298254,140.43651539992516,53.049755941593915,67.65071202831743,84.39133641047658
51.59125038814847,126.0881510177947,54.262411891476965,140.51854784123475,53.185858937287726,67.53724449022762,84.4738448681108
51.528208980548236,126.83092606276558,54.42661724862068,140.53870320675222,53.324671397967066,67.42957438333298,84.55878580213974
51.518673099245966,127.54496479969723,54.59740773510098,140.49617804177882,53.46729603722318,67.32709337327901,84.6457553848163
51.5627631244022,128.22984939277333,54.77396508039878,140.3904947636048,53.614904510285164,67.22910604396951,84.73438022764543
51.66032113587201,128.8853606532768,54.95546613092966,140.22149265543587,53.7687813202111,67.1348251505632,84.82428774516227
51.81093718131251,129.51135381233158,55.14108330815353,139.98927717703697,53.930324337688575,67.04336507610766,84.91507412248008
52.013965407742475,130.1076611880185,55.330009333592855,139.6941689526975,54.10101106567224,66.95373584810444,85.0063188675502
52.268547711981974,130.67402931212794,55.521474115426535,139.3366847508253,54.28236270729159,66.86484789498712,85.09762821698416
52.57363236805997,131.21008869705688,55.71473245803407,138.91755243728625,54.4759122440944,66.77553971446218,85.1886493192854
52.927960696126576,131.71535163507042,55.909039016221676,138.43776507261293,54.683166258560284,66.68462481642783,85.27904282809844
53.330031930710064,132.1892362062443,56.10363592776366,137.89866094303898,54.905577451889876,66.59092872418616,85.36846279056718
53.778085337785804,132.6311181636016,56.29775268667495,137.3019647137341,55.14455939072495,66.49329382163877,85.45657711514072
54.270135901418264,133.04040554102255,56.490599951381206,136.64974963859626,55.40152093098408,66.39056521930813,85.54309615035244
54.804053918893544,133.41660015499073,56.68135546085506,135.94435360140199,55.677861191951244,66.28158755973297,85.62776415983342
55.37762507016453,133.7593056964285,56.86916684796176,135.18828801722884,55.97492329604927,66.16522493868099,85.71032755252608
55.98855735614724,134.0682019059662,57.05318382698515,134.38414973959138,56.29396035123908,66.04038488181672,85.79053087988963
56.634472862514755,134.3430398134183,57.2325899869751,133.53454320805184,56.63613101257236,65.9060209786579,85.86814735215157
57.31291655822569,134.58366503857047,57.40660161589135,132.64202310536652,57.00248519155295,65.76111534977763,85.94299350705792
58.02136235588724,134.79003088266265,57.57444505974316,131.70906911516727,57.39391443268878,65.60466786922805,86.01490005846914
58.757196693947066,134.96218476385968,57.735352462123664,130.73811318926514,57.811098970584425,65.43571981898972,86.08367850184017
59.51770185804457,135.10024741480487,57.88859169418809,129.7316145606092,58.254508032568644,65.25340711192094,86.14913131388336
60.30007100469159,135.20440056760577,58.033498468200676,128.69212434092833,58.72446069367087,65.05700806588003,86.2110907945828
61.10144573876721,135.27487335008632,58.16947699632327,127.62229627908157,59.221182932415196,64.84597478782077,86.26943007525753
61.91893612476909,135.31191363336762,58.29598061193442,126.52486874931915,59.744820972173734,64.61996141803893,86.3240318256751
62.74961586600441,135.31575100001805,58.41249896937414,125.40265019330225,60.29545409195871,64.37883489119469,86.374764420618
63.590541314978964,135.28657104341335,58.51855313452106,124.25849487675163,60.87313740514509,64.12264733242132,86.42150511441999
64.4388258592781,135.22451650123017,58.61368542427086,123.0952589791551,61.477930559717564,63.851587735735436,86.46417895764698
65.29171990290375,135.12971195961785,58.69744041470979,121.91579261005197,62.10987095773177,63.56594628857341,86.50275892230995
66.14663235141968,135.002292635778,58.769347370173904,120.72303899554035,62.76891910480807,63.2661005092815,86.53723391657239
67.0011014742141,134.84242325667248,58.82891516055908,119.5201973038465,63.45493342836218,62.952504986789336,86.56759920623179
67.85276514423457,134.65029672864304,58.87563535128062,118.31080600347808,64.1676817400837,62.62566750477824,86.59388166488657
68.69935559850865,134.42610428474168,58.90897869694986,117.09869193832239,64.90683903928655,62.286119560278706,86.61615113541382
69.53870239120543,134.16999320646104,58.92838366835564,115.88786615251674,65.67194493955661,61.93440364436447,86.63449056716979
70.3687163931709,133.88204028019305,58.93325662407881,114.68243595749134,66.46236006151888,61.571082660326795,86.64896552069524
71.18735618873976,133.5622426028801,58.9229986078908,113.48653141483916,67.27726317953794,61.19674960412479,86.65963865894365
71.99260390622013,133.21050997273107,58.897043282712204,112.30424983982846,68.11566998535433,60.8120172039517,86.66660864328993
72.78246414503955,132.8266643906734,58.85487755363291,111.13966254758103,68.97642672838036,60.41749622634094,86.6700154176369
73.55496736488146,132.41047325139786,58.796041849627336,109.99688522604934,69.85817070211195,60.013786970316104,86.67000222217709
74.30816352992194,131.96173577774937,58.720134753094264,108.88011628351312,70.75928984310595,59.601491143351005,86.66668777539186
75.04013452293233,131.4803994268843,58.62683648817215,107.79357282271349,71.6779098753502,59.18122416353009,86.66018679917228
75.74904729546208,130.96663287162448,58.51593093406062,106.74137472632758,72.61190493368723,58.753608469212836,86.65064553222594
76.43320519673483,130.42082410444158,58.38730199039272,105.72744956942377,73.55890857150679,58.31925507744334,86.63823871822329
77.09105460606209,129.84356961414167,58.24091575474413,104.75546735577346,74.51632538292016,57.878756179230116,86.6231359873895
77.72117141471057,129.2356999520164,58.0768176247104,103.82878557118929,75.48136994030926,57.43269743112864,86.6054920515091
78.3222606185059,128.59828986506133,57.895146967934124,102.95039610129535,76.45113278887126,56.981672684425234,86.58547478972038
78.89315599729008,127.93260907219272,57.69614329964922,102.12287784747811,77.42263267260313,56.52628118829542,86.56328298856376
79.43280112830922,127.24005447853096,57.480130017837496,101.34836314279327,78.39283283714714,56.06711322066323,86.53912117349442
79.94022087624826,126.52212025722628,57.24749802564961,100.6285254671064,79.35864930541631,55.60474601170184,86.5131668011545
80.41449765340973,125.78040124883583,56.99871803458855,99.96459774607715,80.31698390850998,55.13975408632743,86.48557852617532
80.85475566132318,125.01658664747734,56.734372026295645,99.35742311099816,81.2647711231577,54.672714925067396,86.45653311311881
81.26015114029951,124.23243515798819,56.455164994807795,98.80751330917984,82.19900457904315,54.20419714205761,86.42623441255671
81.6298629934923,123.42976890769593,56.16190371797068,98.31508025543887,83.11673710207711,53.734743529627515,86.39487890599814
81.96308528213433,122.61049846961367,55.85547282539876,97.88003427688986,84.01507548083262,53.264869985655515,86.36262852483134
82.25904471142529,121.77663326727622,55.53683699218579,97.5019732342246,84.89118315085776,52.79508135283341,86.32963282978372
82.51705676208995,120.93024151173428,55.20705657466784,97.18018203820567,85.74228544789105,52.325881679031326,86.29607090921431
82.73658415359961,120.07338807734713,54.86728441927011,96.91363557927585,86.56567152393382,51.8577638838201,86.26215660043177
82.91726072079409,119.20810008265708,54.51873707034292,96.70100432978192,87.35870156262921,51.39119200042966,86.22810998649645
83.05891437151124,118.33636283453131,54.16265983690993,96.54068498074837,88.11883327331705,50.926595284951055,86.19414910490725
83.16163281919661,117.4601054004835,53.800303369507105,96.43085669829168,88.84366231422707,50.46437186353754,86.160516967206
83.22583042083117,116.58116131565485,53.4329114861991,96.36952790984046,89.53094937739968,50.00488549598914,86.12749558665655
83.25224601030261,115.70124763401637,53.06170725821039,96.35454525108186,90.17863205584624,49.54845071150425,86.0953752608009
83.24188112185247,114.82200255459534,52.68787587025455,96.38356981726639,90.78485973230694,49.09531891453567,86.06441575480957
83.19595263633171,113.94504974271506,52.312558820728974,96.45405288237932,91.34805434954293,48.645680342317185,86.03484910256016
83.11590190643288,113.07203611552723,51.93686099878392,96.56324455201514,91.86694079052059,48.19968358034255,86.00691268193532
83.00341960677652,112.20467885508783,51.56185202875605,96.70823269528358,92.34052080853681,47.75745717921909,85.9808567093889
82.86042268541462,111.3448771308761,51.18855085994118,96.88597232603708,92.76803443080809,47.319118533669794,85.95690945121567
82.68898245621565,110.49481516324866,50.817907530609446,97.09328458488872,93.14894696676281,46.8847777593836,85.93524782181365
82.49125448470241,109.65694915025858,50.45080897366618,97.32684852281345,93.48294829388618,46.45455338683349,85.91601315181764
82.26944270788182,108.83389666845626,50.08811437789026,97.58320679655709,93.76995480377725,46.028593605419125,85.89934366620805
82.02578185763292,108.02831693558512,49.730689790224254,97.85877721566204,94.01013086609747,45.607080766781976,85.88537345012274
81.76250903991475,107.24283608461455,49.379419632719895,98.14986710774377,94.20393004973663,45.19021614122393,85.8742084150923
81.48183230921977,106.48001691916778,49.035211694088105,98.45271435726943,94.35213612037847,44.7782035540065,85.86593254211955
81.18592992586095,105.74232985868206,48.699009625142715,98.7635628274163,94.4558767618587,44.37124253778202,85.86064888514817
80.8769770498233,105.03209544538073,48.37179459571811,99.07873024951195,94.51658651490482,43.96952314035823,85.8584993119676
80.55715122199575,104.35142678929016,48.05456296203954,99.39462712990398,94.53593453251322,43.57321459638028,85.85963305799861
80.22859693532335,103.70221331344824,47.748303640059454,99.70773553445702,94.51576009001401,43.182453809859076,85.86416370203439
79.89339314372798,103.08613538684078,47.45400050464975,100.01458360951064,94.45802780317827,42.79734541972893,85.8721648722527
79.55355933681916,102.50466315827765,47.17264266691198,100.31174574766827,94.36477883812417,42.417973372469405,85.88369658918091
79.21107021954718,101.95903169962854,46.905209941638034,100.59587569335072,94.23806862749463,42.044408156003264,85.89881093940441
78.86783610749326,101.4502316862908,46.652637070634015,100.86374759165102,94.07991628011561,41.676700760655294,85.91752007867933
78.52566042753448,100.9790289578432,46.41579062277503,101.11227843661725,93.89228662271412,41.31488082011381,85.93977011592877
78.18622265296942,100.54598054570927,46.19547779288027,101.33853330347598,93.67708687934318,40.958982844694155,85.96545985963087
77.85110361196605,100.15142388671329,45.99246768875107,101.53972183382636,93.43614802317833,40.60909123569203,85.99447869901906
77.52180989993212,99.79545077664326,45.807492372690035,101.71318681765017,93.17119290443861,40.2653646928588,86.0267104352086
77.19975463639702,99.47788095102197,45.641225267829206,101.85639099116719,92.88381561487051,39.92802323947071,86.06200412487233
76.8862138117945,99.1982354450487,45.49426410606284,101.96691290693022,92.57547712086037,39.59732478830913,86.10016459099283
76.58230595662212,98.95572154292122,45.36713119517116,102.0424571887416,92.24749743837961,39.27356060397926,86.14098072713382
76.2890040504264,98.74925447338344,45.260271482615224,102.08087456936097,91.90103672025226,38.957064315070355,86.18424531246778
76.00714386106168,98.57750795958806,45.17403117791695,102.0801751656072,91.53708781340376,38.648208744032296,86.22973208663352
75.73740320899914,98.43895061754459,45.10863220907191,102.03852362240778,91.15649714640375,38.34738466662074,86.27716356613941
75.48026654640822,98.33184714098833,45.06417159743277,101.95423234977416,90.75999225832516,38.054984789459894,86.32622027084193
75.2359994927158,98.25424711505394,45.040646166977965,101.82577411276435,90.34818567395166,37.771409165129526,86.37658363304581
75.0046462542997,98.20400375792282,45.03796847673354,101.6518080805631,89.92155857697644,37.49707538203454,86.42795568811128
74.78604911319042,98.17884153096897,45.055953459769476,101.43120653117788,89.48045292977233,37.232410360303376,86.48003346799891
74.5798695545024,98.17643244455577,45.09429841809098,101.16308308170585,89.02508918812485,36.97782819659517,86.53248494390763
74.38559377538601,98.19443166495012,45.152589618955375,100.84681902466826,88.55559497616359,36.733718531433524,86.58497042796499
74.20253787518276,98.23049087462124,45.23033628778779,100.4820745529538,88.07201820778793,36.50045535301675,86.63718216396522
74.02987185023825,98.28229054568288,45.32699963612161,100.06878015655441,87.57432521413713,36.278406068981326,86.68884591793476
73.86665070616029,98.34757290772909,45.44199544996768,99.60712851763088,87.06241181265926,36.067919772684185,86.73968622947694
73.71184096287892,98.42413443922317,45.57468986922935,99.09759498136309,86.53613850094627,35.86930266489524,86.78941069761956
73.56435307283182,98.50978738805897,45.72441546900512,98.54097553252036,85.9953635099352,35.68280416998164,86.83773488175892
73.42307588117578,98.60234483142281,45.890497171861675,97.93840296168122,85.43995025623389,35.508622763625056,86.8844025458659
73.28688959566558,98.69966806828222,46.072258534941966,97.29132722948646,84.86976298535762,35.346916449140636,86.9291636890277
73.15465576284014,98.79974456344958,46.26900976178645,96.60146875534166,84.28467385243532,35.1977992717569,86.97174099937374
73.02520957249406,98.90072168734535,46.48004229849023,95.87075958887284,83.68457772861025,35.06132626614964,87.01183636916095
72.89737403863447,99.00087633847315,46.70463124098774,95.10130348504252,83.06939598372249,34.93748580193304,87.04917191430421
72.76998750804269,99.09857400479633,46.94202516464512,94.29537244515356,82.43906659101312,34.82620886018968,87.08350927221427
72.64191708421659,99.19225551585863,47.19142335564534,93.45540913455777,81.79353502142835,34.72738145817997,87.1146238632667
72.51204842451912,99.28042767113095,47.451969103823174,92.58399994824521,81.13275420981947,34.640842004871494,87.14227832397596
72.3792729836577,99.3616309433713,47.72277688443345,91.68382585343277,80.4566859768128,34.56636672899946,87.16623894429311
72.24248996008112,99.4344058747699,48.00296808696373,90.757612029074,79.7652942800703,34.50366451910492,87.1863131031571
72.10061307536246,99.4972891308496,48.29168034341827,89.80808013060893,79.05853436952842,34.452393013325484,87.20235589484332
71.95257024875247,99.54882821996202,48.58806070622044,88.83790508989314,78.33635519737065,34.412179890743545,87.21424617383073
71.79731294489162,99.58758173673827,48.891276917860225,87.84969110219691,77.59872493803834,34.38262654419299,87.22188245072459
71.63386372091081,99.61211191158648,49.20054311087529,86.84597505287931,76.84566285199519,34.36329748342928,87.22521426360018
71.46139757062133,99.6210325295375,49.51512444989938,85.82923668645824,76.07725202066005,34.35371769084723,87.22426100646194
71.27931216400997,99.61313568726764,49.83431107923663,84.80188848176074,75.29363414975894,34.35338496177947,87.21908586711724
71.0872469371699,99.58750452966736,50.15739226124317,83.76625075368314,74.49501481228945,34.36178062458862,87.20976454989099
70.8850597158341,99.54352358899014,50.48365796357614,82.72454182026203,73.6816945046943,34.378365109871986,87.19639847364675
70.67279648698138,99.48082971603486,50.81241404663366,81.67889311366199,72.85410087875556,34.402568449972385,87.17915248838126
70.45066322938052,99.39929068725732,51.14297986431574,80.63136326661377,72.01279047873604,34.43379689570317,87.15825865438354
70.2189868970629,99.29901669394813,51.47466859395819,79.58392850005244,71.15842648858364,34.47145788929245,87.13398121598061
69.97817664199127,99.18034947295178,51.806777143427844,78.53846143128484,70.29176694167063,34.51497874128983,87.10659637778788
69.72872832559887,99.04380985302828,52.138592766172174,77.49671925494569,69.41367860323444,34.56380101834787,87.076409268492
69.47129731511205,98.89004770231969,52.46939469209593,76.46034010601718,68.52515191084025,34.617365637753686,87.04376395234777
69.20679164469628,98.7198303101061,52.798436005410736,75.43083458385433,67.62729034957061,34.67511543583517,87.0090123432676
68.93640170038186,98.53404202420934,53.12491899953492,74.40957138707147,66.72128575731323,34.736517244809264,86.9724752966396
68.66154770335731,98.33365096910819,53.44798983987789,73.39777392343373,65.8084061343491,34.80107769301299,86.93444527634243
68.38380067431483,98.1196489751867,53.766760414834465,72.39654376643915,64.88999482359314,34.86833543700539,86.89522102363243
68.10482328235473,97.89300735343006,54.08033338197274,71.4068979587492,63.967459356511526,34.93784470572799,86.85511788954655
67.82633092758986,97.65466520337242,54.38780438613146,70.42978720574855,63.04224598282803,35.00917533077324,86.81443251257332
67.55006448995873,97.40552134285113,54.688250535432395,69.46608639415552,62.11582209163998,35.08193055878752,86.77340688972775
67.27777771991516,97.14640445367509,54.98073405980383,68.51658398230344,61.1896823541764,35.155758323842,86.73223880286567
67.01122845410387,96.87804241936475,55.26432593571575,67.58199168841425,60.26536210515986,35.23034056814691,86.69112004301915
66.75214974683004,96.60106358717647,55.538127279588096,66.66296411207756,59.34443069512734,35.305374969059784,86.65024614441687
66.50220007376387,96.31601860040792,55.80127785612728,65.76010812817138,58.42846553176154,35.38057177243057,86.6097890131557
66.26291739308523,96.02338323379284,56.05296704955219,64.87397904123533,57.51903199787737,35.45566733882768,86.5698835053573
66.0356944322405,95.72353424357948,56.29245935679372,64.00507265642415,56.61768010544124,35.53043374152711,86.53065692782916
65.82176709722191,95.41673066824512,56.51911850576377,63.153817304768936,55.72594059823487,35.60466978189061,86.49226163343546
65.62219712914259,95.10312264357857,56.73240680054437,62.32056249866613,54.84530586962506,35.678185374276964,86.45486472071737
65.43784239814964,94.78276828643395,56.93186730110307,61.50556374757562,53.977208546802665,35.75079988176482,86.41861493773911
65.2693247286816,94.45563301016838,57.11711878542147,60.708969195633905,53.123017768925614,35.822353758327885,86.38364139974239
65.11702033670109,94.121584102578,57.287868349541625,59.93081539432669,52.28404915728852,35.89271336429282,86.35008791318998
64.98110838345514,93.78041467999782,57.44391522654716,59.17103666842292,51.461566142916354,35.96175941066382,86.31812928909021
64.86168088704866,93.43190480996847,57.585133485277055,58.42948185215288,50.65676446252495,36.02937347708131,86.2879427120712
64.75886533198747,93.07588657912484,57.711455065437555,57.705922884104474,49.87075809544953,36.09543592885126,86.25967677543521
64.67291638250677,92.71227055728602,57.82287296844336,57.00005045907898,49.104585197903305,36.159825737936934,86.23346534467187
64.60425957724966,92.34103208438609,57.91945144374517,56.31147268508795,48.359224179268544,36.222408606765484,86.20946557783992
64.5534727639438,91.96219351177433,58.001317539638464,55.63973282251557,47.63559476219978,36.28302011573378,86.18786215414521
64.52121685429356,91.57581722056231,58.068635642859185,54.98433774975806,46.934541905050125,36.34146518757833,86.16883054874555
64.50816382723887,91.18199114394913,58.12159251578434,54.34477387310372,46.256829606300464,36.397544453919735,86.15251356857436
64.51496121894107,90.78080556719775,58.16040427684222,53.72050509175893,45.603161462017674,36.45108844293276,86.13904421291505
64.54222673921949,90.37235895800599,58.18532258904065,53.11097080852676,44.974206456707066,36.50197260446655,86.12857723215454
64.59053534745244,89.95681714499523,58.19662340550338,52.51559555636153,44.37060053122043,36.550120173105995,86.12128048892995
64.66038092629,89.53448145079034,58.19460195791327,51.933799297330516,43.79292726094954,36.595519908137945,86.1173013643122
64.75213461859543,89.10580319123977,58.179599025657716,51.36499497534313,43.241701471935706,36.638256121508235,86.11676051889346
64.86602011041177,88.67135193415278,58.15203514654891,50.80857911828857,42.717365326387586,36.67852128353288,86.11977758285073
65.00210264977248,88.23178772428754,58.112411885527386,50.26393483692649,42.22028697868836,36.71659876312916,86.12647817328845
65.16030546276811,87.78784707090848,58.06127811287008,49.73045411945243,41.75075084054764,36.75283966764564,86.13695819547627
65.34047489677643,87.3403167564799,57.99919249870932,49.20756045217359,41.30894123340931,36.78766618811549,86.15124806498109
65.54245958746459,86.88999646985488,57.92671023384685,48.69471138331105,40.89493414867708,36.821596143292595,86.16932251269087
65.76614115615232,86.4376905720892,57.84439516107288,48.191384786382386,40.50870682922068,36.85524865444747,86.19113609961573
66.01140174332919,85.98424769743878,57.75283074205469,47.69706803251301,40.150150980481435,36.8893130672327,86.21662955708433
66.27805952209559,85.53060190788999,57.652609941894426,47.21126597627334,39.81906915777525,36.92450430598515,86.24570153009893
66.56581274058273,85.07776158816901,57.544318620777666,46.73352468416807,39.515159200310244,36.96152806895924,86.27819663391506
66.87421771614606,84.62676605524466,57.42853421737956,46.26344819287674,39.23801271351831,37.00105574439212,86.31393322200884
67.20269062792899,84.17868811732528,57.3058321878398,45.800696365088776,38.9871409900882,37.04370230663405,86.35272790323886
67.55050260803858,83.73470674236034,57.17677833966322,45.34497880891129,38.762007917997295,37.09001019080959,86.39437961820848
67.91677098580368,83.29616885888932,57.04190816261659,44.896058637631484,38.562041523092226,37.14044813652048,86.43864403801477
68.30049051276194,82.86458421140458,56.901717998638226,44.45375696233679,38.386629265660645,37.195423814361234,86.48524565278692
68.70061142845951,82.4416098145816,56.75667918616676,44.017944439898685,38.23512335865866,37.255292089274285,86.53391380930466
69.11609838791807,82.02907007262972,56.607252166085885,43.58852560353999,38.10685800360081,37.32034635110008,86.58438959967712
69.54592657298794,81.62897057678435,56.45387647830243,43.16543216413068,38.001155362272605,37.39081234168648,86.63639530384289
69.98906480180105,81.24346207187374,56.2969464171266,42.74862574945393,37.917312102736894,37.46688046130931,86.68961703334323
70.44450670374776,80.87476387212669,56.13680022806313,42.33809445357514,37.85458702449636,37.54877324503119,86.74373315993313
70.91132445116033,80.52509517288482,55.97373115683431,41.93383651379934,37.81220879168622,37.636791679089185,86.79845173243726
71.38868289106553,80.19667686371768,55.80799952383174,41.53584350670882,37.78939335278354,37.731304193946634,86.85350662151407
71.8758187305791,79.89179991958422,55.63982595686786,41.14409658572277,37.785346380125375,37.83270847168597,86.90862640008743
72.37202617274387,79.61286940338611,55.46937414597825,40.75857262350043,37.799250359283306,37.941412034458494,86.96352946572075
72.87666034945046,79.36238325903517,55.29674802030798,40.37924709304033,37.830264740407415,38.057836052482095,87.01795219147886
73.38918466857174,79.14290053253558,55.12201177087812,40.006089360686445,37.87755303289517,38.18241281717634,87.07166074437717
73.90927739016288,78.95701797828762,54.94521100912569,39.63905999536695,37.940309082658096,38.31556560160372,87.12442146196508
74.43690939249389,78.80731368609298,54.7663728366545,39.27812195782964,38.01775255650676,38.45769696307835,87.17597016986086
74.97231047874865,78.69625860426655,54.585494817169675,38.92326222976611,38.10910478770338,38.60920498493077,87.22602549156728
75.51587102002401,78.626137550694,54.40254772823742,38.57450326809255,38.21357774481407,38.77050900901062,87.27432729118851
76.06805141490248,78.59898853710501,54.21749211187297,38.23189507628963,38.330385445741435,38.94205417536215,87.32064538536638
76.6293052798775,78.6165439413483,54.03028428230602,37.89550712766145,38.45875428424706,39.12428824370184,87.36475001208929
77.20000871928762,78.68017042256174,53.84086483429203,37.56543638791797,38.59791293968373,39.317628635680016,87.40639332271012
77.78040713263604,78.79081936093466,53.64915719176819,37.24181786762599,38.747075846452006,39.522434821786106,87.44533407034409
78.37057850671222,78.94901301687075,53.45509537660994,36.92481912940021,38.905442184874516,39.73898533843754,87.48137193220919
78.97040058060556,79.1548860842007,53.2586557578403,36.61462269932463,39.07220746468596,39.96746028631036,87.5143435651216
79.57953755202213,79.40827032099631,53.05985894937802,36.311412835291385,39.246569372521286,40.20795063464189,87.54409167105034
80.19748070425733,79.70878603854835,52.858749431791246,36.01537419379352,39.42772033349664,40.46051543487266,87.57045807424518
80.82362682115786,80.0558951133098,52.65539036048981,35.72669317754411,39.61483928144161,40.725259114191836,87.59330951945844
81.45732199462924,80.44889013596935,52.44988883689157,35.44554897897232,39.807098000589065,41.00237943333867,87.61254827193714
82.09783777434818,80.88683981296995,52.242421572676456,35.172095830296314,40.00367495193518,41.29220648200715,87.62808113051852
82.74432499699073,81.36852630424576,52.033227710266814,34.906450729669125,40.203756170393135,41.5952762437556,87.63978687334331
83.39579019507669,81.89240343898574,51.82258044263101,34.64869698517792,40.406521695551184,41.91238854449083,87.64752866146003
84.05108537643586,82.45660519995728,51.61077590220961,34.39889683973416,40.61113780714038,42.24457737764414,87.65119372697319
84.70888679139149,83.05900265283884,51.39815024346287,34.157096269249024,40.816768804278674,42.59301346340789,87.65070492053695
85.36767279707853,83.69725561353815,51.18509405495454,33.92331790346151,41.022595895708044,42.95889609274013,87.64599511525924
86.02574241084046,84.3688224507709,50.97203840462635,33.69755522814401,41.22782221480181,43.34336190520148,87.63699466141566
86.68128987826908,85.0709600852227,50.75942861760612,33.47977662522995,41.4316656209075,43.747434583559816,87.62366261280279
87.33248252132101,85.80074757278965,50.54771460185249,33.26993075871611,41.6333579240118,44.17206304434392,87.60602357497673
87.97748096341813,86.55510891668892,50.33735631449376,33.06794174614176,41.83215344483441,44.61828300298204,87.58416076529745
88.61440570299308,87.33080481246827,50.12881898570435,32.87369705427599,42.02733097304695,45.08743430180223,87.55818071029901
89.2412940767842,88.12440667415683,49.92254975818731,32.68704243789672,42.21818462663882,45.58127497983888,87.52820575518645
89.85608864965035,88.93228246492347,49.71895839514543,32.50778898972981,42.404023431312005,46.10191723416329,87.49440440509706
90.45668076312808,89.75060957577475,49.518421031652274,32.33571943021621,42.58419779936361,46.651667411019204,87.4570078122977
91.04098574585721,90.57541072876774,49.32129252972587,32.17058205987098,42.75813853331254,47.2328879486081,87.41628047881345
91.60699652832824,91.40258914525992,49.12790154632946,32.01207872267589,42.92537429180011,47.84794084258253,87.37248412782674
92.15281137411529,92.22794628114721,48.93852794269184,31.859861828955534,43.08552160782776,48.49918918466125,87.32588712832596
92.67666581961316,93.0472010167233,48.753384502752375,31.713545792073667,43.2382772454448,49.18897473762267,87.27680643653271
93.17695252518948,93.85603067968813,48.572617854017636,31.572721954150236,43.383428907447744,49.91953023659461,87.22562084050327
93.65219725512256,94.65011368938752,48.39632158620924,31.436963541797002,43.52086250211299,50.69286504202552,87.17273705177803
94.10101282978655,95.42514602359132,48.22454438604552,31.30582243165963,43.65054444784374,51.510668326366144,87.11855808099124
94.52207990717541,96.17684162759967,48.05729007786732,31.178834894496745,43.772490613936,52.374232223555374,87.06349260698323
94.91416570956312,96.9009492702788,47.89452450315223,31.05554988833766,43.88675017670832,53.284382861159976,87.00797608454343
95.27614195888684,97.59329716877762,47.73619398608037,30.93556698565887,43.99341449153773,54.24142250013244,86.95245715175979
95.6069698619674,98.24983915141439,47.58223588724211,30.818554636547812,44.09263033784179,55.24509883380201,86.89736175342927
95.90566995688829,98.86667397137133,47.43257345207013,30.704242651965878,44.1845938294988,56.29460653264383,86.84308669762389
96.17131426104848,99.44004768426646,47.287132191751574,30.59241023805301,44.26953157835121,57.38860175355678,86.79002872819594
96.40304678586662,99.96636723775904,47.145917110883815,30.482881936590253,44.34769219455498,58.525209594385984,86.73859642554913
96.60009893473249,100.4422269073394,47.009116979873795,30.375522195582818,44.419349864318185,59.70202833201405,86.68917604434765
96.76177321131678,100.86442509622701,46.87715386322185,30.270221030242062,44.48480022471042,60.916146105407925,86.64209192231357
96.88741244413964,101.2299626417852,46.75065214917235,30.16687954981127,44.544340387486905,62.164173942588995,86.59761235520924
96.97638605005434,101.53604225644385,46.63037589190624,30.0654088897256,44.59825045568294,63.44228162861609,86.55598872456113
97.02809494629925,101.78009009996947,46.51718440632667,29.965742528470916,44.646795551328786,64.74622275617104,86.51747003551276
97.04197104399985,101.95978965813634,46.412011529077475,29.867846016533935,44.69024076368584,66.07135505541461,86.48227546243847
97.01746247394811,102.07310001727086,46.31584372816587,29.771711524674373,44.72885457399149,67.41267919642084,86.45057347702141
96.95402872505585,102.11825604102049,46.229680371575455,29.677344538539987,44.76289644324956,68.76490935316357,86.4225053417167
96.85116471064572,102.09377769249892,46.15448929277986,29.58476074417305,44.792610786761934,70.12255433789795,86.39822085230091
96.70843164533969,101.9984998528757,46.09118190710692,29.49399790290131,44.81823981237641,71.47997509950704,86.3778752302788
96.52546204414244,101.83159602390475,46.04060731616381,29.405126451383836,44.840036356773545,72.83141879189421,86.36159651959112
96.30194335130591,101.59257237435851,46.00354227609094,29.318243535231808,44.85825589744165,74.17106570415915,86.34947689356187
96.03761405344238,101.2812499914128,45.98067327134384,29.233456979962522,44.873138472662795,75.49311094461102,86.34159963137108
95.7322876330313,100.89776637088387,45.97258998828424,29.150877156526718,44.88490584564579,76.79185295927842,86.33805262587975
95.38587873587896,100.44259106135253,45.97979017377407,29.070621245534426,44.89377374378529,78.06174476839304,86.33889802888487
94.99840407198445,99.91652328084928,46.00267454690424,28.992815887856796,44.8999543886423,79.2974029880067,86.34413550350386
94.56997099399838,99.32066369528134,46.04152835123919,28.9175891142156,44.90363792737507,80.49360560266855,86.35370781722756
94.10078295251628,98.65638776232193,46.096509766339246,28.84506462519687,44.904967965247586,81.64530274248764,86.36753702099226
93.59116124878547,97.92534177193525,46.1676550749997,28.77537487086077,44.90403131675464,82.74763686216728,86.38553623409481
93.04155657375819,97.1294479563679,46.25488386247829,28.70868447853247,44.9008650200744,83.79595903532869,86.40758075043597
92.45253820482384,96.2708912617308,46.35798681105873,28.645198376726945,44.895463157704654,84.78584938036822,86.43348630744859
91.82478074162366,95.352086862283,46.476602090758924,28.585147753659395,44.88777113100875,85.71315996387388,86.46303426468822
91.15907020659326,94.37565646043454,46.61020605339579,28.528775598475526,44.87768393505101,86.57406762120443,86.49601367236478
90.4563185365329,93.3444271791766,46.75814938593927,28.476339458997813,44.86506890417983,87.36510440658867,86.53222493123062
89.71756014908685,92.26142992508801,46.91973960431844,28.428119775916347,44.84979925586498,88.08316566862578,86.57144824948078
88.94393298072497,91.12987429482966,47.09431662658826,28.384413357196777,44.83176687833218,88.72552549761575,86.61343242476461
88.13667345052033,89.95311356255942,47.28126907298641,28.345514539201453,44.81087076350904,89.28986551737391,86.65792332938136
87.29713546320633,88.73462670284177,47.47999956562359,28.311706114974932,44.78700796997425,89.77428763668028,86.704683689241
86.42680564836986,87.47801465142335,47.68988409276537,28.283269760494886,44.76008279250928,90.1772985454613,86.75346776779341
85.52729083954591,86.18698295182371,47.91026047021496,28.26049687351003,44.730017087340286,90.4978040026964,86.8039861203841
84.60029404464265,84.86530158193038,48.14044636605751,28.243678547432133,44.696741446054745,90.73515054037497,86.85591247675816
83.64760593149619,83.51676548636027,48.3797550472193,28.23308152571965,44.66017563504794,90.88918548986454,86.90892384659394
82.67110585951029,82.1451778803384,48.62750467846269,28.2289337328683,44.620224196618416,90.96027138179583,86.96271694471574
81.67274764872325,80.75434673120898,48.88307539407267,28.23142873639139,44.57679535222709,90.94923932405038,87.01698062699556
80.65452799431102,79.34806875777616,49.14602551427266,28.240734502408202,44.52982058121902,90.85731743362676,87.07137219969059
79.61846214953667,77.93009811474936,49.41617861954277,28.256988730471107,44.479251775568834,90.68606792751903,87.12554135196088
78.56658510280162,76.50412564047794,49.69362244673335,28.280283208503064,44.425043378939975,90.43734097459733,87.17917372744259
77.50096396437966,75.0737846082925,49.97865895732646,28.310655908500813,44.36714519956888,90.11323473718102,87.231996790682
76.42369304100328,73.6426616682213,50.271744708131344,28.348100150405152,44.3055165241507,89.71605018988087,87.28374883173649
75.336869346995,72.21428424798869,50.573420262899525,28.39257633914801,44.24014368307271,89.24824710115439,87.33416609083183
74.24257456729475,70.7920919944839,50.88423600947288,28.444009787657286,44.17103924598582,88.7124272483594,87.38300846463453
73.14287959535751,69.37942407095373,51.20470178678922,28.502281051827616,44.098228922464166,88.11136254373622,87.43007791506292
72.03985474886703,67.97952864663026,51.53527757325919,28.567225672752752,44.02174908994268,87.44803955219888,87.47519414876257
70.935561338947,66.59556604628456,51.87638474888544,28.638644629238264,43.94165735823974,86.72566902768669,87.51816116769389
69.83203134497464,65.23058780350041,52.22839998854176,28.716310796593707,43.85803515185061,85.94765393908438,87.55877545368104
68.73126232483665,63.887511424164266,52.59162577965612,28.799962457380364,43.77097301360991,85.1175493276449,87.59686583129432
67.63522926306615,62.56911592791515,52.96626032434223,28.889291552386105,43.680557221499804,84.2390269052205,87.63230795202283
66.54588519347027,61.2780506469391,53.35237773337774,28.983940499386428,43.58687585777782,83.31583958026235,87.66499475624745
65.46513918532695,60.0168295164004,53.74990938983867,29.08351127030833,43.49003360051393,82.35180488965386,87.69481091832334
64.39483665014605,58.78780647247134,54.15861674450959,29.18757435095135,43.390151826178254,81.35082411590047,87.7216541924131
63.336763262019254,57.59316082925226,54.578061459341015,29.295664636696014,43.28735304904784,80.31690409346048,87.74547677014723
62.2926568201599,56.43491035048452,55.00759608719154,29.407268965184972,43.181751533330164,79.2541388647655,87.76628978827561
61.26420044097577,55.31492779725372,55.446391015206935,29.521823364498125,43.07346184004253,78.16665567535748,87.7841308549284
60.253001559515056,54.234932045614684,55.89347829413616,29.63873080901801,42.96260980587985,77.05855498036279,87.79904864860178
59.26058571474426,53.19646300768525,56.34777995361266,29.757387329190923,42.84932634521356,75.93386005147237,87.81112404469573
58.28841402213778,52.20087081921583,56.80811965696682,29.877195145474087,42.733728557074194,74.79647552520977,87.82048259943014
57.33789772446489,51.24932956656748,57.273236812550756,29.997562423505773,42.61591072176445,73.6501495045991,87.82726505701827
56.41038652185056,50.34285384468227,57.74180203927332,30.11790702234785,42.49595559834781,72.49843804782049,87.83158942499553
55.50714382701537,49.48229441408411,58.21241829803326,30.237668319830668,42.37394910193626,71.34467583088963,87.83355397437357
54.62933929234758,48.66832104851371,58.683614773436666,30.35631310026774,42.249977302993436,70.19195505529399,87.83327170453464
53.778065205870895,47.9014214936113,59.15386311225876,30.473329040958653,42.12411162522999,69.04311187221869,87.83088057798659
52.954350429132454,47.181923612185386,59.621619728298825,30.588218212641557,41.996410274654984,67.90072286493547,87.82651008307393
52.15915096683093,46.510013707070115,60.08535757189032,30.700502355242172,41.86694738136962,66.76711565944518,87.82025025947831
51.39333383385231,45.88572971418309,60.54356536740171,30.809733066410637,41.735842959584524,65.64439266551413,87.81216677805082
50.65768365975136,45.30894536979105,60.99473187633959,30.915492811224034,41.603264381878844,64.53446065201724,87.80233887247753
49.95292802903228,44.779373703033585,61.437331562412865,31.017386109950365,41.469409666001795,63.439052492463055,87.79086554643064
49.27974666428581,44.29658801051467,61.869810127653714,31.11503504683268,41.33450460122361,62.35973059589755,87.77783723066946
48.63874898538027,43.86003208551795,62.2905712630285,31.20808961923377,41.1988199755777,61.297880718356694,87.7633240219673
48.03044551178995,43.46901025605677,62.69797152521503,31.296242553477406,41.0626816890698,60.25472130150413,87.7474013696342
47.45524418622632,43.122683876201506,63.09032572878428,31.379229467608734,40.926455450131236,59.231342482054636,87.73016862880561
46.91346838654527,42.820096176694236,63.46591946748145,31.456814606509827,40.790522993262435,58.228752985747334,87.71172515804628
46.40536488780784,42.560206003752604,63.823020041716624,31.528783180114406,40.655274780098914,57.24789866599621,87.69213886408977
45.931087691673895,42.3418971765596,64.15987788148564,31.59495505295937,40.52111828503022,56.28965135398372,87.67145885359062
45.49068093013804,42.16396665997899,64.47472192645377,31.655207597311154,40.38847986274583,55.35480348340968,87.64975912936542
45.084082527518525,42.02512826035371,64.76576259627876,31.709483631547787,40.25778952959277,54.44408799346194,87.6271526635446
44.71113575993795,41.924047442088686,65.03121617890933,31.757780211960387,40.1294645043077,53.558199158616986,87.60375731282552
44.37158480394926,41.85937459790792,65.26934932585408,31.800135752402685,40.00391029823553,52.69778645134831,87.57966418619958
44.06505725969554,41.82974510223953,65.47852105773923,31.83662747287285,39.881532173977035,51.86342840543194,87.55495462635045
43.791060299451615,41.833763132272146,65.65720424280828,31.86737119054029,39.762733318694416,51.055608799585066,87.529740860552
43.54900220741467,41.87000332435434,65.8039915266389,31.892512020493754,39.64789637207265,50.27470686656312,87.504172004242
43.338215817132166,41.93702945751124,65.91759478280827,31.91221225890095,39.5373733624933,49.52100610345112,87.47840148661871
43.15796042413878,42.03340062186468,65.99684032117212,31.9266539459044,39.431499753340034,48.79471803661119,87.45256810015927
43.00741728617392,42.157653302609745,66.0406650050248,31.936056582635228,39.330612209431116,48.09600589717473,87.42681328633661
42.88570483620928,42.30828423092235,66.04812517828152,31.940686951371166,39.23504415547429,47.42500944140103,87.40129410460358
42.791904105575455,42.483760378401826,66.0184266490968,31.940847637358303,39.145106796596174,46.78188933290588,87.3761583158131
42.72506419766206,42.68254450251963,65.95096106116695,31.93685956225781,39.061083392069655,46.166875665461845,87.35151052463878
42.6841853485677,42.90310265649527,65.84532312106684,31.92905534419423,38.983243392730316,45.58028003165174,87.32741634275877
42.66820966020052,43.143891072176324,65.701314015401,31.917779016524126,38.91185290572343,45.02247127083153,87.30393754131009
42.6760398699214,43.40335709579679,65.5189567190536,31.903379953404357,38.84716287742609,44.4938518213402,87.28114475877784
42.70656773744302,43.67997017619729,65.29851753404319,31.886198370307152,38.789389052952494,43.994849934358776,87.25908729104614
42.75868125134959,43.97225166970782,65.04050378501701,31.86654935294227,38.738710784321796,43.52590933416267,87.23776605218757
42.83125269742015,44.27877187090052,64.74563399023229,31.84471668255834,38.69528946243231,43.087462437869185,87.21715567894607
42.92313668328279,44.59812630420435,64.4148106415072,31.820960475377884,38.659278410082486,42.67990197978463,87.19725147856167
43.033186255744894,44.92892220499944,64.04911893790896,31.795525958041047,38.63080911352205,42.303570929848156,87.17808137066247
43.16026214344988,45.26978022959057,63.64983688796845,31.76863921468094,38.609973700843454,41.958762393091554,87.15967723622113
43.3032194681374,45.6193311399272,63.218424893825414,31.7404937464258,38.59682500863918,41.64570615299335,87.14205790944393
43.46089069965534,45.976198339610995,62.75648920175382,31.711245776006596,38.59138467374597,41.36454256365604,87.12524729831087
43.63208892534503,46.338983995210015,62.26574207472347,31.681029801190032,38.593636948468586,41.115309529480555,87.10928740667298
43.815626074746504,46.70627641425891,61.74797581088485,31.649982153202846,38.60350844339051,40.897952394751435,87.09421229239433
44.01032018932276,47.07666807749796,61.20504432501388,31.618251571120307,38.62085765707155,40.71233226239912,87.08001214640855
44.21498255986663,47.44875949258265,60.63883838437559,31.586000187953196,38.64548872697924,40.55821008253274,87.06663764727918
44.428404419312265,47.82114591145444,60.05125479274443,31.55341384021794,38.67717176707211,40.43521581972943,87.05404080075093
44.649365099953066,48.192410808410166,59.4441742498702,31.520718681081192,38.715645247520584,40.342830093990266,87.0421958203101
44.87665585882869,48.56114225699118,58.8194578757374,31.48818268692505,38.760606561373116,40.28039801480116,87.03107395188371
45.109092137127114,48.925954898164605,58.17895194594733,31.456097984192862,38.811717671940116,40.24716512895684,87.02061649957786
45.34550724861132,49.285491612714,57.524482409327284,31.424764180699718,38.86863113276365,40.24230056719671,87.01075170266868
45.58475595778414,49.638409447300354,56.8578411218805,31.394487547291586,38.93100968026077,40.26489156024817,87.00143235471492
45.82574665729737,49.9833780324773,56.18078313386857,31.365585411954758,38.99851884309546,40.31393347663593,86.99263889085054
46.067475579200455,50.319101807361605,55.495037754810554,31.338378460062696,39.07080714803113,40.38834520186896,86.98434582063075
46.30903005230693,50.64434370048817,54.80231221561405,31.313173151005635,39.14750338954365,40.487003810750956,86.97650447386195
46.549570846480904,50.95792805015675,54.10427916480153,31.290251681756104,39.22823710987141,40.60876438616872,86.96906538158056
46.788324522898236,51.258736403957776,53.40257498824254,31.26987764114312,39.31265722414799,40.75245563992066,86.961996868204
47.02458837967309,51.54572315776886,52.698836464951505,31.252303680865438,39.400427131918725,40.91688489098669,86.95526352147662
47.257725374500424,51.81794409889594,51.994754029785476,31.237763775430697,39.49120681614602,41.10087717252819,86.94879816746747
47.4871430683971,52.074564858378714,51.292091203486386,31.226454002633698,39.58464767119467,41.303322140875295,86.94251564612892
47.71228168000904,52.31484340533971,50.592658444368055,31.21852287693013,39.68040622438967,41.52318531996535,86.93635099628267
47.93263048771587,52.53811855134779,49.898281543653745,31.214080929540323,39.77815625197196,41.75948024143986,86.93026596172217
48.14775174471178,52.74382354912449,49.21080704385936,31.21321367497683,39.87758163021946,42.01123270382507,86.92421799851769
48.35727829462967,52.93150185620244,48.53213819891873,31.215979263477166,39.97836009344474,42.27745591000318,86.91814350569081
48.56088714081457,53.10079803698605,47.86425120065919,31.222396141106003,40.080161674822094,42.55712942817326,86.91197884053184
48.75828334507963,53.25143373890581,47.20916519209776,31.23244176708477,40.18266553927616,42.84917509397971,86.90567714272251
48.94921103871873,53.383201909956696,46.56889553624241,31.246068540745,40.28557203446145,43.15244069920067,86.89918528355663
49.13346670690578,53.495990431315356,45.945425837882695,31.263217811386117,40.38859328807194,43.465703852152245,86.8924096817577
49.31088819497829,53.58980609669341,45.340695166166945,31.28381475956244,40.4914359423431,43.787686127131714,86.88522052873047
49.481332460587296,53.66476963212358,44.756575801075456,31.30775143511492,40.59379823986423,44.117055571629656,86.8774911147593
49.644670385013434,53.72109477217409,44.19483888853259,31.33487712369402,40.695380519781466,44.452416939285676,86.86911731492158
49.800797624635635,53.75908302720598,43.657134279814656,31.36500534036377,40.79588793762685,44.792315353899085,86.85999087489168
49.94963587224287,53.77913395933,43.14499832203608,31.397927949242927,40.89501664927169,45.135267369298546,86.84996959612832
50.091114747529026,53.7817416954544,42.659864729430055,31.433419445446248,40.99244288157076,45.4797946990557,86.8388922659001
50.22515647996418,53.76746798026277,42.20305141047386,31.47122977616074,41.087835706512394,45.82443142294814,86.8266197072529
50.35168536038982,53.736919494564255,41.77573296884298,31.511081645185044,41.180882995384785,46.167711636640114,86.81304576695726
50.47064803722599,53.690752684790866,41.37892523815532,31.552680903797075,41.271301262361014,46.50816268034543,86.7980683859257
50.58201385816566,53.62968775488082,41.01348638412746,31.59572704150861,41.35882364053527,46.84431475633271,86.78156962848705
50.6857557930948,53.55449934073134,40.68011781393214,31.63990910703195,41.44319147499866,47.17471907416239,86.76343697033747
50.78184373946471,53.46598621390453,40.3793611047632,31.684892681062767,41.52416783564796,47.49795954398343,86.7435933722818
50.87026471005859,53.364955362622176,40.111614873756,31.73031701125384,41.60155702162434,47.81265483017792,86.7219913136213
50.95104468474066,53.252239576439266,39.877180178942474,31.7758100097163,41.67520420705586,48.11745902743844,86.69858534508239
51.02424445475657,53.128721153853995,39.67629637211053,31.821005538937136,41.74497641702699,48.41106014623438,86.67333321934366
51.089938886816,52.99532625833027,39.509134842947205,31.865545615816178,41.810748898451344,48.69217037206973,86.64622830414787
51.148209546145694,52.85299764518432,39.37577046523726,31.909072577152862,41.872410214224004,48.95951646086378,86.61731128910932
51.19915619841671,52.70267941270118,39.27617008635434,31.951229045972973,41.92987209587786,49.21185185386232,86.58663712336019
51.24290210719412,52.54532154863284,39.21020902959747,31.99167064104327,41.983065253637875,49.4479982431437,86.554241055436
51.279578719333415,52.38187952809294,39.17768993479288,32.03007694719783,42.03192717264797,49.666888616093225,86.52015113204456
51.30931003983915,52.21329427460647,39.178335077847684,32.066147864891306,42.07640158920767,49.86757804876593,86.4844274263058
51.33222086378052,52.04047268009936,39.21175685662486,32.09959498997935,42.11644858908048,50.049226824927445,86.44716941399457
51.34845877689888,51.86429085959911,39.27743573833326,32.13015007266563,42.1520447723922,50.2110877394618,86.4084816150193
51.35819895261211,51.68560723571346,39.37472378473847,32.15759212296275,42.18316785323209,50.35251390868117,86.36845112970168
51.36162694199586,51.50525767818614,39.502861551611986,32.1817667343354,42.20978670477196,50.47297065524394,86.32717265633983
51.358928434282646,51.324032966206524,39.66098204437255,32.202580372250374,42.23187580186255,50.57203350163701,86.28478472120328
51.350303022080105,51.14266742313424,39.84810038426646,32.21998415568339,42.249441323988655,50.649392371221175,86.24146562730698
51.33597996279352,50.96185625729966,40.06311773057943,32.23396771876021,42.262529742863904,50.70489478551129,86.19740034531803
51.31621020845994,50.782281003241394,40.30485139746499,32.244563940049694,42.2712166407758,50.738610202987125,86.15277042665866
51.2912463573255,50.604611864389355,40.57206318706956,32.25185049748083,42.27560311555227,50.75086284274472,86.10777600838667
51.26134003554484,50.42949047018922,40.86346162452741,32.25594036323222,42.27583099746564,50.74222600548062,86.06264243533593
51.22675652051187,50.25752281412959,41.17769418541487,32.25697206527175,42.27209292758094,50.71351253468954,86.01758588780142
51.18777756740385,50.089290110902645,41.513351906405596,32.25511208244283,42.26461688649435,50.66576553100331,85.97277866167913
51.14468045698665,49.92535283040525,41.86897708674939,32.25056015857695,42.253638634672214,50.60022628096722,85.92836003641253
51.09771669227735,49.76623352284873,42.243056151801895,32.2435408890782,42.23938886110921,50.51827863346561,85.88447375489633
51.04711449902914,49.612400122238455,42.63400268221671,32.2342834107972,42.2221005494385,50.42139295710977,85.8412767252991
50.99309503978132,49.46427393260601,43.040157223242296,32.223005001629666,42.20201591627778,50.31109322185226,85.79891025677291
50.93587367705458,49.322250060505084,43.45982840436073,32.20990805226218,42.179376210417196,50.188950196305235,85.75748347879123
50.87564211207966,49.186698949651195,43.89135900123519,32.195183818356064,42.15440433558428,50.056575801875304,85.71710032459029
50.812557863233884,49.05794475939729,44.33316462340852,32.17900973384572,42.127299808899025,49.91559702203135,85.67789396578337
50.746758498668775,48.93625017290909,44.78372376546266,32.161537197389315,42.098246737740475,49.76762069289842,85.64002010917434
50.67838229563543,48.821829514263996,45.24155039971122,32.1428803561529,42.06741699337243,49.614209854032595,85.6036233099009
50.607569134616654,48.71487190953687,45.70517814600616,32.12311812449734,42.0349591303615,49.45686845698625,85.56883127763233
50.53444835608536,48.61554327651146,46.17315042339083,32.10230686741248,42.00098672335664,49.29701842326698,85.53578689064625
50.459142190875326,48.52397101509924,46.64400123043514,32.08048655847928,41.96558298599368,49.13596874191183,85.50466544366184
50.38178793054454,48.44024141521718,47.1162326246776,32.05767231675003,41.92881578186847,48.97489358860097,85.47564511407738
50.302548982579665,48.36441605030529,47.58832019670058,32.0338444799617,41.89074204773264,48.814829129411734,85.44887022713172
50.221600786775284,48.29654051288744,48.058769940356406,32.00895340275806,41.85139606493718,48.65667626466947,85.42445778914262
50.1391186485458,48.23662997107843,48.52619671150012,31.982936490904013,41.8107791342308,48.50119826677772,85.40253300646455
50.05529292817079,48.18465288092244,48.989364283422084,31.955729501788465,41.7688653721579,48.34903105946258,85.38323731704482
49.970354207908635,48.14053938441873,49.44717441956671,31.927264712157832,41.72561355306806,48.20072471491405,85.36669541542706
49.88457428734472,48.10420581312864,49.89864272522709,31.89746991419442,41.68096596161088,48.05679431353473,85.35298975445626
49.798243048662286,48.0755633471312,50.34288179773711,31.866278806284583,41.63483804261299,47.917741265908305,85.34217873206961
49.71165403227045,48.05450141136264,50.77907879973726,31.833641288301155,41.587123229695784,47.78403727874076,85.33432829295717
49.62511604002112,48.04086932221048,51.206459509233625,31.79951926786651,41.537721064694566,47.65609370067972,85.32950828321093
49.538968818746035,48.034478672608614,51.62424956347058,31.763873145300273,41.48656405302195,47.53424240970986,85.32776213006792
49.453576431810404,48.035119527977635,52.031647150017164,31.72665718200922,41.43361955601619,47.4187388493252,85.32910053070005
49.36930750770016,48.04256516046609,52.42781575890797,31.68783236165825,41.378877197977836,47.30977435546523,85.33353003702105
49.28652988156161,48.056562495995415,52.81189501030516,31.647383679056794,41.32234766488347,47.20747695294769,85.3410687285702
49.20561976805383,48.07683641844293,53.18301799108953,31.605322975302354,41.26407418080155,47.11189778154479,85.35171843423232
49.12695891449785,48.1031175142433,53.540328097129034,31.56167597361237,41.2041337842922,47.02299992454043,85.36542908388266
49.050910740193984,48.135161239731,53.88299344623545,31.51646949922542,41.14261979808538,46.94066140439826,85.38210267819565
48.97779965724829,48.172736172366136,54.21021000241124,31.46973491374813,41.07962548914698,46.86468233665706,85.40162523928585
48.90791693682885,48.21560537289581,54.52118692415245,31.421524983382803,41.01524550377826,46.79478109335693,85.42387475148779
48.84154233202162,48.26353224876763,54.81512433921542,31.37192297301191,40.94958338568168,46.73058275009654,85.44869340977527
48.77895055588986,48.316302114093304,55.091202590038705,31.321034368591974,40.88274563817596,46.67161739672312,85.47587148534939
48.72039661334217,48.373725968625685,55.34859125812695,31.268977808444955,40.81482463666426,46.61733720641932,85.50517432019507
48.66610810496289,48.435619254136995,55.58646489174159,31.215888776712355,40.74589144129949,46.56713927220335,85.53637672454047
48.61630205202767,48.50178480131719,55.80400962150191,31.161924552220114,40.67600956115468,46.52038280651753,85.56925731801469
48.571203560041845,48.57202131252332,56.000429975696406,31.107255039507464,40.60525298570136,46.47642653391838,85.60356841220903
48.53103760750067,48.64613886902339,56.17497579720517,31.052044390307184,40.533705568951355,46.43471655449933,85.63903537522746
48.496001882005935,48.72395349165062,56.32698115194556,30.99644168269525,40.4614450594786,46.394889091750734,85.67539228572952
48.46625091541768,48.805267142211484,56.45588479922868,30.940588508592388,40.388536277593914,46.35681592880894,85.71240148823286
48.44190045460034,48.88986018240033,56.56122164010011,30.88462899053723,40.31504474876356,46.320577634901625,85.74982783311398
48.4230308409515,48.97749944352524,56.642607488593875,30.828704538333447,40.24105256887186,46.28641641303079,85.78740713449902
48.40967277042515,49.067938340673685,56.699742029676884,30.772937057556884,40.16665602290257,46.25471980282613,85.82485680919267
48.401788457487726,49.16089684842716,56.73242501491274,30.717420242842305,40.091953886620104,46.22603210823471,85.86191414376655
48.399270846579796,49.256039393949585,56.7405597422256,30.662230239205513,40.017049307152895,46.201048249793104,85.89834727657188
48.40195967241227,49.35297520987854,56.724138833252866,30.607444351674232,39.94206420888118,46.18057071802278,85.93392582905335
48.409650605121065,49.45127898019994,56.683242540369946,30.55314716703257,39.86714265580357,46.16546058475209,85.96840042922952
48.42208713837934,49.550504044351335,56.61807253434046,30.49942154422737,39.79243577243782,46.15660866870389,86.00152968279376
48.43895579628402,49.650175935065086,56.528995501492865,30.446343794033154,39.71809055096525,46.15491316989356,86.03312304490778
48.45990532107968,49.74979114975769,56.41655182118403,30.393996442263123,39.64426138244113,46.16124412223174,86.06304455166584
48.48457660977177,49.848841516744315,56.28142375444772,30.342484948326106,39.571130703206016,46.176402998297014,86.09118368020788
48.512612616423276,49.94684130463842,56.12439346568709,30.291937964663646,39.498912034355385,46.201097664836595,86.11744915280241
48.543644565451906,50.04332725049736,55.94631286859089,30.24249561711573,39.42783368198482,46.2359329551458,86.14179969325573
48.57728401290011,50.137842982149905,55.748083162874295,30.194306743201725,39.358125870944924,46.28139867284631,86.16426074871596
48.61313921280578,50.22993942248689,55.53063296307034,30.147539832905412,39.290023485599995,46.33784769609441,86.18489406035529
48.65083466347695,50.319194060358996,55.29489467239451,30.10239044079863,39.22377024631606,46.405482499099364,86.20375768861005
48.69000744874067,50.405221981288044,55.0417960630844,30.05907174012418,39.15960785499288,46.48437262014803,86.22090796687608
48.73029134249349,50.4876639828817,54.77227779472163,30.017796062559007,39.097757122023495,46.57449395390845,86.23643360345457
48.7713189782423,50.56617351965532,54.487315633850464,29.978763616493648,39.03841360967859,46.675752486659476,86.25046596292262
48.812743202765105,50.640430270628926,54.18792046037673,29.94216227732686,38.981763742987184,46.7879771168045,86.26314693588611
48.85424729928562,50.71017016572461,53.87512738460365,29.908167623011103,38.92799824769718,46.91090695239462,86.27460174238782
48.895531577676614,50.7751946881515,53.55000751143941,29.87693397037351,38.8773025775293,47.044195276661966,86.28495767951782
48.93630297687879,50.83534950373995,53.213702224410234,29.84858325268591,38.82983550026123,47.18741807836074,86.29437903540102
48.976289243184745,50.89050425847552,52.86744045931721,29.823207252318397,38.78572211289017,47.34006676194833,86.30306295259058
49.015258143116014,50.940561015298314,52.51251660409709,29.800883695013976,38.74507069580236,47.50153076199181,86.3112015622178
49.053012388738026,50.985475458748915,52.15025102786388,29.781686591983757,38.70799519165281,47.671096864014814,86.31896613411547
49.08936602516163,51.02525641214664,51.78196386519644,29.765679248656348,38.674619522334964,47.847975978511265,86.32652992995216
49.124135618308934,51.059943415918156,51.4089666697811,29.75290530742361,38.645065905343145,48.03133191615141,86.33408229063815
49.15716114340337,51.08959614550304,51.032554410965645,29.7433973122298,38.61944953584516,48.22028469880445,86.34180091523051
49.18832987127434,51.114310983262726,50.65398378513168,29.737196175643128,38.59788559594011,48.413897311126014,86.34981624540549
49.217572448381986,51.13423802348461,50.27444263740334,29.734357792863445,38.58049021787199,48.6111747241218,86.35821570749748
49.244841321621344,51.149570858042495,49.8950301674058,29.73494077051321,38.56736579530252,48.81108307090006,86.36707733228428
49.27010381721705,51.160521591024654,49.516767726866405,29.738994116266586,38.558587464756094,49.01256727764786,86.37647870138724
49.29335392005971,51.16731061639808,49.14063361349156,29.746558658284325,38.55420718551598,49.2145489142385,86.38646448361716
49.31461511707665,51.17017091238488,48.767588263360864,29.757671932585463,38.55426468229914,49.41591721967974,86.39702005059297
49.33392016654419,51.16934134666762,48.39857488743055,29.772361059451953,38.55878390399296,49.61554160280405,86.4080916034059
49.35128850028439,51.16504300217793,48.03451194270468,29.790626090973287,38.56775679349531,49.812309768949,86.41962390370456
49.36672390802239,51.157464555371085,47.67628528523253,29.81243039282974,38.581140036634984,50.00516065488867,86.43156229374543
49.38022396077439,51.14677523087613,47.32473058959723,29.837706859224454,38.59887765553562,50.193087892986725,86.44382351190825
49.3917765214961,51.13314555990677,46.980609376394106,29.866367901823377,38.62092561830013,50.37513457998724,86.4562874877781
49.40134105911086,51.11674611027936,46.64460452606174,29.898302392161085,38.647251649124186,50.55042082439918,86.46882553312433
49.40884040161586,51.09772907163254,46.317351584132936,29.933362854382967,38.67782209820924,50.71820331847845,86.48131916630123
49.41417879633233,51.076224079088895,45.99947936943304,29.971363519723255,38.71260325554145,50.87791397015766,86.49363738431538
49.41726503167698,51.05235820321935,45.69161992219697,30.012098831171507,38.751573612566716,51.02914444937478,86.50560725662636
49.41801152810337,51.02627296667691,45.394390912882386,30.055364660315117,38.794721270779625,51.17160499663877,86.51702932427845
49.41631519207723,50.99811627608052,45.10838822186597,30.10096024635516,38.84202182026451,51.305101026569865,86.52772796607901
49.41205028516752,50.96802741736196,44.83420182748324,30.148673696098193,38.893420994198095,51.42953365189515,86.53757550419368
49.40508303362463,50.9361442757455,44.572426847718305,30.198273028587913,38.94883956624751,51.54489526121445,86.54646597766651
49.395284513360224,50.902625850127684,44.32364764854512,30.249516824008328,39.00818672855549,51.65124020518653,86.55428497706933
49.3825221386363,50.86765730777147,44.088409440499916,30.30217352361184,39.07135877860727,51.74864402904574,86.56092080984968
49.36664333190888,50.83143010841958,43.86720211232147,30.356027678506873,39.13822436941168,51.83717681414282,86.56629579340762
49.34747682460323,50.79412852085508,43.66045964896467,30.410870554157686,39.20861899035503,51.916900570562234,86.5703664111869
49.3248510589798,50.755945554367024,43.468557692015885,30.466494244927016,39.28235821883823,51.98787630178897,86.57309233947049
49.298604027358046,50.717105534068295,43.29179937952615,30.522700676082014,39.35925037761979,52.050159622718866,86.57442461657129
49.26857254796524,50.677859434874165,43.130405737526225,30.579311490516808,39.43908913943822,52.10378536889034,86.57432995895265
49.23458134282817,50.63845938418136,42.984528298751094,30.63616276510909,39.521635610065545,52.148759635679774,86.57280568282236
49.19645491258471,50.59914665985061,42.85427062046446,30.693091359492314,39.606616284547,52.1850646955047,86.56985241771473
49.15404334364133,50.56016472277227,42.739690320065804,30.7499314717493,39.693745409479504,52.21266124235546,86.56543939611885
49.10723260816422,50.52177145107387,42.64077749836552,30.806528121406263,39.78274860974823,52.23147856949084,86.55951280090187
49.055932248526524,50.484226925382806,42.55742788264647,30.862754316089358,39.8733641102843,52.24141204161173,86.55203736609128
49.00006741278814,50.447769726083806,42.4894238837494,30.91851410619681,39.96533106291367,52.242360854529515,86.54301318468218
48.93959703950523,50.41261258305938,42.436426096721604,30.97373430942651,40.0583901723602,52.234306382893166,86.53244595927384
48.87454083821111,50.37896271057389,42.39797185722373,31.02836647045075,40.15229773876454,52.2173804611785,86.52031782498362
48.804983931781734,50.34703741700005,42.373472691065395,31.082405095983106,40.246829950762724,52.19187830337527,86.50660520934511
48.73106257229819,50.31705268258757,42.36220794998342,31.13589903367886,40.34176695256292,52.15822893760782,86.49131987215301
48.65296181375306,50.28920138010467,42.363325364136266,31.18893980027564,40.43687585776248,52.11695936022549,86.47451502717531
48.57093144966144,50.26364862618202,42.37585850106804,31.24164249296501,40.53191488935928,52.06866085395216,86.45625347488111
48.48529090734879,50.240541623143244,42.398751504694964,31.294138285670886,40.6266517267594,52.01395068772029,86.43659145002239
48.39640641250633,50.22000882834039,42.43087349589358,31.34657324258043,40.720870106522,51.95343691628653,86.41560049191973
48.30466360285891,50.202141105403186,42.471024538245615,31.399098074917934,40.81436102681889,51.887701628054856,86.39338406210857
48.21046314239153,50.18697898575121,42.51794732286818,31.451847027285865,40.90692171427273,51.81730091124888,86.37005502588629
48.11423176715032,50.174526581719824,42.57034301665697,31.504919250835933,40.9983697427176,51.74276101366222,86.34570717067031
48.0164199632603,50.164774988774816,42.62687854639417,31.558375840557833,41.08854975816169,51.664560247643514,86.32042502217935
47.91748020798717,50.157704599753,42.6861844208283,31.612248935766026,41.177318598417926,51.58311275472419,86.29431337262
47.81785272994637,50.153269639132304,42.746858233198346,31.666545508152787,41.26452685049957,51.498771867241146,86.26749564237083
47.71797809271254,50.15139461763198,42.80749029117898,31.721237706951346,41.3500211274863,51.411844583430565,86.2400811304294
47.618315990278866,50.151989814914565,42.86670501393369,31.77625029937838,41.43366335886965,51.32259445462416,86.21215241376385
47.519340714995096,50.15495983180872,42.92318875539957,31.831460234798776,41.51534032748431,51.23122647828971,86.1837915019589
47.421522371391816,50.16019010127548,42.975691151759655,31.88671090533886,41.59495097932943,51.137872527350396,86.1550993814038
47.325328179057394,50.16753314106619,43.0230207973254,31.941827087722718,41.672389622859896,51.042603543188065,86.126172975718
47.231248380420226,50.17681978745119,43.06405666128043,31.996617072026748,41.74754490146148,50.94546950352801,86.09706902376747
47.13981112171368,50.187884414400656,43.09777252344617,32.05086879001055,41.82030733785944,50.84653279803978,86.06780439883731
47.05156512718501,50.200572013198126,43.1232578668906,32.10435563067751,41.89056574214661,50.745869756613686,86.03838944952739
46.967054355930884,50.21472059191015,43.1397225612978,32.15684940549751,41.95819271231679,50.643562114724816,86.00884181130897
46.8868126728239,50.23014691072288,43.14648881875931,32.2081234976932,42.0230395225765,50.53971830674402,85.97915831054992
46.8113696531029,50.24665701701807,43.14298635472138,32.25794348830576,42.08494894745084,50.43452422728517,85.9492902865287
46.74124193147594,50.2640650714984,43.12875490144782,32.306064128993285,42.143768162789534,50.32827655947758,85.91916862184054
46.67690978705399,50.28219274853843,43.10344067190528,32.352246730137274,42.19934402259319,50.221366898247304,85.88875402012516
46.61880526161008,50.30085387784279,43.06678163138805,32.396283424000245,42.25150756913006,50.114234142376546,85.85805172725647
46.567324955638185,50.31985075054257,43.018591535274325,32.43800478611568,42.30006860705933,50.007316550180704,85.82708433640077
46.52284542329239,50.33898652751556,42.95874643000658,32.47727045746673,42.34482931461967,49.901017633024544,85.79587525146044
46.48571618451496,50.35807121718903,42.88716956479293,32.51396349888552,42.385601118270095,49.795684385035486,85.76446564032334
46.456240021719445,50.37690835950699,42.803819435628704,32.547998700635965,42.4222053855564,49.69159114905564,85.73292333538431
46.43466765017463,50.39527975719094,42.7086896414906,32.57933100167616,42.45446482644443,49.58892979611747,85.70131140686296
46.42120817887601,50.412951660544294,42.60182132994161,32.607948783157696,42.4822064253084,49.48781519711583,85.66964862641203
46.41603023813774,50.429696615016965,42.48332375011539,32.633857883600996,42.505275088683376,49.38830410125006,85.63791130956189
46.41924332214856,50.44530239022847,42.35339136874385,32.65707401363548,42.523537239953015,49.29040735135639,85.60607029133003
46.430881514344584,50.45955910203865,42.212301943091504,32.677628783790574,42.53686828250699,49.19408404045318,85.57410840607515
46.45091172249659,50.47224921682052,42.06039764027294,32.6955752108589,42.54514296058182,49.09923490125649,85.54199561096733
46.47925506729839,50.48316216727807,41.898073292240376,32.71097887103322,42.5482436977095,49.00571555826265,85.50966384715632
46.51579295130823,50.49211890973966,41.72578591078461,32.72390019323292,42.54607492864637,48.91336025469462,85.4770238705181
46.560353387763904,50.4989752970377,41.54406735705277,32.734386494926504,42.538562693853486,48.82199017963171,85.44400278934522
46.612701153450075,50.50360265986899,41.35351855011292,32.742482817935645,42.52564233484489,48.73140463423016,85.41054989616224
46.6725472843423,50.505875981079676,41.15479606315373,32.748247625778774,42.507257541201085,48.64138166495663,85.37660743300627
46.73956342282878,50.50568580574426,40.948617431909774,32.75175403344396,42.483378960602984,48.55170227727397,85.34209807847701
46.81337948144777,50.50295156438041,40.735782894906194,32.753079462551256,42.45402095263667,48.46217532337174,85.3069565109291
46.89357036441938,50.49761155678012,40.51718228192858,32.75230146072142,42.419235773578194,48.37263580560461,85.27116441662727
46.97965884208713,50.489600823217046,40.29377815566045,32.749502955424745,42.379094147025015,48.28292244360536,85.23474296362282
47.07114164296682,50.47884782611049,40.06659899288487,32.74477319386045,42.3336788767614,48.19285997758765,85.19772202784544
47.16751105869313,50.46529643290125,39.83676424754554,32.73819782845402,42.28310206131896,48.102256642609106,85.16013890370623
47.268249377683304,50.448924991760364,39.605510735601314,32.72985007081693,42.22752525250015,48.01090448687068,85.12206961305478
47.372810887387836,50.42973870038755,39.37418208288821,32.71979534066906,42.16715804465256,47.9185706652745,85.08364032242693
47.48061941822455,50.40774773600846,39.144188044362956,32.70810292491562,42.10224078949389,47.824988738610195,85.04499343482892
47.591082865975906,50.38296257904263,38.91696866341187,32.6948479825278,42.03303465859104,47.72986574891135,85.00625193169496
47.7036007766338,50.35541549726654,38.69397957523673,32.68009967235545,41.95982326337572,47.63289964793217,84.96753018024074
47.817553310689334,50.32518049849867,38.47668175201653,32.66390873355595,41.88290875571809,47.53378607199694,84.9289721791602
47.93229136591836,50.29236564049467,38.26651535950784,32.646307991358064,41.80259507385809,47.43220860511034,84.89075881660972
48.04715062116082,50.25708964990036,38.06486635398205,32.62732098450807,41.71917506478824,47.327826736928145,84.85307450436844
48.16147907187286,50.21947443047232,37.87305278925301,32.60696313507507,41.63293751576439,47.220271540613176,84.81608726841189
48.27464734828761,50.17966270986328,37.69233490761689,32.58523357355596,41.54418299020836,47.109143178255394,84.77997510620685
48.386037087087054,50.13783528092101,37.523920636470166,32.562111415836014,41.45322447750729,46.99400472063075,84.7449573902799
48.49503557606846,50.09420264958483,37.36895288608376,32.53756226087678,41.36037047100938,46.874383150829864,84.71128117914749
48.60105363635743,50.04898321708709,37.22850795150784,32.51154291410595,41.26591308922898,46.74979035167971,84.6791805468456
48.703546039653986,50.002397918811155,37.1036252131386,32.483994034767065,41.1701363681423,46.619753972365494,84.64886389659827
48.802008836098594,49.954682031040505,36.99533556575385,32.45482849819536,41.07333003360715,46.48383428724948,84.62053640141434
48.895963011998404,49.90608543985739,36.90465048675523,32.42393288417515,40.97578704255424,46.3416194278362,84.59440887634213
48.98495394640439,49.85685006599581,36.83252117650987,32.3911891583326,40.877789803089954,46.19271671490489,84.57066684601423
49.068571209209246,49.80719084568692,36.779805830907755,32.35650202929619,40.77960662335719,46.036767221379186,84.54943789002341
49.14646197145433,49.75730650395039,36.74726638677609,32.319809851377585,40.68150077064095,45.87348753691679,84.5308019442393
49.21832159361847,49.70740579114162,36.73557901206467,32.28107713313696,40.58373232758957,45.70270570389985,84.51482744731764
49.28387993636419,49.65771390308008,36.74532860363339,32.24028798008217,40.486544520696356,45.52436213246623,84.50157839776789
49.34290687247501,49.60845568449204,36.77698430363033,32.19745041329859,40.39015306172316,45.33848424103361,84.49108293086215
49.395228600835246,49.55984657212787,36.83087995535765,32.15259809097278,40.294755348604795,45.14515964711932,84.48331454409103
49.440726986800364,49.512105851619324,36.90721259523472,32.10577685910502,40.20054732504964,44.944528489388155,84.47821814761919
49.47931838162773,49.465468920447115,37.00604404126649,32.057024430751405,40.10772475824554,44.73680795077576,84.4757436963888
49.51094271216241,49.42017575250388,37.12729198237946,32.006362293445406,40.01647014528035,44.52233359035923,84.4758403282341
49.53558427230456,49.376447984945635,37.27072715385538,31.95380912803838,39.92694938266684,44.30158183178312,84.47842866809121
49.55330050471416,49.33448218202621,37.43599625686917,31.899402609379074,39.839328246344486,44.07517459907734,84.48340402944459
49.56422273371991,49.29446022835698,37.62265356127036,31.843209766174912,39.75378740669502,43.84390078170571,84.49067305548999
49.56853269654807,49.25655078225381,37.830169759427115,31.785329271783883,39.670514296463345,43.6087496057017,84.50017055316464
49.56644824749718,49.22089163979458,38.05791691850153,31.7259014157834,39.58968082184702,43.370910760583484,84.51183100358546
49.558230565041384,49.18757906307357,38.305153134572784,31.66512045639635,39.51143280451831,43.13172722704411,84.5255582518099
49.544189637487655,49.15668914390429,38.571020492988104,31.603231436409484,39.43589854568032,42.892633139158384,84.54124220439051
49.524668693205264,49.128313976046634,38.85454730923813,31.540510658183944,39.36319647473332,42.65511666318402,84.5588037213574
49.50002602943115,49.10257377430027,39.15464166282785,31.47724693560839,39.29342472877389,42.420719532010075,84.57820753523372
49.470643303456896,49.07959976993817,39.470080278405405,31.41373692039709,39.226642553432654,42.191044984343876,84.59943079811113
49.43695089658056,49.05952075106917,39.79951199982546,31.35028805104153,39.1628659761033,41.96774696654661,84.62243860681397
49.399432711080074,49.04247270921103,40.14148751041253,31.28721248531045,39.10208377481138,41.75250789397407,84.64720072981214
49.35860062182207,49.028610637971276,40.49449872713625,31.224810247387875,39.044274319389224,41.54701345618802,84.67371566166757
49.31496988525911,49.01809721261488,40.85699924383609,31.163359983991402,38.989403477020524,41.352914823763946,84.70199633953723
49.26905997530891,49.011079693133105,41.22740146531699,31.103129505471756,38.93741050101009,41.171784057634135,84.73203307236435
49.2214042169534,49.00768498113391,41.60407626580467,31.044390911487007,38.88820497035526,41.00509686153899,84.76378647948182
49.17253959075769,49.00803351816316,41.98538405840736,30.98741940696326,38.841681633538585,40.85425788269168,84.79721779902252
49.12298078588744,49.01224218612454,42.369731553893644,30.932479761218815,38.797734454745466,40.72062887957132,84.83230569831814
49.073209074957624,49.02040545542638,42.75561179375364,30.87981970886242,38.75625216503343,40.60551619778624,84.86901940131573
49.02368662846571,49.032584043906695,43.14160460635937,30.829675772062966,38.717102735840626,40.51012715217832,84.90728508872901
48.97486899923188,49.04882430133563,43.52636218348539,30.782277203704606,38.680130774910545,40.43553123525312,84.94699375144164
48.927191379157485,49.06918513756827,43.90860400275098,30.737835329630812,38.64517880757345,40.382639454357275,84.98803830387246
48.88104358571392,49.09373635901415,44.28711160186119,30.696524832214628,38.612112377438685,40.35218826421542,85.03032545318685
48.83676556952936,49.12253152069426,44.66070896869746,30.65847547397652,38.58082315685361,40.34471591120995,85.07374847256476
48.794666148290744,49.15558917792866,45.0282360240172,30.623781599289345,38.551215925822774,40.3605411787022,85.11816810198214
48.75503411867012,49.192898959614574,45.388534444836964,30.59251422947985,38.52320534743285,40.39976593680448,85.1634337603879
48.7181233321967,49.23443184560972,45.74045659124274,30.56471842937268,38.49672714718339,40.462302702857656,85.20941103117282
48.68413184430275,49.28013097134829,46.08288586161284,30.540399945622507,38.471742145019995,40.54789957218044,85.25597031427925
48.65319966297691,49.329893506585144,46.414745456814465,30.519518802001933,38.448221903893796,40.65614486404917,85.30295184580106
48.6254186591084,49.38357093896712,46.73499320908657,30.501997128353562,38.42613451211796,40.78646749003686,85.35015893314831
48.60083169812125,49.44098726703988,47.04262112011143,30.487728761468016,38.4054518482252,40.93814998008416,85.39738805469065
48.57941776489089,49.50194634125199,47.33666526315699,30.47657661852689,38.38616963787063,41.11034595992976,85.44444764130206
48.56108616364132,49.566216035515254,47.616211111131356,30.468363291688632,38.36831292708429,41.30208635790433,85.49113560996322
48.54569617160169,49.6335117115298,47.88038583078331,30.46287297822847,38.351921130414674,41.51227470758602,85.53721086978072
48.53308417457552,49.7035019398376,48.12834969488855,30.45987011897244,38.33703615197374,41.739685317311306,85.58240717042395
48.523069921649544,49.77582720075366,48.35930345487973,30.459117694696968,38.32371054550692,41.982975500279906,85.62647844909287
48.515445517415095,49.85010547103982,48.57250928463082,30.460378682338963,38.3120210357612,42.240710993028976,85.6692184331657
48.50997682039084,49.925922177114785,48.76730683443759,30.46340740627117,38.30206461976179,42.51138924311555,85.71043489266319
48.50642742783422,50.00282995714989,48.94312618014432,30.467949601031485,38.29394252557835,42.793446052624276,85.7499249705798
48.50457955560318,50.08037110292767,49.0995233862686,30.47375663809273,38.28775592516003,43.0852535207841,85.78749137890824
48.504230069593405,50.15810040424912,49.23623471907219,30.480599688089335,38.283615775690265,43.385129870567226,85.82297324578205
48.50517861958871,50.235585583690046,49.353204456799006,30.488268268207676,38.28164369373125,43.691363117738305,85.85624393791066
48.50723742663849,50.31240013362504,49.450562558688894,30.496555385766477,38.28195383868265,44.00222865874568,85.88718248529531
48.51025801366648,50.388137297962906,49.52857949011625,30.505246634223454,38.284635463628014,44.3159920558687,85.91566715541494
48.51414105951847,50.46243902081419,49.58763893537703,30.51412490915204,38.28975488935942,44.63091277033569,85.94160170614036
48.51881777126481,50.535006231250144,49.628237787853145,30.52298103024443,38.29736695174605,44.94525761611757,85.96492828910613
48.52423186904547,50.60558026277029,49.650985799581655,30.531613291962532,38.30751408638731,45.25730952029895,85.98559860305923
48.53034836842257,50.67392227058881,49.65658289695972,30.539817853723203,38.32021413406841,45.56536017507845,86.00353910409447
48.53717349079133,50.739814113917234,49.64578939238934,30.547385915727908,38.33546002932119,45.86769543206663,86.01865696091681
48.54475347298302,50.80306847045171,49.61941818843341,30.55411082889927,38.35323963764158,46.16259150175488,86.03087457633268
48.5531534261312,50.863522999741306,49.57835094156308,30.559791550990926,38.37355340842506,46.448333124219765,86.04013941554193
48.562448151530525,50.921021578026306,49.52354577227039,30.564224536279717,38.39640839160028,46.723244270453904,86.04639548487731
48.572737344901505,50.97540955047943,49.45601319062744,30.56719514375244,38.421797261251065,46.98571068790393,86.04956383137076
48.58415833315595,51.026551612436705,49.376782669680054,30.568486289110993,38.44968945328664,47.23419756057198,86.04956800463927
48.59687188711709,51.07434724804771,49.28690517198336,30.567904407691522,38.480046989610585,47.46728599493108,86.04637287802966
48.61103548967955,51.11872166992504,49.18750371689513,30.565299838898476,38.51284582195053,47.683723475011014,86.0399850410532
48.62679404926538,51.1596059768099,49.07982529899489,30.560564925815466,38.548076104454694,47.88245206925972,86.030421512528
48.64429016545941,51.196934720646105,48.96524324913958,30.553621367764187,38.585725249951835,48.062601169282246,86.01769998587316
48.66366769256492,51.230661379494464,48.845218917658435,30.544416191988486,38.62577187685226,48.22347494532307,86.0018654978196
48.68505433266104,51.26076446177671,48.721263991754725,30.532926025054493,38.66819945214489,48.364563988002274,85.98300624644628
48.70854084121596,51.287231621428504,48.5949158020143,30.519155307739247,38.7130057228982,48.48556696618445,85.96122652130063
48.73417980489627,51.31004451675181,48.467708152508905,30.50312442812086,38.76018998189696,48.58638657000247,85.93661244513653
48.76199963887404,51.32918905619662,48.34113057311644,30.48486295337518,38.80973329985505,48.6670958105493,85.90923917926821
48.792008037767985,51.34467940615427,48.21659468020527,30.464424457299923,38.861595860987926,48.72790478838236,85.87920751261291
48.8241759531147,51.35656380306743,48.09542591715066,30.441914477947517,38.91573049140588,48.76914575788742,85.84665393128401
48.85842495848902,51.36490766167655,47.97887064095537,30.417503178760423,38.97208886407832,48.791261211449815,85.81171716937892
48.89463972417038,51.36978469856596,47.868092084986685,30.391413446048414,39.03060876064703,48.79477922405421,85.7745088242885
48.932692409103815,51.37129653556419,47.764151130079064,30.36390722517554,39.091200333172445,48.78029024899505,85.73513007200306
48.97244861042785,51.36959796674827,47.66799972086265,30.335288070390707,39.15375199645792,48.74844857905847,85.69370892423117
49.013752890548766,51.36489492811246,47.58050211595839,30.305907075118647,39.2181476582057,48.699991791991934,85.65040333008947
49.05642229106912,51.35742300775629,47.502455105754244,30.276152844250152,39.284270567355904,48.635746122177125,85.60536859854602
49.10026194704426,51.34744182229552,47.43457687514905,30.24642965017231,39.3519910352502,48.55660375327472,85.55874122525802
49.14508128566948,51.33525093107324,47.37747770365074,30.217144170879124,39.421161944472246,48.46349402006082,85.51066118025844
49.19068848743295,51.321194154418606,47.33164636955858,30.188709464542036,39.49163438697771,48.35737526294131,85.46128943872971
49.23687557470767,51.305634529736764,47.29746054677093,30.1615512718916,39.56327348230005,48.23924388914486,85.41078474351306
49.28341915596399,51.288926567067115,47.275195848119914,30.13609874716113,39.63595266286643,48.110134091889705,85.35927093148466
49.33009260479936,51.271416165573946,47.26501258133108,30.11276397999265,39.709533059110846,47.9710945806028,85.30684455299767
49.37666449146965,51.25345809009902,47.26693333262198,30.091931822911892,39.78385236612562,47.823158964755656,85.25361363484583
49.42288002173837,51.2354177968248,47.28084365938474,30.073969150218748,39.85873656817926,47.667343413119134,85.19971160505273
49.46845307333142,51.217650412413576,47.306532752330256,30.059235731784344,39.93401970222115,47.5046847275651,85.14526752236598
49.513087237036444,51.20048323580185,47.34374957235755,30.048076999772302,40.00954722052265,47.3362834396013,85.0903803012056
49.556504741497406,51.18422093553667,47.39223017961803,30.040804063840778,40.08516563273515,47.16330937415392,85.03513945850736
49.598451370980364,51.16915781543674,47.4516882207152,30.037682786747407,40.16072347509211,46.98697757862308,84.97966437070922
49.63868047282668,51.15557207560915,47.52180018468668,30.03894401974021,40.23608854641674,46.80852747113005,84.92410591733768
49.67694780378552,51.14370765594466,47.60220673344557,30.044802282634677,40.311156707117405,46.62920843144579,84.86861248904391
49.71303048090623,51.13376998549596,47.692518645913516,30.05546110729408,40.38583682647451,46.450255145883574,84.81331489582175
49.74674508115916,51.125938195698474,47.79230981562131,30.071104423796136,40.460028574388026,46.272852970047474,84.75834944963248
49.77794045987338,51.120368236695604,47.9011043291888,30.091890391849475,40.53361576835786,46.0981086323135,84.70387427896993
49.80647911008731,51.117175404513546,48.018375934817094,30.11795087540819,40.60647228665305,45.927035607363024,84.65004528374527
49.83223453859033,51.116418557642355,48.14355513174652,30.149384724239404,40.6784598758319,45.76055042906715,84.59698354193695
49.855102160376966,51.11810974004024,48.276024417838094,30.186242227406392,40.74941358533628,45.59946818212919,84.54477994154318
49.87499827324129,51.12223832110412,48.41510227638747,30.228513519248146,40.81913486606983,45.44449463707092,84.49352607297085
49.891841999502255,51.128778148148484,48.56003893152737,30.276131987316216,40.887404899262,45.29622900270067,84.44332037732579
49.90554666588421,51.137672333919305,48.710036504306395,30.32898708017289,40.95400163934739,45.15518106411984,84.39423625130394
49.91603597044765,51.1488270364861,48.86427377737525,30.386930122656548,41.018700105877855,45.021782227468,84.34629882219726
49.92326058908046,51.16213519825321,49.02190983552312,30.449768275279514,41.081263753291864,44.89637832812949,84.29950892272376
49.92718828948009,51.177505101523685,49.18207235455094,30.51726156884509,41.14144985386761,44.77922197268202,84.2538855487851
49.92777651664193,51.194860383624125,49.343856653895365,30.589135282959298,41.199029620681536,44.67048407830377,84.20947212867664
49.92495730764308,51.214121348952546,49.506342421084184,30.66509681884876,41.253799149161075,44.57027539644437,84.16630784118362
49.918650844602304,51.23520113679904,49.668607559040154,30.744838505527987,41.305568848215245,44.478653248642615,84.12441627193657
49.90879132368113,51.25802085744817,49.829722020137226,30.82802673906794,41.35414890352352,44.39560665078943,84.083830361989
49.89533424632707,51.282515429731454,49.988729668094415,30.914295906201154,41.399351401041436,44.32103551026914,84.04460942406146
49.878241769254046,51.30861641880319,50.14464053153673,31.00325868667976,41.44100276760169,44.25474237761571,84.00681375217782
49.85747369063009,51.33623672265874,50.29644678382972,31.094521182402488,41.47894450558084,44.1964424170777,83.97046863112341
49.83299931069672,51.365284811113035,50.44315271930902,31.187684411405286,41.51301961917693,44.145779911779705,83.93556869885809
49.80481081203195,51.39569497947925,50.58380508617676,31.28233345257835,41.54306751366845,44.10233716983374,83.90211654383835
49.77291690950432,51.42743531413818,50.71753060361816,31.37803433845512,41.56894147866184,44.065638774506496,83.87013940231716
49.7373280785745,51.46048632744689,50.843580781025366,31.474349952134265,41.59052979664526,44.03516042904011,83.83966085729067
49.698057509820885,51.49482323384045,50.96135471622486,31.570859797647394,41.60775476619627,44.01033875664101,83.8106721971186
49.65513460734981,51.530423853775076,51.07038186157602,31.667163355403893,41.62055490862164,43.9905756764795,83.78314884553035
49.60860626746951,51.567281720029236,51.17028544550626,31.762869707333415,41.628876769670086,43.97524307234048,83.75709043238544
49.558520836659916,51.605396512742324,51.260756268531985,31.857591581142717,41.63268565823412,43.96370134172387,83.73252932756552
49.50492069124862,51.64475143841475,51.34154336968596,31.95095259545947,41.63197701120109,43.95533817540405,83.70950336797532
49.447860940971964,51.685309479793744,51.41244518407035,32.042597843009226,41.626772064410886,43.9496097375828,83.68804315784402
49.387431773981405,51.72703257853694,51.47328809616681,32.13219305967181,41.61710970194862,43.94605539556108,83.66819450231233
49.323754637488506,51.76989265985482,51.52390198390505,32.21941475890172,41.60305385737271,43.944286464085216,83.65003267780268
49.25696210754121,51.813855625273995,51.56411555134415,32.30395022881895,41.58470816570395,43.94397662018653,83.63363523529692
49.187195383389636,51.858858607146864,51.59377954956359,32.385514918956375,41.5622136204607,43.944862864676566,83.6190475715523
49.11462539765402,51.90480693698478,51.612794054287455,32.46386947518072,41.53572897761822,43.946737824067256,83.60629143351208
49.039466656364795,51.951585534723044,51.6211111807189,32.538818142225885,41.50542244921146,43.94942397430307,83.59540507728704
48.9619631865797,51.9990586092481,51.61872212525159,32.61019547261992,41.47149155579502,43.95275128196518,83.58645681041092
48.88236668806218,52.0470517355515,51.60566139162406,32.677862386666305,41.4341874231484,43.956568893159556,83.57951311913307
48.80093603844547,52.095342392235416,51.58203155282182,32.741717356925214,41.393811746964765,43.960788031232184,83.57461118298765
48.71795286005082,52.143678343491466,51.54801596473515,32.80170643428755,41.35069198380869,43.965412706271486,83.57178042685044
48.633722807583396,52.19180370205843,51.503870501703716,32.85781626548618,41.305165708458425,43.9705301800156,83.57108529652427
48.548554450337306,52.239461977562954,51.44993978648994,32.91005467001971,41.25758651376161,43.97627895169237,83.57263067109542
48.462742432851655,52.28638097934285,51.38672494430163,32.958438583995715,41.20833205743774,43.98281678068119,83.57652797620548
48.37657608801997,52.3322709598086,51.31494718620738,33.00299878185012,41.15779377885101,43.99028983053816,83.58287489501772
48.290357559097465,52.37684648543726,51.23554336475183,33.043785874138756,41.106355602740074,43.99880031566136,83.59177158748199
48.204400258373255,52.41984562863291,51.14960785263302,33.080861112202186,41.05438392838802,44.00838032314489,83.60333269872082
48.11900884614888,52.46102347056547,51.058334354710134,33.11427901069921,41.00223310278305,44.01899287760184,83.61766158663866
48.034470472939645,52.50013585048286,50.9629810245795,33.14407904476181,40.95024678155101,44.03058060194868,83.63481841826223
47.95107107559406,52.53694117550906,50.86484387184753,33.17029046929505,40.898741832036926,44.04314166721718,83.65482705540701
47.86911353955466,52.57121532045553,50.76521837225349,33.1929378925836,40.84798817782822,44.05677555004399,83.67770470767573
47.78891225533829,52.60275216566136,50.66535303908853,33.21203722189508,40.79820752550531,44.07167627413457,83.70346294077889
47.71077254333914,52.63134603671326,50.566415408832995,33.227589928485294,40.74959297894645,44.08810878936351,83.73207649999401
47.63498083486168,52.65678514815234,50.469478690958546,33.23958892102041,40.702325606379276,44.10639628595441,83.76347072986151
47.56180909238743,52.67887500502537,50.37551448122896,33.248030955954135,40.656568872801444,44.12690453509523,83.79754894748655
47.49151182427221,52.697468359652504,50.28537546676661,33.25291818692412,40.612451213145015,44.15000791629244,83.8342143258215
47.42430710217287,52.712468669269654,50.199774701783404,33.25424608413976,40.57006106505842,44.17605137367157,83.87334833352601
47.360364791456554,52.72381398382485,50.119289919571436,33.251994536228395,40.52946045337715,44.205336415322286,83.91477687986443
47.29982203617564,52.73147394959228,50.044410647716816,33.2461345882353,40.490697522637554,44.23813852087572,83.9582769108965
47.242808009308554,52.735465658057194,49.97559862803294,33.23664147018112,40.45380148566848,44.27472754651511,84.00361988140864
47.189446272768905,52.735860174240415,49.91331117906068,33.22349668835326,40.41876996530061,44.315362318945965,84.05059595974583
47.13983692774033,52.73276287542601,49.857980207767305,33.20667898581768,40.38557096285344,44.36027008276043,84.09899147445235
47.09405103607439,52.72628721613391,49.809984241246745,33.186161954649535,40.354163525865786,44.409639154327785,84.1485615139575
47.05215033901209,52.71654768220144,49.76964237292465,33.16192809115198,40.324515040130365,44.46362576464081,84.19904593736871
47.01420534136035,52.703666497095895,49.73722083317148,33.13398409837136,40.29659622737374,44.522351675623106,84.25021026035846
46.98028668147345,52.687768410573504,49.71293232529134,33.102358635057435,40.270365345773484,44.58588351385837,84.3018547880523
46.95044405511041,52.66895976164261,49.69694074656816,33.0670871126214,40.24576796987628,44.654211419472844,84.35378532672146
46.924701096177955,52.6473193320186,49.68939339996411,33.028203650772525,40.22275681009483,44.727244116054024,84.40579651875801
46.9030655607393,52.622918774552886,49.690457736242465,32.98575012052248,40.20130667655988,44.804814042328005,84.45769137911515
46.88552976860156,52.595849218283554,49.700321843250016,32.93979070358568,40.18140502018521,44.88667539818864,84.50929577793046
46.87205295163629,52.56622195823662,49.719165305420944,32.89041455988638,40.16303014481286,44.972495592559966,84.5604326563709
46.86254814019043,52.53415107365724,49.74714078186499,32.837727902098386,40.1461434469077,45.061856593278485,84.61088605878278
46.856893342262865,52.4997512466704,49.78437767171573,32.78185270621406,40.13070219335764,45.15426918081274,84.6604060095243
46.8549529108297,52.46315586916271,49.830980065171985,32.72293787714909,40.11667083261174,45.24918336256258,84.70874938668551
46.85658087187834,52.424525638298064,49.887001002942746,32.661168025602855,40.10401154398121,45.34598513588317,84.75569990072448
46.861605292205496,52.384031335380925,49.95241307436833,32.59675601631853,40.09266465125417,45.44399052366103,84.80104113953759
46.869821176212376,52.34183302071248,50.02710722932826,32.529925482818975,40.08254293519076,45.542448697845856,84.8445257844847
46.88100619286638,52.29808199439588,50.1109214888479,32.46090372161082,40.07354513799568,45.64054878104802,84.88588818452321
46.894938127661405,52.25293683674377,50.203663682845516,32.38993426942642,40.06556879825599,45.737419615680565,84.92488223689712
46.91139002092339,52.20656343112183,50.305100111363934,32.31729161762978,40.058504854280855,45.83212350074081,84.96129009675495
46.93011207188343,52.15911418804625,50.41492531636453,32.24327814123074,40.052224923352114,45.92365592958536,84.99489486159612
46.950831120191616,52.11071707341359,50.53274671256112,32.16820923402397,40.0465850562866,46.01096456164531,85.02546956654804
46.973278996737655,52.061494781886715,50.65809336856609,32.09240408355158,40.041445462116585,46.09298432585748,85.05281178585027
46.99722172785839,52.0115902981638,50.790426032695414,32.016185257348994,40.03668044270954,46.16866454705053,85.07678110765272
47.02245910430003,51.96116483468619,50.929127787944495,31.939876942901087,40.03216634446663,46.236974085864325,85.09729044164307
47.04880586513103,51.91037242727836,51.07348540479285,31.86379439097609,40.027766544807236,46.29690254963938,85.11427193932155
47.07608649534153,51.85934423031852,51.222685771200716,31.78822880430042,40.02333542338656,46.347480498384954,85.12767517379613
47.104146094013664,51.80819727103858,51.37583363099938,31.71343854119848,40.01873573913051,46.38781127050536,85.1375034350935
47.132850864727565,51.75704582712248,51.53197163055251,31.639653370326712,40.01384524569937,46.41708718496242,85.14383223368105
47.162067930794464,51.705991730475546,51.690085891179066,31.56708701830248,40.00854492145239,46.43458344393166,85.1467793071095
47.19164854382706,51.65510415628804,51.8491076261648,31.495943678572694,40.00270878758764,46.439653251302914,85.14646951597058
47.221437395917235,51.60441856910435,52.00792811988652,31.426412032114392,39.99621335495574,46.43174169163292,85.14304545552649
47.251293468615756,51.55396123515122,52.165418749172545,31.358660697298333,39.98895534094244,46.41040390683908,85.13670513989497
47.281091217765464,51.50377129006116,52.32043561287607,31.29284861041104,39.98085319565378,46.37530768198321,85.12770851675931
47.31070080759688,51.45389752454239,52.47180915237716,31.229139148139673,39.97183185041928,46.32622586865676,85.11634576556314
47.33997733132095,51.40438690049653,52.618338172169885,31.16769889904493,39.96181637888457,46.263039097480195,85.10292176596877
47.36877639456075,51.355294134644886,52.75879847887364,31.108683376886297,39.95074915385442,46.18576892743668,85.0877824335276
47.39697550637955,51.30670544558885,52.891954310399164,31.052227633554367,39.93861042144667,46.094650375000015,85.07133597599845
47.42447368389974,51.2587422616275,53.01655945854086,30.998449174787122,39.92541851432292,45.99022947416861,85.0540282566312
47.451176380293276,51.211536419671376,53.131362350992596,30.947452212900814,39.91122071198502,45.873460859903226,85.03630518361582
47.47699266129539,51.16520783957828,53.23514831032086,30.899321573569413,39.89609852462162,45.7457909297199,85.01861308242503
47.50184567606508,51.11986939586142,53.32681844181614,30.854111399175334,39.88018054910185,45.60921602342141,85.00142448572932
47.52567212158224,51.07564198650043,53.40545143759591,30.81184445640123,39.86363712361773,45.4663005985204,84.98523515535186
47.548403521636374,51.03264948505785,53.470312009275275,30.7725255542478,39.84665381260912,45.320170209846616,84.97052207205785
47.56995345099713,50.990997630230844,53.52083994752567,30.736152581726532,39.829407290119306,45.174511436576154,84.95771120597423
47.59023057300339,50.95076903136054,53.55666414621962,30.70271214612351,39.812061077358656,45.033549209870664,84.94718731560368
47.609161282307255,50.912045780978296,53.577627491643014,30.67216977267322,39.794771475886485,44.90196484737602,84.9393132608836
47.626691610491626,50.87493198564241,53.58378137541513,30.644470753234135,39.7776835795034,44.78483588471235,84.93441424192473
47.642768503658154,50.83954980738803,53.57535015321929,30.619549150359827,39.76091642697412,44.687698843947544,84.93274022490984
47.657330864089175,50.8060227313561,53.55270807098746,30.59732990820652,39.74455650320414,44.616671015668935,84.93445652167553
47.67032565099822,50.77447617705401,53.5163874499987,30.577721793155327,39.72866970603527,44.57848014765393,84.9396705898205
47.681725997450904,50.74505305303003,53.46708199670581,30.56061748002828,39.71331519186082,44.5803756155656,84.94844722517222
47.69152598695147,50.71791345235626,53.405611634217095,30.545910449900624,39.6985412909554,44.63003192061488,84.96078427675353
47.699722682747726,50.69321082855797,53.33286723196771,30.533514204135255,39.68437052963605,44.73554235604038,84.97658751710685
47.70631325102763,50.67107674723203,53.24978353658127,30.52336581237323,39.67079893380345,44.90548967823208,84.99569180240138
47.7113093258548,50.65163782905127,53.157372874284135,30.515414827976276,39.657817583772335,45.14899221794667,85.01791036716207
47.71474229628636,50.635041193074194,53.05679268484651,30.50961208915365,39.645433400173935,45.47564927900584,85.04305316316281
47.716645911010566,50.62145278079831,52.94937548869413,30.50591013169042,39.63366711877118,45.89543001803289,85.0709016172914
47.71703814470608,50.61103409194714,52.836598039792925,30.504270766689917,39.62254025011712,46.41857262807004,85.10118960115472
47.71592784515901,50.60393203547984,52.720041790196895,30.50466414712528,39.612078862553005,47.055460563688136,85.13362560487387
47.71333607846435,50.60029280035894,52.601382117920494,30.50705615988591,39.60233534780821,47.81645881495692,85.16792584081504
47.70930091847896,50.60027246553931,52.48237776483879,30.51140019314527,39.5933998026584,48.7117767044701,85.20381303898677
47.703861583553596,50.6040211881036,52.3648273095061,30.517644546644682,39.58538739159263,49.751373363716695,85.24099255088373
47.697052531654826,50.61165504683932,52.25050671188276,30.525743546466607,39.578422951006736,50.94487090646523,85.27915573796437
47.688925010359824,50.623244607264624,52.14111996110177,30.535654423053636,39.5726421444802,52.301472973611894,85.31801736474857
47.679570569846064,50.63882347284823,52.03827213722265,30.547322490616068,39.56819715128568,53.829908815908894,85.35733606433563
47.66911593027126,50.65839191464923,51.943449240798856,30.56067587462772,39.56524657192579,55.538473115972764,85.39688904918685
47.657699530885914,50.68190251431108,51.85798976215938,30.5756420860744,39.563933840422436,57.43519987733912,85.43643943617872
47.6454642584123,50.709248765366965,51.78305648527402,30.592170079833956,39.56437777051762,59.52801335971642,85.475742822784
47.632574324940954,50.74027909867462,51.7196321378789,30.610233358666317,39.56668483362434,61.82468433112107,85.51457929574833
47.619227155082754,50.774823333700056,51.6685440659305,30.629815632067327,39.570963256084255,64.33266539112438,85.5527590407238
47.60563806860206,50.81269958366184,51.63048967181203,30.650902652321744,39.57731803732509,67.05897700847407,85.59009004452385
47.59201424528356,50.85369563151879,51.60603424097528,30.673493310349244,39.58583603591387,70.01014267316222,85.62635349082362
47.57854680570152,50.897552588731834,51.59559017899932,30.697615538761838,39.596583265200316,73.19205358968483,85.66132029434776
47.5654209397918,50.943973239416685,51.599409611742615,30.723326326267067,39.60961384332511,76.60976531580896,85.69477954410479
47.552817705740445,50.99264068636169,51.617599548611935,30.750699542269544,39.62497043607287,80.26735444394981,85.72653283296714
47.54089573320002,51.043219792645544,51.65013408154505,30.77982092805573,39.642669639189165,84.16789755179379,85.75636396284001
47.529774471180005,51.09534445716631,51.69684351243975,30.810792120358823,39.66268876093192,88.31353402963886,85.7840348790753
47.51954190910048,51.14861756494685,51.75739542962027,30.843727061724877,39.68496634513291,92.70556461341887,85.80931935786985
47.51027512111302,51.202628775471126,51.831294374307795,30.878737506459935,39.709405821370986,97.34450012345685,85.83202615294537
47.50204303152424,51.25696478828478,51.917901342371366,30.915928968809855,39.73586733760039,102.22996378189035,85.85197953098836
47.49488772630176,51.31119733651146,52.01644967403815,30.95541974603455,39.76415407582665,107.36050978076102,85.86899041894038
47.48881433770595,51.36486706415264,52.12604704944293,30.99736108127532,39.794015091129715,112.73349207403926,85.88286320422885
47.483808989212136,51.41748685770089,52.245682116112455,31.04193240280295,39.825170719947884,118.34496425387694,85.89342732731583
47.47986322856661,51.46856091017962,52.374248208708224,31.089317758963677,39.85733704129523,124.1895617543835,85.90054412536546
47.47697502141316,51.517594115903364,52.51056882549351,31.139689650001824,39.89022789147984,130.2604569018429,85.9040757375312
47.475134246725936,51.564082601563605,52.653410126314675,31.19321326571154,39.923544766284785,136.54946881216685,85.90385989392695
47.4743222070962,51.60750882937112,52.80148773486196,31.25005673931667,39.956981002939706,143.04728973795113,85.89972586316203
47.47452651788967,51.64736194298464,52.953481059216834,31.310385675961594,39.99024676348812,149.7437530853162,85.89152517558223
47.47574377302158,51.68316604541821,53.108054666232675,31.374343181926996,40.0230914512203,156.62806239548405,85.87913025489156
47.47795918577099,51.714485190541446,53.26387102357598,31.442038469495362,40.055300857898104,163.68890563862226,85.8624075509757
47.48112879960286,51.740906689830396,53.419582900497716,31.51355717638172,40.08667520117253,170.91444676764525,85.84121435219977
47.48519243662434,51.76203300724285,53.573818040201466,31.588976921085898,40.11701307173318,178.29225221037234,85.81543015506557
47.490107046880844,51.777495700256814,53.72518441898006,31.668366415957884,40.14611660960339,185.80924938286887,85.78497572512674
47.495862249028235,51.78697003421896,53.872304339358024,31.751773077945604,40.17380565978647,193.45179933108577,85.74979033311413
47.50246599905693,51.79016914595959,54.013847663682995,31.83921746566629,40.199917605289514,201.20582347489025,85.70980219233276
47.50993115829729,51.7868320218102,54.148534658112986,31.930694766562507,40.2242942870562,209.05683288494745,85.66493896927167
47.51828766196893,51.7767341064941,54.27512089555635,32.026168637350864,40.24678109257796,216.98986227779966,85.61516675077863
47.52760112552574,51.75971602546554,54.39240273049396,32.12555489030717,40.267246686039336,224.98945593393293,85.56050317433036
47.537967091393256,51.73569483905868,54.499256798619754,32.228710777005304,40.28559971761359,233.03973287525193,85.50098969572821
47.54948695275369,51.70464574086942,54.59467960163861,32.33544155321309,40.30178080217104,241.1244159879779,85.43667172657467
47.562256822558425,51.66658576081862,54.6777909067194,32.445514323499005,40.31573984543616,249.22679268409584,85.36762398499108
47.57637623501496,51.62158615301974,54.74781085187185,32.55866111512018,40.32742726077277,257.3297017450686,85.29398775279591
47.59195026249861,51.569794238618115,54.80404869367353,32.67457193834701,40.33681048694478,265.4156036627338,85.21596797044398
47.60906969866943,51.51142986667172,54.845919335256895,32.792896776817294,40.34389351346545,273.4666986216206,85.13379943068387
47.627791036313354,51.44675816494879,54.8729626544906,32.91326449559833,40.34871356593975,281.4650406490035,85.04773528946592
47.64814306485308,51.376071799810816,54.88484043491923,33.03530144581178,40.3513236432886,289.3926190213389,84.95807074792553
47.670151579310705,51.29969805903938,54.881332560418,33.158630691447286,40.351789250881254,297.2314102458157,84.86515488867563
47.69384905401457,51.21800801367946,54.86236707737279,33.282857081578534,40.350203121819746,304.9634249276582,84.7693598082753
47.719259952993596,51.13140509016624,54.828065828946265,33.40756070352497,40.346692663382285,312.57075967042147,84.6710410013256
47.74638957469716,51.04030606590818,54.778754798324265,33.532308842578914,40.341406538252095,320.035660933439,84.57053531175434
