HandOpen,HandClose,Wrist Flexion,Wrist Extension,Supination,Pronation,Rest
71.33031765338525,97.36994269135462,75.34048470268944,126.88010139059125,74.42874432760902,75.76301806260034,84.33145020986598
71.31001321466368,97.12807275191794,75.60815858669876,126.10475112654919,74.96365646786653,76.33041182308455,84.38453437840876
71.30034039544115,96.87572109833096,75.89548592736743,125.33445471660791,75.4849910491439,76.83187047786173,84.43678749737138
71.30172776455913,96.61274238026479,76.20249301850623,124.5714883368589,75.99163364483472,77.26491734239379,84.48830301408111
71.31457143056669,96.33903093732177,76.52904475264556,123.81807581428208,76.48250983985832,77.6273832036779,84.53915897895965
71.33931344682658,96.05452751069677,76.87484360542452,123.0764420261065,76.9565694866821,77.91746284073746,84.58943751329942
71.37650282480345,95.75920870687665,77.23942943852151,122.34888696092166,77.41280091349165,78.13373368844111,84.63923414845173
71.42677045152777,95.45308027678428,77.62215661391147,121.63782719093906,77.85029287988553,78.27516191543472,84.68862758602124
71.49074585114847,95.13620351456179,78.02216920051552,120.9457709076945,78.26831469130487,78.34112526729974,84.73764601053122
71.56897992951997,94.80877900237674,78.43839996393643,120.2752309834754,78.66634740762301,78.33143161827404,84.78627753874692
71.66191275712517,94.47123338595571,78.86958012069864,119.62863153213826,79.04405597667761,78.24630634388326,84.83451085636999
71.7698851392584,94.12422734615065,79.31424105358421,119.00825630161269,79.4012773702101,78.0863624567132,84.88234873101685
71.89314843830778,93.76858530550452,79.77072703753532,118.41623514669058,79.73806742995424,77.85258077327846,84.92977815603997
72.03183971208315,93.40521281074956,80.23723675186831,117.8545456342331,80.05474094829657,77.54630459245854,84.97674612984405
72.18594819239577,93.03506410027045,80.7118634050349,117.32500929620694,80.35183971340615,77.16923020832867,85.02318125507448
72.3553072614862,92.65917019941503,81.19259841653361,116.82926889939655,80.63006279663861,76.72337768031683,85.06903151781849
72.53960078286671,92.2786707034974,81.67731726791634,116.36874694701878,80.89022042221035,76.21105185440302,85.11426489921385
72.73835792306372,91.89480519566497,82.16380257254455,115.94458977258297,81.1332130478124,75.63481187519061,85.1588377328305
72.95094427206548,91.50889851392543,82.64982165807258,115.55760450265186,81.36000542100933,74.99744621082392,85.20268375092282
73.17657398804717,91.12237846436345,83.13320132827126,115.20820194269862,81.57158621395403,74.30194201526285,85.24573999823286
73.41433690636931,90.73679298484336,83.61184243161789,114.89635330574157,81.7689211656895,73.55146135236987,85.2879639250455
73.66320790037605,90.35377762507113,84.0836942656553,114.62157004085397,81.95290529022698,72.74934237797262,85.32930966114246
73.92202944076664,89.97499494600153,84.54674245604868,114.38293505176284,82.12431686437633,71.89910730218187,85.36969834966582
74.18950419045932,89.60211898510921,84.99901974475772,114.17919729319426,82.28377529874831,71.00444320990763,85.40903076701736
74.46423997732309,89.23688104307799,85.43860703530622,114.00887684697652,82.43171000522237,70.0691535991065,85.44722937492487
74.74483089890623,88.88110498391458,85.86360783529223,113.87031387563442,82.56835768290087,69.09710423257563,85.48425312797099
75.0299102153053,88.53668889166339,86.27211735988249,113.76165733913936,82.69379415641971,68.09218285028527,85.52006903789616
75.31815491612646,88.20557382989612,86.66220973527382,113.6808384624791,82.80797236661311,67.05827467831827,85.55462915442405
75.60827987442664,87.88973226995587,87.0319410052754,113.62557829581722,82.91073209373965,65.99924057188827,85.587891919734
75.89903539605606,87.59115572538532,87.37935211118302,113.59345223295844,83.00178617800346,64.91889149266045,85.61985782199316
76.189187840419,87.3118186960801,87.70246840086334,113.58199941214808,83.08072005202982,63.8209683484133,85.65056703435953
76.47749642459851,87.05363237564318,87.99931755287844,113.5888436121461,83.14702410536817,62.709132051147826,85.68006494965408
76.76274261319824,86.81841463096006,88.26798612830818,113.61177613038697,83.20013331217346,61.58695648534509,85.70838869018374
77.0438223508766,86.60786920681399,88.50668920264518,113.64876732731116,83.23943995795632,60.45791431894012,85.73558993231671
77.3198208362191,86.42354823610107,88.71380633415978,113.69792599048199,83.26428792649409,59.32535381457305,85.7617474150872
77.59000954447647,86.26679823248182,88.8878832359077,113.75744871190874,83.27398353711565,58.19247967462766,85.7869366680136
77.85380120574689,86.13871389623833,89.02763172793706,113.82558853004312,83.26782735544849,57.062353379076164,85.81119136401455
78.11071812353882,86.04012586802165,89.1319337354399,113.90066544303937,83.24513485027994,55.937907281346355,85.83450554535769
78.3603895846726,85.97162164780937,89.19983297688877,113.98112699448924,83.20522960391695,54.82194884498742,85.85686744727896
78.60257579790365,85.93355782679225,89.230513401996,114.06561578911345,83.14743377357306,53.71714729474028,85.87827113376123
78.83720777236924,85.926034642455,89.22328092301132,114.15297577574994,83.07108129554858,52.62602351047749,85.89868870060701
79.06441344854241,85.94886013241145,89.17756054134604,114.24218743227486,82.97554172650754,51.550960928531396,85.91804831963154
79.28450241435254,86.0015405950445,89.09290249492479,114.3322865991948,82.86022594751498,50.49422462598482,85.93625701729624
79.49790999023104,86.08329126571357,88.9689860946277,114.42231729826186,82.72456911288764,49.45796388247117,85.95324049020712
79.70511916776711,86.19303967916034,88.80562827529475,114.51132710926105,82.56801308428948,48.44420136639553,85.9689460116621
79.90658652780155,86.32942172681885,88.60280722947473,114.59839523082019,82.39000815108476,47.454845739853766,85.98331014053544
80.1027014528952,86.49079127272115,88.36068288745301,114.68268170169021,82.19002751320437,46.491747661790065,85.99624459410276
80.29378291821672,86.67524779456778,88.07958707373018,114.76346993865602,81.96757163277077,45.55675942847888,86.00766010237737
80.48008054869463,86.88067966578494,87.75998567626804,114.84017384948251,81.72215626672853,44.651746184698375,86.01748415395252
80.66175214351904,87.10482405998587,87.40243787867331,114.91231119194151,81.45330325864232,43.77855255430386,86.02563850619904
80.83883184448821,87.34532943806582,87.00757583227082,114.97948415532193,81.16054988821858,42.93896291417192,86.03200783064162
81.01121425992758,87.59980607314951,86.57610914682779,115.04142038153918,80.84346631643545,42.134671505464524,86.03644694212538
81.17865219744765,87.8658595398963,86.10883241314764,115.09806108191037,80.50166200147804,41.367252718497454,86.03881766302692
81.34075029006625,88.14109721160423,85.6066162881524,115.14960685428308,80.13478339965098,40.63812451216728,86.03900251183791
81.4969496219748,88.42311311637152,85.07039687380934,115.19647588994579,79.7425189378574,39.94851671800187,86.03687742841264
81.64651768333,88.70947880171927,84.50118573468404,115.23922664647104,79.32461117159356,39.299468251562885,86.03228879930052
81.78856163018934,88.99775238838336,83.90008700062607,115.27849659446828,78.88086075506965,38.69185729832771,86.02507640312287
81.92206027729878,89.2854944390891,83.26829505007223,115.3149435726574,78.41111983510497,38.12643022211495,86.01511664570589
82.04588785292137,89.57028771776166,82.60708289312866,115.34916606004667,77.91529341655897,37.60379948363878,86.0023302438491
82.15881941001575,89.84977148825465,81.91780863480103,115.38162126526342,77.3933600316574,37.12442302720388,85.98665219088689
82.25954435357667,90.12168236433769,81.20193211208301,115.41258325317189,76.8453950062251,36.68859353019997,85.96801505518657
82.34671181795972,90.38387553788871,80.46101027904386,115.44215025887411,76.27157679338822,36.29644496220389,85.94636688125088
82.41898671239294,90.63432592721439,79.69666651674521,115.47025890903373,75.67218617634161,35.947958939032695,85.92168383276761
82.47507805371733,90.87114035688589,78.91056196728368,115.4966819494351,75.04762040247779,35.642954688864236,85.89394540267232
82.51374108183433,91.09259700559588,78.10439289553833,115.52104414866237,74.39841803554448,35.38107112350232,85.86310172209824
82.53378408135303,91.29718598593205,77.27990382645952,115.54286998219953,73.72526744656972,35.161766521565404,85.82907998257939
82.53408556035038,91.48361260351396,76.4388859997075,115.56162485372602,73.02899052490669,34.984351048334254,85.79182282466968
82.51359898653948,91.65076519806115,75.58315049169839,115.5767396979579,72.31052849217055,34.848032784593585,85.7513048722512
82.47133684436001,91.79768646452438,74.7144978453385,115.58764492170066,71.57095335055521,34.75193954903032,85.7075067429392
82.40635664401665,91.9235626352354,73.83471565816285,115.59380434198818,70.81148714314057,34.69510632188647,85.66039096127152
82.31777355335515,92.02770431853118,72.94560587477453,115.59471317570701,70.03349577215401,34.67645185712487,85.60992129729608
82.2047910008243,92.10950671133347,72.04900257891885,115.58985535623724,69.23845803793904,34.694768288783905,85.55610041098133
82.06671557227594,92.1684189602283,71.14675818793006,115.57864796369056,68.42794204321441,34.7487249403418,85.49897272073716
81.90294508995444,92.20394818662605,70.24073351880367,115.56040724483692,67.60360641852222,34.836870422705104,85.43859324886357
81.71295689477697,92.21567546140722,69.33282087768595,115.53436996121468,66.76720510512337,34.95762873150818,85.37501459383049
81.49631960496552,92.20324641665528,68.42496689940616,115.4997728898521,65.92056987846348,35.1093114060228,85.30831153320763
81.25271279556407,92.16634116079732,67.51915524024085,115.4559449492146,65.06557987240004,35.29015831112382,85.23859850957341
80.98192522517492,92.10466289857968,66.61736237787615,115.40239530573041,64.20414473750775,35.49837883949728,85.16600440568317
80.68383346999336,92.01796097530013,65.72152574747376,115.3389145651329,63.338203446898845,35.732161402855155,85.09063591254436
80.35839127780325,91.90605410182908,64.83354033779717,115.26563565276358,62.46971534170546,35.98965573904513,85.01258018331033
80.00564607090293,91.76882010222506,63.955264183744504,115.18298845319251,61.60063353123299,36.26895186780162,84.93194100462968
79.6257621974228,91.60616877657088,63.08850512125244,115.0915898886125,60.73288175568834,36.56807144167359,84.84885373376652
79.21902276299748,91.4180347597651,62.23498880523427,114.9921554797901,59.86835338667163,36.88497357506835,84.76345661538687
78.7858162643746,91.20439223660472,61.396331375113895,114.88545791637463,59.00891803678653,37.21756806083652,84.67586233895894
78.32663517539066,90.96526067864957,60.57403119804178,114.77229744257232,58.156410650280876,37.563729367242196,84.58617418093039
77.84208649579284,90.70068823527492,59.76946974963898,114.65345312817094,57.31260550073507,37.9213116814285,84.49452498002464
77.33288764762374,90.41073842699424,58.983904562206554,114.52963173500538,56.47920079160472,38.28816937862087,84.40108419825377
76.79984020542263,90.0955075196321,58.218457925402234,114.40144185690782,55.657825451425076,38.66217973966454,84.30602929221615
76.24380782953413,89.75516159243092,57.47411973338422,114.2693823367556,54.85004821327309,39.0412607927503,84.20953231294799
75.66572013516351,89.38996336274629,56.751762316560274,114.13381544697705,54.05736740378202,39.4233955861284,84.1117835340703
75.06658605501974,89.00028844353173,56.052146453425266,113.99492122750068,53.281190454331835,39.806673190830466,84.01300924606794
74.4474868478842,88.58664947752476,55.375934764534556,113.85265899448191,52.522825857733864,40.189320787277396,83.91344882598926
73.80955021288676,88.14972502240369,54.72377536576262,113.70676880790182,51.783488035214354,40.569699263356995,83.8133241392108
73.15393332339802,87.69037724728915,54.09645686511143,113.55681484766583,51.064294686315996,40.9462736432918,83.71284980309893
72.48182718142657,87.20965142731316,53.49502165299937,113.4022243936638,50.3662483511375,41.31758728681997,83.61226970415963
71.79446373338132,86.70876888664388,52.92075749386265,113.24228737518048,49.69022064832439,41.68225517612502,83.51186415949572
71.09310580581042,86.18913411135811,52.37511965200243,113.07614045570277,49.036959371448596,42.03896909662124,83.41191873146164
70.37902826916991,85.65234343469425,51.85965917797698,112.90276701774421,48.407109729378476,42.38649697946891,83.3127053335719
69.65351343801605,85.10016141964451,51.37596503154766,112.72100425667878,47.80122244992753,42.72367367953308,83.21450483699884
68.91786177000394,84.53447701128769,50.92559945599662,112.52954006650981,47.21974363530973,43.04939601428356,83.1176334700119
68.17339407973876,83.95728287467216,50.51002840688875,112.32690892510499,46.66301082909025,43.36262541836123,83.02242942028931
67.42143412936568,83.37067599603988,50.13057560857581,112.11150393139775,46.13126851834831,43.66238889912568,82.92921948032637
66.66329306020283,82.77683576919267,49.78843076100776,111.88160015166372,45.62468277539099,43.94777491554318,82.83831751066755
65.90027952396817,82.17796741375436,49.484698330270845,111.63537021224009,45.14333415001825,44.217929232935106,82.75005592946052
65.13372391864732,81.5762487280822,49.22042566933222,111.37088713354653,44.68719937477648,44.472053526354756,82.66479725890605
64.3649830291123,80.97380996722084,48.996575447666956,111.08612950177132,44.25615116487468,44.70940380253295,82.58290179979781
63.595419845239206,80.37272767696656,48.813970206725145,110.77900301357825,43.84998845052275,44.92928706484115,82.50469566896574
62.826392114659946,79.77500008687909,48.67324449221188,110.44737207272608,43.46847310012049,45.13107080334083,82.43048561010815
62.05927023445745,79.182509658008,48.57480932598078,110.08908293950525,43.111340855505745,45.31422643648137,82.36059803857428
61.29545743491899,78.5970036134208,48.51882623406302,109.70197226429953,42.778288745682346,45.47839187802529,82.29538311542238
60.5363799688669,78.0200994434287,48.505194787220546,109.28387666428455,42.468968607644605,45.62340484419642,82.23517676812115
59.783461707151865,77.45328883350517,48.53355206200765,108.83266800197357,42.18299955705655,45.74928671488227,82.18027387619728
59.038120507845925,76.89792135475541,48.603276294622546,108.34631571161214,41.91998030101286,45.85620753135518,82.13094369647324
58.301787768578016,76.35519543951698,48.71348700051446,107.82293976333229,41.67948149633666,45.94447437607656,82.08745187988278
57.57591532868581,75.82620442591285,48.86303654879011,107.26082777270801,41.461025919316675,46.014552964833975,82.05004563777841
56.86195288104715,75.31202662584302,49.05050159492152,106.65843802760652,41.264081975818364,46.06708951019418,82.01891926218522
56.1613219571098,74.81378237962498,49.27419857689748,106.01441781106385,41.08808127210361,46.10289957843399,81.99421056891357
55.47541230973464,74.33262053352937,49.53223378861422,105.32762915539064,40.93243930871354,46.122932033185506,81.97603229796182
54.80558793779772,73.86967981895286,49.822558721374804,104.59715649143281,40.7965559088235,46.1282346427676,81.9644870982627
54.15317524595358,73.42607126652831,50.14299781211291,103.82229380087863,40.67980440733049,46.1199269364056,81.95963893894368
53.5194368099492,73.00287292529251,50.49126055908494,103.0025340565472,40.5815332878745,46.09916960480766,81.96148118604616
52.90556229092238,72.60111046536956,50.864963063153816,102.13757571547367,40.501079205953644,46.0671272180205,81.96994767612662
52.312686240694674,72.22174311854322,51.26165042713502,101.22733295113873,40.4377681175006,46.02493626976222,81.98494940012773
51.741901266046355,71.86571419352214,51.678809738825514,100.27193082322621,40.39089709959571,45.97369586580953,82.00638272472558
51.194240216046495,71.53406008937735,52.11389721759251,99.27169088247503,40.35971879403354,45.914479630996475,82.0341013989192
50.670642754796525,71.22797882362431,52.5644057893309,98.22712527486857,40.34344850666912,45.848342102378,82.06790273709744
50.17193785458183,70.94880596817984,53.02795812090606,97.13893971916748,40.341283097214806,45.77630546664025,82.10755789625415
49.698849813028055,70.69794757406578,53.502370783148855,96.00802938523184,40.35240632046196,45.699351877986246,82.15284825204961
49.25200528538569,70.47681193379778,53.98565187887466,94.83546166589193,40.37597953597328,45.61844740570169,82.2035610201816
48.83192104802194,70.28673545070035,54.47595321873587,93.62245932332817,40.41114397546728,45.53457807331622,82.25946090274948
48.438985134794656,70.1289057140333,54.97152245774447,92.37039609704503,40.45704652484644,45.44875742559398,82.32028981177817
48.073459536728485,70.0043113824771,55.470673354035846,91.080796408451,40.51286327203367,45.362003749651606,82.3857990140349
47.735503667030876,69.91374680500076,55.97176296019434,89.75532332264449,40.57779427491872,45.27533254965104,82.45576302680246
47.42518600983757,69.85785230942145,56.47316814027925,88.39575586534936,40.651041436553534,45.18979986116929,82.52994979600554
47.1424690749058,69.83713331338038,56.97328014573289,87.00397453105103,40.731802254545606,45.106565194826096,82.60808850618824
46.88719378109564,69.85194634439881,57.47053438098967,85.58196669529106,40.81928857967595,45.02691126444141,82.68988224156506
46.65908840705269,69.90249997936064,57.963449148654725,84.13183770308767,40.91274407199281,44.95221097936671,82.77504771664098
46.45778793267342,69.98888593079029,58.450630802258125,82.65580615744112,41.01143604580154,44.883880256134645,82.86332521409935
46.28283602899561,70.11109204186819,58.93074202450589,81.15618511494843,41.114631978690014,44.823335695520804,82.9544481808373
46.133672818233016,70.26896586066783,59.40246332906531,79.63537061011563,41.22159129754898,44.771949347623476,83.04812269718366
46.00963328690774,70.4621574928718,59.864471158532034,78.09584836636594,41.3315865987022,44.7310047438962,83.14405060214716
45.9099611775938,70.69009117753315,60.315432429147876,76.5402028507412,41.443932546666616,44.7016824011063,83.24196320769798
45.833817781078494,70.95198637198517,60.754002253642646,74.97110946019174,41.557992346751746,44.685092967082895,83.34161781884963
45.78027420239187,71.24689702986389,61.17881829259908,73.39131625919791,41.67316672031713,44.682326058630096,83.4427681423003
45.74830380279972,71.57371892898095,61.588496879956026,71.80363207919422,41.78889679906059,44.69446199237029,83.5451588684764
45.73679508808586,71.93115908602836,61.981635095751535,70.21091767336439,41.904688723559794,44.72254323014324,83.64855254752585
45.74457724934905,72.31770521141183,62.35681301607421,68.61606499884364,42.02013028306897,44.76754593173238,83.75274131359316
45.77043238999425,72.73161877484641,62.71258858631964,67.02196485983792,42.13487876236524,44.83036755504006,83.8575175887806
45.81308850334505,73.17093599696899,63.047488433496305,65.43147836888008,42.24863939081254,44.911808862329714,83.96264257481624
45.871217949334536,73.63345950496503,63.36000620632029,63.847421011520694,42.36116218621458,45.01253712952629,84.06785794457149
45.94346261280296,74.11675720717307,63.648616008202346,62.27255111513424,42.472252879832936,45.133046156258736,84.17292394403586
46.02846990374599,74.61819436392285,63.91179557716184,60.70955231076185,42.5817711266999,45.27363728218329,84.27762813617619
46.12490681556129,75.13498775755423,64.14804382239366,59.16101136621229,42.68960830566069,45.43442863001955,84.38175268732509
46.231450843938454,75.66424186929021,64.35588470814577,57.62940006913378,42.79566717219129,45.615371834222266,84.4850498455499
46.34679132303626,76.20295372293754,64.53386594374626,56.11706873298929,42.89986043646566,45.8162521467208,84.58726275665845
46.46966038622318,76.74801722058908,64.68056773301237,54.62624945610011,43.00211492486459,46.03667989320257,84.68816113180313
46.598868187562395,77.29625321722531,64.79463356631791,53.15905592773252,43.10236167070611,46.27610174886969,84.78754032620093
46.73330992989872,77.84444795809289,64.87481724052228,51.71747299617597,43.20051889844785,46.533835076529414,84.88518934233369
46.87195539255804,78.38936872873474,64.92001773414644,50.30334785064809,43.29648875439789,46.809093960685445,84.98087968062609
47.01385667065653,78.9277605243271,64.9292859988289,48.91839463832165,43.39016723256448,47.100987424328146,85.07439065183114
47.15817626443016,79.45635629219025,64.90182228267798,47.5642048663845,43.48144602548682,47.408511904212716,85.16552636352782
47.304199642837695,79.9719140648055,64.83698773463355,46.24224857310106,43.57019747913084,47.73056315357816,85.2540933790896
47.451315043781854,80.47125532448793,64.73433504503404,44.95386595896018,43.656258513913265,48.06595499945529,85.33987322406809
47.59898711587753,80.9512792664492,64.59365173571676,43.70026416379853,43.739428523503456,48.41341980361864,85.42263602135614
47.74675139180347,81.40896613556413,64.41500572803346,42.482527705186904,43.81947430515726,48.77159561190109,85.50218069859099
47.89421795110392,81.84139600862203,64.19877325275039,41.30163073114678,43.896127425763886,49.13902705599755,85.57834551475634
48.041057953413684,82.24577866034278,63.9456291843512,40.15843637043855,43.96907538270102,49.514188178236395,85.65097573791533
48.18697719647529,82.61946825130501,63.6565073671093,39.05368683830034,44.03796335620215,49.895503654872606,85.71990011759584
48.331707824711444,82.95995573753508,63.33256312622157,37.98799829224617,44.10241451867362,50.28134733649619,85.78495558854905
48.47502837938889,83.26486176538432,62.97515393974889,36.961866233404955,44.162051224433675,50.670029739481315,85.84602733636281
48.61678153396385,83.5319529524719,62.585821758311646,35.975673539644816,44.21649557950929,51.05980693573144,85.90304960632797
48.756861812283724,83.75917272836183,62.16626090756527,35.02969015500726,44.265354144650985,51.44892433731648,85.95597401014437
48.895188456796376,83.94465649261895,61.718287173564995,34.12406659782957,44.30821125550468,51.83566510988345,86.00475869657998
49.03169533851702,84.08672561972011,61.24384922634683,33.258837792246055,44.344645648441094,52.218369989157914,86.04939206335918
49.16633913878131,84.18389060438795,60.745098259446166,32.433946038287395,44.37425649483177,52.595449385038215,86.08990467760442
49.29909818098548,84.2348799054282,60.22446188592699,31.649266803406494,44.39667295844703,52.96542943385234,86.12633923995422
49.42995050518198,84.2386672990107,59.68465305006026,30.904615823951666,44.41154552258843,53.327016738024795,86.15871350577139
49.55885556991798,84.1944694520153,59.12863168686511,30.199740326158533,44.418543708614315,53.67912453357972,86.18702390423282
49.685762952816134,84.10172797428714,58.55962339699553,29.53431698912111,44.41737407287776,54.02084359100948,86.21127962159353
49.81063292451694,83.9601080410524,57.981234082745004,28.907968767463903,44.40780032824445,54.3513961389098,86.23151341251777
49.93343804551765,83.76951442667429,57.39753913562232,28.320284931902503,44.38964245834736,54.670111310067746,86.24775236067238
50.05414802038485,83.5300949778609,56.81303450502684,27.770822688733933,44.36276109442396,54.97642284431915,86.25999479608514
50.17272634280271,83.24221743256383,56.23249706655866,27.259091324827843,44.32705447741662,55.269861229017515,86.26823139529367
50.28914394085403,82.90644376954162,55.66084862867864,26.78453717464028,44.282477352704696,55.55002580298947,86.27248085226006
50.40338411203477,82.52352865413049,55.10304609445162,26.346543396834054,44.229057742019606,55.81655355415267,86.27278912688175
50.515424281113084,82.09443046291781,54.56397952700155,25.94444068755482,44.16688913815694,56.069100386007854,86.26919882261191
50.62521353118709,81.62030236827557,54.04837618831895,25.577512029668895,44.0961116481924,56.30732735558749,86.26174008624521
50.73267216540735,81.10246018064784,53.56072968511553,25.244984965384674,44.016912422896816,56.5308796007844,86.25045670804421
50.837710509234626,80.54236110729171,53.10525863935996,24.946025127097705,43.929547445388906,56.73936406152017,86.23542188829599
50.94023778232243,79.94161651755451,52.68587040080065,24.679742898413174,43.834353340892015,56.93235037724048,86.21671317964426
51.040147963104545,79.30201415219038,52.306110460777425,24.445204516023345,43.731731513882416,57.1094065881415,86.19438082096728
51.13730570067683,78.62551193565436,51.96910972240532,24.241432447400697,43.62212628314388,57.2701408352827,86.16845634975898
51.23155597437152,77.91420726496102,51.67755711708671,24.067395587801546,43.506022136399814,57.4142124064956,86.1389896170925
51.32274554432035,77.17031802165391,51.433709166875566,23.922005887949062,43.383952514816,57.54131686444305,86.10605970413687
51.4107272524505,76.39618776857486,51.239416739684685,23.804134316331893,43.25649490185835,57.651177620193565,86.06974428270361
51.495346600452145,75.59428641414087,51.09613726150635,23.712636020221083,43.12424704139459,57.7435561773782,86.03009541073912
51.57644227633197,74.76718284975195,51.004925837475945,23.646362282269457,42.98780654852622,57.81826089812513,85.98716178137555
51.653874581487,73.91750651361248,50.96642240666155,23.604156646935834,42.84777325864692,57.87513475218266,85.94102858474768
51.72754956899636,73.04792765190498,50.9808422417379,23.584854884389276,42.704763160027305,57.91403275367913,85.8918209044886
51.797407533337,72.16115629545278,51.04796436021894,23.587298411566938,42.55940739402283,57.934817519704104,85.83967440799596
51.863390707464895,71.25993228768003,51.16712255140794,23.6103460259821,42.41233363269574,57.93738026571257,85.78472628343559
51.92542841546965,70.3469931627091,51.33721583236971,23.652869717728496,42.264153826876324,57.92166010605249,85.72714166752574
51.98345489316473,69.42504309915877,51.55674345336231,23.713744079237657,42.11546995177754,57.887638444975,85.66712832424786
52.037434767283735,68.49674976501771,51.823844076624006,23.79184790052694,41.966878891406395,57.83532218013608,85.60490812398565
52.087364114248366,67.56475822296983,52.136318881223666,23.886079497535004,41.81895878262428,57.76474391702755,85.54068191465883
52.1332524888033,66.63168715489404,52.4916494209068,23.99536958326462,41.672249269652006,57.67598105298517,85.47463688455663
52.175116127620065,65.70010035725882,52.88703512980619,24.118679853648842,41.52725111952272,57.56917742416141,85.40698387149033
52.21298864505463,64.77248572331233,53.31944753530115,24.254994271743804,41.384447076045596,57.44458377316221,85.33796751232313
52.24692440840987,63.85126531744165,53.78567136107607,24.403318228609724,41.24431733344726,57.30264168533758,85.26783194021459
52.27698137590809,62.93881449450774,54.28232165511951,24.562687945061878,41.107329883677416,57.144066203042335,85.196790744792
52.30320494220098,62.03745605490729,54.80586341785296,24.732176418980007,40.97391729294031,56.96985800816779,85.12504333953608
52.32563564990948,61.14943705922578,55.3526609597281,24.910885474845564,40.844466255554885,56.781248222294664,85.05281077324967
52.34432825807221,60.27692071335779,55.91905033584613,25.09793081139143,40.71932862076322,56.57962383793423,84.98033678760761
52.35935278600763,59.42199420160816,56.501404303634004,25.292434750024274,40.598833656728964,56.366460935353366,84.90785572435566
52.37077702426241,58.586663114681315,57.0961729204732,25.493530159664385,40.48328040300276,56.14327694505363,84.83557984156715
52.37866076761337,57.772823387898335,57.69991306053114,25.7003641129762,40.37291650202938,55.91161274413155,84.76372395939475
52.38307529007268,56.982238423893186,58.30931690479943,25.912092883295067,40.267928076894826,55.673034867668825,84.69252221378386
52.38412112722138,56.21654621816539,58.92122160798791,26.12787689093802,40.1684537488604,55.42912882964729,84.62220352472085
52.38191786641245,55.477280869720104,59.532589872005914,26.346887908480813,40.07460663790284,55.18147764499536,84.55295790490774
52.37657951230131,54.76587366305755,60.14048661274094,26.56832331755287,39.986479220432805,54.93164727699023,84.48494114005894
52.36820505746518,54.08363045211406,60.74208156963045,26.791410031918165,39.90413141838495,54.68118241704389,84.41830910144337
52.356887871371576,53.431717647158095,61.33467318451428,27.01539450357664,39.82758257269002,54.4315909698023,84.3532291891502
52.34272133304041,52.81117544805792,61.91570313106757,27.23953658627104,39.75681516212219,54.18431321661944,84.28985150309909
52.32578546123834,52.22293405720615,62.48274938070237,27.463121832310858,39.691776708206724,53.94070137586711,84.22828476728706
52.306127362543215,51.66780366493239,63.03351903309994,27.685480761641955,39.63237045838666,53.702024293250375,84.16861666710888
52.28375962699568,51.14644910492694,63.56585648243293,27.905993015910852,39.578448363112805,53.4694749932201,84.11095153605129
52.25867790439148,50.65938084900251,64.07775253808629,28.124075964773795,39.529823433987204,53.24415514863467,84.05541250117062
52.23087150516818,50.20696665614976,64.56734868741911,28.3391781397568,39.48629259746106,53.027043481619216,84.00211090638622
52.20031229375985,49.78943791920843,65.03295957876887,28.55078822125979,39.447645662250686,52.81897593775434,83.95113411957482
52.166942604137034,49.40687760838249,65.47311744316843,28.758446384280983,39.41366023511388,52.620649746284364,83.9025671228526
52.13068629776748,49.05921114270852,65.88660706483803,28.961742442505344,39.38410991268157,52.43263293995925,83.85650365271914
52.09147190045995,48.74622202538814,66.27247081588497,29.160307144350767,39.35879588954083,52.25535796931948,83.8130177395522
52.04923756905161,48.46757806855205,66.630002887859,29.353812222944125,39.337574203630055,52.08910487924497,83.7721316151456
52.00391464032294,48.22283788501858,66.95878519839144,29.54197647826999,39.32035275001028,51.93399753502629,83.73382879457145
51.95541986330257,48.01143897298812,67.25878303225113,29.724562019495202,39.30707025361879,51.79002358243554,83.69810057642547
51.90367504505801,47.832701307904195,67.53042056705753,29.90135885893512,39.297687391256375,51.657059211988006,83.66496658532849
51.848631387531185,47.68586124967982,67.77455568819461,30.072174608382323,39.292197163931206,51.534873833294306,83.63444720124456
51.790268492882646,47.57010490659817,67.9923813753647,30.236840157950567,39.290631803106905,51.42311649846902,83.60653417043044
51.72857742529827,47.48456871380812,68.18532363184538,30.39522083681639,39.29304745733604,51.32130717379988,83.58120387214622
51.66356367532301,47.42832075999859,68.35496885800019,30.547217066380366,39.2994976238731,51.22885163624026,83.5584510927742
51.595278611999376,47.40035931536325,68.50301890709845,30.692753285465432,39.310021016523656,51.145075118310785,83.53829099150316
51.523844598440895,47.39963364012281,68.63125189929637,30.83176885618852,39.32465159416158,51.069250184489206,83.52072841825311
51.44944530283157,47.42505628464035,68.7414755757439,30.964222922194605,39.34343025062881,51.00060892435687,83.50574541010971
51.37229853698724,47.47549083276447,68.835486275081,31.090105271030215,39.366398824136624,50.93835411013455,83.49332528946914
51.29264600433131,47.54973980664951,68.91503941393894,31.20943481888312,39.393586548259144,50.88167342970489,83.48346789001576
51.21076403306322,47.64655738299223,68.98181958547936,31.322246235678723,39.42500858917729,50.82974302756084,83.47616219568577
51.126967505971926,47.76467125237151,69.03741888932197,31.42858485013961,39.46067258836091,50.781724738385286,83.47135017811317
51.04159214280483,47.902782649626786,69.08334271428309,31.52851881559424,39.50057443631854,50.73678128017748,83.46893179748264
50.95497875519293,48.05954579950247,69.12102405327713,31.622152260137987,39.54467871421488,50.69410924328243,83.46880314492151
50.86748400692512,48.23355931843327,69.15181125507736,31.709621910349462,39.59289851557396,50.652958255152924,83.47087263025713
50.779501341597715,48.42338847863256,69.17693531243978,31.79108282486111,39.645093591158854,50.61262252048084,83.47503391394363
50.6914579660737,48.62759609915299,69.19749509626332,31.866702800446372,39.7010877369596,50.572431742033864,83.4811401866041
50.603786474462034,48.844750603467894,69.21447614582674,31.936671653259573,39.76068212643038,50.53177024496953,83.48902404731388
50.51690306348823,49.07341737502743,69.22877358080169,32.001208908305145,39.82364888320213,50.490113185403324,83.49854004854386
50.43121182006483,49.31216565858937,69.24118500549017,32.06055499051662,39.88972154331002,50.44704294398733,83.5095741967313
50.34711626111503,49.559597138733665,69.25237913249748,32.11495571471213,39.95860485775818,50.40223217144647,83.52201775958164
50.26501071510641,49.814365451989815,69.26287085719362,32.16465916906567,40.029996587891425,50.35541500124267,83.53575748594629
50.18525662018929,50.07516777756836,69.27301749150094,32.20992424711709,40.103594892491,50.30636815428862,83.55070254576363
50.10817362338176,50.34073085213064,69.28302396808884,32.251022405991556,40.179085850635296,50.25490312810525,83.56680370617049
50.034054993489754,50.60981923177262,69.29294176466708,32.288223963821295,40.25613654539161,50.20086050615702,83.58403181112863
49.96318109074239,50.88125682979519,69.3026729091592,32.32178149574481,40.33441165616697,50.14409958092048,83.6023512994134
49.89580881169207,51.15393005439703,69.31200516237327,32.351928633060986,40.41359419832614,50.08448554658519,83.62173414428754
49.83215097161345,51.42676665060095,69.32066957081278,32.378895256098986,40.49338382137786,50.02188035577291,83.6421933884217
49.7723730583704,51.69872162630784,69.32837565472956,32.40291846319072,40.57348074488487,49.95613349617189,83.66378153404506
49.71660926975846,51.968794537012364,69.33480338789879,32.42423377384986,40.65358493873661,49.88707153917484,83.6865510345476
49.66497209734447,52.236058237148384,69.33957324156259,32.443058070541205,40.733416567396446,49.81450721203157,83.7105296395472
49.61754024690376,52.49966421893678,69.34221952785882,32.45958723371618,40.812730939484744,49.73828253306086,83.73573824053923
49.574344018270736,52.75882761978011,69.34217813555289,32.47401164537891,40.8913086455669,49.658317284101585,83.76221317025332
49.535374639519986,53.012823756313466,69.33878853563041,32.486527992654786,40.96893684308117,49.57462068542016,83.7899905712755
49.50061139499442,53.26100194463034,69.33130334030268,32.497331990498324,41.045411267025926,49.48726299116229,83.81907349254467
49.47003356032705,53.50278768335765,69.31891197158717,32.506603915865654,41.12056269486242,49.39633661507016,83.84943316100727
49.44360618818176,53.73765887153205,69.30078811150196,32.514505194854685,41.19427795412131,49.30194065303965,83.88104464833806
49.42126905253543,53.96512126945514,69.27613532217622,32.52118395067987,41.266491679714704,49.20421007543441,83.91390218076668
49.40295235176784,54.18471152631994,69.2441951672628,32.52677356274831,41.337162287795586,49.10336956388928,83.94798884808561
49.38859867971873,54.396017767506805,69.20422269061214,32.53138109485878,41.40626268391472,48.99975981951764,83.98324498595417
49.37815911337102,54.59868379041028,69.15546049401341,32.53508271411754,41.47379411042192,48.89381832307783,84.01958062235296
49.37156891696699,54.79238921390654,69.09713181990259,32.53793765056845,41.53979883503718,48.786043585967604,84.0569096166704
49.36873616733224,54.97683551947051,69.02844851978601,32.54000568212099,41.604349422782306,48.67696381086438,84.09515175433148
49.3695556405828,55.15176029100213,68.94861416525079,32.54134741831883,41.66752609593471,48.56710560270289,84.13420093812577
49.37392277670704,55.316959704975325,68.85681520904794,32.54201040491013,41.72940940357707,48.45696028958192,84.17391017206653
49.38172323114605,55.47228725311322,68.75222197377589,32.54202165192015,41.79009430997128,48.34695717723506,84.21411506669062
49.39281015154021,55.61763372164821,68.63402490956828,32.541397605579846,41.849703215800965,48.237450439890225,84.25465440945369
49.40700098671952,55.75292035956322,68.50149209676111,32.54015925326514,41.90837834959202,48.12871284313937,84.29535359676225
49.424100757517444,55.87811251901415,68.35400388878143,32.53833354460813,41.96626609685943,48.02092630267065,84.33600366245344
49.443922564660774,55.993226031146385,68.1910541136976,32.535942260454796,42.02351816569876,47.914172291240995,84.37638207108263
49.46628110773574,56.09830976148018,68.012248369479,32.5329953270433,42.08030659256531,47.80843471970444,84.41629614182766
49.49097337058718,56.19342674224114,67.81731071041271,32.529494252526824,42.13682592099378,47.70361887362887,84.4555916184044
49.51777790191131,56.2786615416253,67.6060790883629,32.52543362093464,42.1932746906325,47.599572102821625,84.49411866853649
49.54647810740312,56.354144423018624,67.37848347394092,32.52079178002959,42.249840665798686,47.49608953343132,84.53170788324353
49.57688008490492,56.42005786244949,67.13452693602629,32.51551885475279,42.30670819781376,47.392904816266295,84.5681900871452
49.608802388114796,56.47661631430122,66.87428686755491,32.509538122657915,42.36407024756899,47.28967933412,84.60342623988562
49.6420540245646,56.52404924311045,66.59792700644996,32.502763579754976,42.422120155919686,47.18600208238198,84.63730102051376
49.67643101263015,56.5626109270983,66.30569562719774,32.49511512165247,42.48103000558142,47.08140133862219,84.66969499363192
49.7117339866083,56.592597417323525,65.99790819307088,32.486514991033154,42.54094510992222,46.97535716936673,84.700487044877
49.74777884206401,56.614338932176274,65.67495072294435,32.47687292950119,42.60200694077111,46.867306081625735,84.72959041186344
49.78438322988065,56.62817460020521,65.33732698256061,32.466078775600494,42.66438003239775,46.75664642891897,84.75696902336415
49.821349292135686,56.63444395930951,64.98570985327922,32.45400833845426,42.72825224112849,46.64276091743094,84.78260859477069
49.858469653729685,56.633502694457746,64.62094408585499,32.44052946423491,42.79381268176055,46.52505257019938,84.80648554578454
49.895548782792446,56.625732127821024,64.24400979237183,32.42549598636346,42.86123457286941,46.40296802167839,84.82857964730398
49.93240889239906,56.61152242296052,63.85599781866034,32.4087361176789,42.93067106832304,46.27600042270169,84.8489096693921
49.96887323027763,56.591250321469225,63.45811620521106,32.39005198353153,43.00224797111265,46.14370256045737,84.86753622387612
50.00475382772032,56.565280027011646,63.05169546714658,32.369235466550315,43.07604526216975,46.005727926748776,84.88452542346295
50.039863700911944,56.53397971622035,62.6381609577375,32.34608518779822,43.152083145862974,45.861866146337704,84.89992371278116
50.0740356645188,56.4977216599954,62.218986017548865,32.320407600488664,43.230327796897306,45.71203810663877,84.91377341921334
50.10711993148502,56.45685947918938,61.79567253818219,32.292006590708446,43.310705290345275,45.556261672020675,84.9261358102711
50.13896551695262,56.41171368897057,61.36978798551263,32.26068108959394,43.39310170354674,45.394617865606115,84.93708004823522
50.169415839019265,56.36258811374024,60.943024268209896,32.226239162188406,43.477352522494,45.22723651593777,84.94665357435312
50.19832898976598,56.309795369462606,60.51721644638389,32.188514866053346,43.56324658194221,45.05430137408097,84.95488201817707
50.225596107450805,56.253656647756806,60.094318885364075,32.1473709409635,43.65055146239956,44.87605336826961,84.96180188624923
50.25113374642815,56.19447956647306,59.67637991464201,32.10269135370736,43.73903431533178,44.6927755635938,84.96747622232171
50.27486502375419,56.13254979023731,59.26551755495082,32.054384089283324,43.82845571935996,44.50477423675854,84.97196763781147
50.29671847191793,56.06815056377022,58.863872830359156,32.002402111655904,43.91854842545066,44.31237982376111,84.97530803560878
50.316642847498905,56.0015809768895,58.47355430378929,31.94676410941989,44.00901045390173,44.11596348687618,84.9775106072025
50.33461044804314,55.93314549755234,58.09661238736476,31.887554724552388,44.099522394541616,43.91594211397255,84.97860773749746
50.35060108901828,55.86313146451471,57.7350459553865,31.8249102612351,44.18976604214706,43.71276262423045,84.97866035091562
50.36459291394687,55.791806673329006,57.39080091300564,31.759011690692496,44.27942079039643,43.50688383157848,84.97772791716264
50.376580739688556,55.71943368381912,57.0657334950102,31.69009044712038,44.368146967328606,43.298767574366906,84.97584709287807
50.38660285208368,55.64626990033522,56.76155979741567,31.618430146162762,44.45558064302939,43.08887037237666,84.9730511133879
50.39474276550975,55.57254534545267,56.47983930685822,31.544353102268982,44.54134240306258,42.87762780347013,84.96939772783777
50.401107761947884,55.49844742159417,56.22200726344056,31.468204103917145,44.6250408840471,42.66543810021038,84.9649613465851
50.40581658436683,55.42413780980947,55.98940790574448,31.390347904885697,44.706263072018785,42.45265301114857,84.95980287404448
50.40900725652489,55.34978393979848,55.78328387160824,31.31117575046757,44.78456931267158,42.23957479296653,84.95396641710474
50.410840180915585,55.275567391550986,55.60474236648757,31.231102195271692,44.85951084929004,42.0264592498555,84.94750842113629
50.41147970344723,55.20166747810367,55.45473311073181,31.150547923061747,44.93065774423555,41.81352815932483,84.94050982240313
50.411073723253864,55.12825640060379,55.33403099510282,31.069926317167877,44.99761000280579,41.60098943107434,84.93304553644772
50.40975699070603,55.05552152689555,55.24320408327255,30.989647534374438,45.05999179938138,41.3890648406638,84.92515271115302
50.407669895104824,54.98368420098571,55.182580569434876,30.910129329388653,45.11745840298574,41.17802111484288,84.91684419500383
50.40496166107592,54.91298677714316,55.152259694286016,30.831795300037953,45.16972712803191,40.9681843141074,84.90814812728273
50.40176924573566,54.84366136871052,55.152186979103845,30.75505854287087,45.21660196837277,40.75992941655213,84.8991170878238
50.398197369169374,54.77591239173852,55.182239451955674,30.680307496061303,45.25796412674021,40.553665886417605,84.88979678490867
50.39432219324176,54.70992179916448,55.242258264098304,30.607908042274143,45.29374252401684,40.34983261933336,84.8802039825432
50.39020681618759,54.64585421051842,55.33205201774779,30.53821370579074,45.323898233898575,40.148889343011206,84.8703478557234
50.38590150977905,54.583842386358754,55.451418512164544,30.471564266475912,45.34843325389351,39.95129873914879,84.86026312644053
50.38142907896774,54.52396697045143,55.60016217323204,30.408270343800258,45.3673995816058,39.757524974130675,84.85000684599605
50.37678395481729,54.46625660528224,55.778067968214806,30.34860374467651,45.38088558620756,39.5680725507931,84.83962865687133
50.37195621079632,54.41070675516165,55.98484435170386,30.29280909297198,45.38898947335875,39.383540775116344,84.82916610753026
50.366952886024976,54.357289264734746,56.22007141614999,30.241124645558617,45.39180758970763,39.20464260888113,84.8186743105596
50.36179112780336,54.305939594891385,56.48318644057634,30.19378856721646,45.38944858368026,39.03217839246618,84.80823975859579
50.356479142697815,54.25654357506501,56.773512693854634,30.151029017040855,45.38205445459145,38.8670070470977,84.7979500682384
50.35101570357503,54.20894855526328,57.090287824048715,30.113057712570885,45.36980582524878,38.710049734934564,84.78786064929652
50.345405494289444,54.1629886303666,57.43265063267933,30.08007795636191,45.352914333755194,38.562308586811945,84.7780061920719
50.33966137984011,54.11849208537748,57.799600890059295,30.05229538236758,45.33161787487787,38.42485948413691,84.7684387947948
50.33378594269573,54.07526622681583,58.18997324654862,30.02991636546813,45.30618038182522,38.298810533184934,84.75923528394075
50.3277580999338,54.03309086323242,58.602447966109956,30.01313922041847,45.27688377627883,38.18525323105129,84.75046285730507
50.32154524813857,53.99174160149066,59.03558306359804,30.0021526637385,45.244008772469044,38.085228676713115,84.74215370808457
50.31512439444588,53.951021094785474,59.48783129955236,29.99713860324814,45.20782303073088,37.99970531633689,84.7343238788045
50.308482484674215,53.910764387727355,59.957534937780714,29.998264463566613,45.168591362272196,37.92955435006702,84.72700365699755
50.30159906370931,53.87082083339002,60.44292293531487,30.005665221138624,45.126591150713665,37.87552481656872,84.72023067216465
50.29444177395893,53.83104508970259,60.94211766845615,30.019432144196028,45.08210750267435,37.83823533168761,84.71401808572907
50.28698230522425,53.791311386209955,61.45313516441559,30.0396169913466,45.035411520459476,37.81818508451819,84.708352050228
50.27920573412096,53.75152742215241,61.973874543105886,30.066239176117875,44.98674793785579,37.8157621756654,84.70322652596398
50.271096016434655,53.71162480726507,62.50210704701237,30.099280906721532,44.936345121150694,37.8312313233805,84.69866192802876
50.26261663106223,53.67154079647501,63.03547044816519,30.138673857054794,44.88442934459012,37.864709805517215,84.6946770540285
50.253712003146674,53.63122004368622,63.571471307512965,30.18429465112787,44.83122144771835,37.916155765826474,84.69125493122186
50.24432412182136,53.590632517866034,64.10749805231362,30.235977020834756,44.7769235054081,37.985379031312334,84.68835321603616
50.23439595414389,53.549776512671464,64.6408386976442,30.29352589579666,44.721716684899796,38.07205727052206,84.68594524034887
50.2238541459073,53.50865749740835,65.16869699430359,30.356716069359877,44.66577004571274,38.17573728356074,84.6840332016628
50.212598974970355,53.46727158377186,65.68822021575006,30.425280913575595,44.60924228235131,38.2958259133804,84.6826168335715
50.200524528268645,53.42561810575048,66.1965492633496,30.498911773048484,44.55226834427718,38.43159217512387,84.68166732451506
50.18755006033944,53.383723679412796,66.69086821965487,30.577274665985446,44.49494318228011,38.58218977187678,84.68114689467514
50.17362821597537,53.341643494812544,67.16842909413681,30.66002555170013,44.43732202620863,38.74668191744699,84.68104403857241
50.158730672162605,53.299440453260026,67.62656825307734,30.74680658141601,44.37943852015024,38.92404742358706,84.68137175722788
50.14283968438306,53.25717568973478,68.06273948902245,30.837231528950234,44.321317229735854,39.11317584889557,84.6821358647258
50.12595433746817,53.214925202094584,68.4745501889268,30.930880836714667,44.26296631823545,39.31288250462355,84.6833280417676
50.10809066464946,53.17279634969794,68.8597711805877,31.027312770595135,44.20436907833702,39.52195684067734,84.68495762903038
50.08926293829658,53.13091914065605,69.21632810835794,31.12607619152077,44.14549325303075,39.739213719260235,84.68707153453401
50.069463742176815,53.08942776465079,69.54232357770046,31.22670928626306,44.08630511383497,39.963509186849784,84.68972817394112
50.048664953872425,53.048461826836785,69.83611368915568,31.328729601766394,44.026766463597106,40.19372563644856,84.69296210178915
50.026832955169525,53.008183080919764,70.09638583436376,31.43163642439443,43.96681654952787,40.42876313182432,84.69678975503423
50.003931637549876,52.96877673035423,70.32217695683241,31.534935411032958,43.90635907131399,40.66755515847556,84.7012444631611
49.97990606183488,52.930427898656056,70.51285164794183,31.638167006128914,43.84526919004406,40.90908805792526,84.70638447583642
49.9546697345268,52.89330085588005,70.66809627461768,31.740913595908022,43.78341325005132,41.15240158050528,84.71225836173066
49.92811608269431,52.857545380587766,70.78793179589785,31.842789831190704,43.72065850441206,41.39658333970718,84.71887753426674
49.90014245773836,52.82331460116888,70.8727017327924,31.943443597161625,43.656866934547125,41.640776916754845,84.72623789600452
49.87065821596736,52.790763043346836,70.9230195689571,32.04257591752048,43.591894214977046,41.88419267609048,84.734361835205
49.83957329103458,52.760026792559366,70.93970643496014,32.13995560289581,43.52560752546832,42.12610093415454,84.74330366364121
49.80679311896175,52.73121690733662,70.92374584113473,32.235409251501665,43.45790460974292,42.36581095390777,84.75311967235392
49.77223305920633,52.704437589939616,70.87624996658508,32.32879965361548,43.38871263629529,42.6026602602803,84.7638565427489
49.73583113448559,52.6798023068048,70.798424724788,32.42001674513465,43.31797557739283,42.836031652478184,84.77557552349708
49.69753789971135,52.657423431678,70.69153690280861,32.50898394819312,43.245653003051316,43.06538098415385,84.78836622271827
49.65729553596305,52.637391156952894,70.5568959393083,32.59566108620141,43.17172955010194,43.29024191020511,84.80231780686607
49.61503331047856,52.619772739393326,70.39585141467161,32.68003088046677,43.096214093081166,43.510205870378456,84.81748208075395
49.57068244727266,52.60463013200043,70.20978708589499,32.762077684631166,43.01912346349925,43.7249106060424,84.83387666314354
49.52418545797254,52.59202482792081,70.00009453942046,32.84177569932353,42.94047238795968,43.9340551686341,84.85151761063945
49.47548480588594,52.581999185681234,69.76813767777216,32.919091511247366,42.86028803847509,44.1374171400678,84.87042770768306
49.42450980283984,52.574561384518624,69.51524351697823,32.99398800170368,42.77863505036608,44.334843394098996,84.89060525304231
49.371186951670765,52.56969719793875,69.24274682994793,33.06641658858093,42.69562111206638,44.52622735342382,84.91200099187415
49.315465586984295,52.567391822182465,68.95206392834352,33.13630362519634,42.61137937602826,44.71151267789237,84.93454073652607
49.25732695807351,52.567630551940226,68.64473447739834,33.20354949858036,42.52605430027614,44.89073044866694,84.95816228855594
49.19676837089054,52.57037947533721,68.3224148935885,33.268046262492476,42.439808255989654,45.06402651171951,84.98281435962227
49.13379025652634,52.575576896094255,67.9868567929425,33.32969615237269,42.35283275355409,45.23164511453279,85.0084246282572
49.06840859617077,52.583148582602014,67.63988266065486,33.388414510733995,42.265341134054324,45.393887749780134,85.0348899063539
49.000675750626115,52.59302189858467,67.28334492781664,33.44412520827729,42.177545965120196,45.55109006299016,85.0621025625497
48.93067958013262,52.6051149462424,66.91907403751436,33.496764772138526,42.08964425085109,45.703635387082066,85.08996695006978
48.858524417562826,52.61931473151631,66.54884291308889,33.546292452735116,42.00182336921697,45.85197795795121,85.11837475612626
48.78432638333628,52.63547630772683,66.17436209146193,33.59269004644423,41.91427407368434,45.996639679663815,85.14717301044539
48.70823657547368,52.6534484312066,65.79728494337219,33.63594806269492,41.827189793993746,46.13818675770975,85.17617180559418
48.630465428747144,52.67309536119637,65.4191986937451,33.67605249556691,41.74075651733485,46.277212179723826,85.20518203064817
48.551278821368,52.69429020464875,65.04162134569617,33.71298275735378,41.655154383290544,46.414320659486485,85.23402941760166
48.47097626829434,52.71689571300273,64.66604313998404,33.74671389671811,41.57057110655987,46.55009904435172,85.26252585450521
48.38988258535265,52.74076403004707,64.29399477017157,33.77721077851769,41.487204219570025,46.68507606942001,85.29044304803324
48.3083560672495,52.76575625600282,63.927077072827366,33.80441447262231,41.40524357500988,46.819691784131855,85.31753140097088
48.22678679744586,52.79175183816644,63.5669290874311,33.82823406762605,41.324856326678514,46.95429201672013,85.34356045607498
48.145574568220354,52.81863323411248,63.215175651226964,33.84855325246005,41.24619803982506,47.08914170110906,85.36832679846438
48.06510948055943,52.846270029135454,62.87339098408328,33.86524331738383,41.16944005397669,47.224434892729576,85.39162752745074
47.98577551024153,52.87452768137316,62.543070681392955,33.87816724129221,41.09478130033439,47.36029344630893,85.41324956547466
47.9079621822778,52.903286470321774,62.22559349463117,33.88717428509996,41.02243729932473,47.49676912749779,85.43299484149725
47.83205704761941,52.93243891369546,61.922178778917065,33.89209765306547,40.952631818351094,47.6338557370433,85.45069977487
47.75842085535829,52.96186681040072,61.63386348388761,33.89276176621272,40.88560585162955,47.771494093419605,85.46621643415043
47.687374238587005,52.99143159413128,61.361509323566686,33.888992396762866,40.82162524672977,47.90956303996627,85.47938616804214
47.619209763604744,53.02099415694581,61.10581875359711,33.880618813740966,40.760966746471745,48.04788797646228,85.49005171068663
47.554207015188325,53.05043766159485,60.86733510866297,33.8674673487359,40.70389232757243,48.18629581228391,85.49809654479883
47.49262660842823,53.07966421051474,60.646444298029834,33.849359731001016,40.65064016948736,48.32468529099274,85.50345690027288
47.434695240351765,53.10857699251105,60.44341767420797,33.82612510570929,40.60144317345515,48.463052750351245,85.50609004053892
47.38060835636652,53.13707878459763,60.25848646938666,33.79761420678968,40.55655175466344,48.60146429613449,85.50594735858442
47.3305463529249,53.16508775614166,60.09188652829121,33.76370013152903,40.51623220130715,48.74001864135636,85.50299439022157
47.284676095057044,53.192541243371515,59.943843316419425,33.724269912938475,40.48074563408312,48.87883165088366,85.49724965446225
47.2431320373428,53.21937487012734,59.814532269580674,33.679225917201215,40.45033816754134,49.01803032660912,85.48878626262044
47.20600556558606,53.24550304702221,59.70405983110182,33.628505103972316,40.425253383491736,49.15773469269173,85.47769818399232
47.17336347449073,53.2708285846092,59.612468942369766,33.572099760980954,40.40574260755081,49.29802770193952,85.46408548850843
47.14527569591151,53.2952688696153,59.53973791547242,33.51005965646246,40.39205139378576,49.43892772450331,85.44807752674932
47.12181893611851,53.31876286114098,59.48575327783659,33.442478386501406,40.38439562762279,49.58037873552898,85.42984858125449
47.1030574617052,53.34125281563154,59.45027089462825,33.36948339948012,40.38295193873654,49.72226021582873,85.40959266040451
47.08903360804086,53.36267184086085,59.432897062738064,33.29123904178937,40.387862025254286,49.864397473266116,85.3874913648004
47.07978278682972,53.38295647500646,59.43311781083164,33.207950926581354,40.399230550112186,50.006555137414416,85.36371904943005
47.07534845613321,53.402062541250515,59.45036525190334,33.119857989242455,40.41710906552305,50.14842415803872,85.33846790624722
47.07577173699296,53.419957385515495,59.484066890599046,33.02721703146272,40.44148254837387,50.289624811915544,85.31194375427908
47.08106621083581,53.436599198769606,59.533655649646164,32.93029789909062,40.472274213903056,50.429725792125836,85.2843317554388
47.09120763248027,53.45193420213948,59.59857338011083,32.82939782187477,40.50935899906219,50.56825531174969,85.25578126299601
47.106147542970675,53.465913888963506,59.678280901179875,32.72485850266814,40.55256525464494,50.70469567915391,85.22642824402077
47.12582721635909,53.47850274025283,59.772249627721514,32.61706504933821,40.60166494555474,50.83848946231456,85.19641129013483
47.150170118638826,53.48966245194299,59.87992966323759,32.50643167086809,40.656373395802085,50.969080376638715,85.1658473177809
47.179065785627955,53.499336234563444,60.00072095652191,32.39339234689327,40.71636934847117,51.095962709968845,85.13479960175351
47.212371525144434,53.507456487469355,60.133962574233216,32.278397579726224,40.781318162500575,51.21869740538138,85.10328836813423
47.2499297540102,53.51396249185228,60.27892499257745,32.161905034379565,40.8508768746084,51.33689585733838,85.07133542958324
47.291573439021114,53.518799159054645,60.43478885188382,32.04436073265677,40.924686963669565,51.45019900283532,85.03898490278992
47.337109702436656,53.52189709275063,60.6006156142617,31.926181535861673,41.002374969734774,51.558258487685734,85.00627680579724
47.38630583523959,53.523164310600826,60.77532855313671,31.80775376252405,41.083561706313006,51.66071189079161,84.97321855070369
47.43890058684547,53.52250538933718,60.957722607405344,31.689451375137295,41.167863180723415,51.7571573749876,84.93979966097145
47.49462698419191,53.519844379954606,61.146507139262106,31.571656675386528,41.25487825553908,51.84714869660685,84.90602892753643
47.55321601171993,53.51512343627045,61.3403569150289,31.454764374761982,41.34417887648129,51.93022715767663,84.87194032486036
47.614379476716586,53.508287048184854,61.53794298172156,31.339173888447107,41.4353147986771,52.00597504410915,84.83756477310133
47.67780194591083,53.49928296494336,61.737944473970835,31.22528702155837,41.527821304473136,52.07404811967269,84.80291988139614
47.743159354518035,53.48808254010647,61.93905227237169,31.113510751993772,41.621213153773844,52.13416656196206,84.7680387879021
47.810143501508925,53.47468960121255,62.13996206563199,31.00425164538243,41.71496826593831,52.18608454937624,84.73299152050838
47.87846450879149,53.45912230253271,62.339362192639264,30.897900546173766,41.808520299344394,52.229566641569114,84.69786084758309
47.94783741114973,53.44139354607319,62.53594024870213,30.794823277983838,41.901271557406226,52.264382452500044,84.66270428418939
48.01797999996253,53.4215176625462,62.7284155004959,30.695370093455967,41.992614189387766,52.290312569250965,84.627554370423
48.088625446089466,53.399530819921814,62.915566219972085,30.599893078379324,42.08193765074034,52.307147846680195,84.59245223059519
48.15952509452779,53.375491654361134,63.0962270622471,30.508748868774106,42.16862200627217,52.31467681953087,84.55745989731929
48.230430999294896,53.3494596355881,63.269278686967674,30.42228403178365,42.25204122544214,52.312680718688355,84.52262975158553
48.30108241776744,53.321486374424985,63.4336622337355,30.34082333845678,42.33158800655297,52.3009506426546,84.48797647802633
48.371219354387016,53.291640392254436,63.58840744126708,30.264674553637985,42.40669759302679,52.27930951096926,84.45349574036558
48.44060833323205,53.26003680171038,63.73263737335283,30.19413795633081,42.47684649832114,52.247620721425406,84.41920523484148
48.50904816095019,53.226835620766295,63.865543763783734,30.12950180933458,42.54153509153589,52.20580092731408,84.38515153736842
48.576353141256334,53.19221744383802,63.986363567619925,30.071026712147965,42.60028317750465,52.15385294919806,84.35137940705125
48.64234335787345,53.156371361731495,64.09437586145707,30.018938909011524,42.65264925651991,52.091891560199734,84.31791594088529
48.70685903818571,53.119501739552284,64.18890484404851,29.97343930371308,42.698249927589224,52.02013268752418,84.28479245916611
48.76977791649999,53.08182682179966,64.2693159774155,29.934711878851427,42.73675506098146,51.93886055686711,84.25206172453207
48.831010064516654,53.04355564754212,64.3350159325153,29.902916865815392,42.767868525191076,51.84840726091129,84.2197748810733
48.89048102940615,53.00486703942387,64.38546700088605,29.878175804315237,42.79132371134113,51.74915630826232,84.18794732528464
48.94813089564099,52.965915863735525,64.42020788096644,29.860566391162262,42.806903648741525,51.64154963923017,84.15656208057688
49.003926886409545,52.926854142167684,64.43886164436101,29.850131945841323,42.81446237726063,51.52607628887166,84.12560564423373
49.05786199154369,52.88783439407055,64.44112017608334,29.846891023623286,42.81392293772896,51.40325324937411,84.09508353000868
49.10993258262346,52.848991374093856,64.42671628171527,29.850834003882124,42.805260853505736,51.273625302321435,84.06499363220126
49.1601205326812,52.81043399800719,64.39540475719501,29.86191387477678,42.78850051638806,51.13778190746126,84.03530152671539
49.208401819337546,52.77226537524521,64.34695896511663,29.88004913299168,42.76372956174411,50.99636015989478,84.00596168511227
49.254768471464935,52.734604438239565,64.2811687624643,29.90514142477503,42.73110742941264,50.850026775586294,83.9769602193806
49.299232976588044,52.697579904338596,64.19782658290605,29.9370885380535,42.69085121562261,50.69947963628716,83.94832228287748
49.34181083160971,52.66131095636215,64.096718337261,29.975777264141204,42.64321292712738,50.54549362361018,83.9200803020607
49.382509526350745,52.62590761957183,63.97766553813553,30.021065658217978,42.588474041429414,50.38896591586414,83.89225614857683
49.42134193244951,52.5914900502812,63.84062847154668,30.0727752734758,42.526960878691135,50.23090910097634,83.86488641676792
49.458344201792364,52.55819433393686,63.6857961386331,30.130698213599647,42.4590560475405,50.072404230777465,83.83805276002448
49.49357182245555,52.526151717434445,63.513595179192855,30.194603600062283,42.385186511345296,49.91455371699196,83.8118719031141
49.52708168969147,52.49546805687077,63.32464416175187,30.264230889839663,42.30580098503474,49.75844719318205,83.78646344247304
49.558927041387655,52.46622995516388,63.11971220605399,30.33927695503193,42.22136376147896,49.60513069063171,83.76194746207092
49.589167451576266,52.438524869536174,62.89969469227277,30.41939203162277,42.13236905939659,49.45557176945184,83.73847463448607
49.61786940388024,52.41244233938871,62.66558504947525,30.504188590910164,42.03935001642202,49.310628654753046,83.71623663503105
49.64508724950517,52.38805179432363,62.418433834612266,30.593251583285817,41.9428633274591,49.17104331051261,83.69543250433092
49.67084868144984,52.36538819724834,62.15931053331281,30.686138023428416,41.84346452547101,49.03746265579067,83.67623443703435
49.695170035448484,52.344467247663374,61.88928594399886,30.78236915162409,41.74170122548092,48.91045915647485,83.65879962065203
49.7180878157603,52.325309698330386,61.60943623871655,30.88142986517516,41.638127766556785,48.7905246037234,83.64330780566836
49.73966970955937,52.30794342794488,61.32085078929272,30.982782814877808,41.53331671854825,48.67804435450105,83.6299669180715
49.75999807206243,52.292387991453104,61.024627440948464,31.08588532747813,41.427849036830935,48.57327500397115,83.61897797018544
49.77915761810436,52.278649924985196,60.72186366743847,31.190193469515517,41.32229681725969,48.47634528369496,83.61051191639852
49.797248416680155,52.266732743418345,60.413656392614364,31.295157464279654,41.21722142192372,48.38728238762182,83.60473215588846
49.81440290077705,52.2566370943158,60.10109801720597,31.40022694756415,41.113182408617206,48.30603824108339,83.60182640120999
49.830778602248614,52.24834096938066,59.78525246535699,31.504870135921266,41.01073357280025,48.232494486541526,83.6019976662559
49.8465360478095,52.241783785173844,59.46712414626132,31.60858816907802,40.910400135426485,48.16645861602568,83.60542663212998
49.8618314623034,52.23687777249051,59.14765244200569,31.710910354009396,40.812656529802965,48.10766913957916,83.61225858484744
49.87682682750536,52.23353281454026,58.827742584855635,31.81138026220722,40.71792121820329,48.05580378572051,83.62262474471939
49.89169117135496,52.23166177075092,58.50829954797252,31.909551402072236,40.626560668400856,48.01047738305471,83.63665054438381
49.90658180629298,52.23116287814004,58.19022896065329,32.00499701861155,40.53888372024168,47.971229818678495,83.65442482080597
49.92162876974038,52.231910447416325,57.87441376431675,32.097320821651365,40.45512474234513,47.937517043804775,83.67596991509083
49.9369451905693,52.23377377442743,57.56169408129969,32.186155271429676,40.37543588097712,47.90872027056738,83.70125832617481
49.95264902808964,52.236642908735654,57.252852649720595,32.27115257120874,40.2999034612914,47.88417374250296,83.73025546537181
49.968863912992,52.24043016423298,56.948593181644775,32.351987191065575,40.22857358084175,47.86319099657644,83.76293029639433
49.98569722450084,52.24505313968199,56.64951366369089,32.428375732601815,40.16146001412488,47.845072282072096,83.79922563288555
50.00322828727858,52.2504298872591,56.356094237294585,32.50009417733688,40.098535136315405,47.82909840759281,83.83904114971214
50.0215268555303,52.25649166211472,56.068716654416086,32.56697328235635,40.039731018049636,47.814527345546665,83.88226122968658
50.04067811917661,52.263186632537035,55.78770706912139,32.6288803732279,39.98496088905335,47.80059834820153,83.92879049024278
50.060781430678055,52.270461243173244,55.513372237120635,32.6857098239513,39.9341366905847,47.78653324084886,83.97854984624732
50.08192934965372,52.27824209018564,55.24601019516376,32.737389031641555,39.887162549940705,47.77152732253701,84.03144935663391
50.104198887821866,52.28644157404874,54.985904650136284,32.78388485230907,39.84391834433263,47.75473824336824,84.0873901338359
50.127662083426884,52.29497434561159,54.73331754231468,32.825196318663,39.80425742876914,47.73528826475747,84.14629914748149
50.15239064021274,52.303755737280994,54.4884771472479,32.86134154251593,39.76801816118719,47.71228221671294,84.20814446791952
50.17843993683527,52.31268173640361,54.25155560137337,32.892359173178114,39.735028634359445,47.684825008847675,84.27290458778967
50.205832611989855,52.321618916966436,54.02264610286146,32.91832777629741,39.70509659277183,47.65202686497714,84.34053315894351
50.23456446517448,52.33041990565118,53.80176036750862,32.93938130576951,39.67800357666754,47.61300687425412,84.41096720879763
50.264621181014306,52.33894332109687,53.588855328575754,32.95570250284082,39.653521063243886,47.56690677726586,84.48416326188693
50.29597733899176,52.3470515594101,53.383870144815006,32.96750294616417,39.63143467520845,47.512906511956494,84.56010521121608
50.32857707434621,52.354595281635945,53.18674281606046,32.97501188522659,39.61154948861223,47.45023184682635,84.63877177580568
50.36232681314804,52.361414147330514,52.99740714846152,32.97848107801337,39.59367534073978,47.378160957991355,84.72011203952312
50.39711563000827,52.367355683367244,52.815803514049996,32.97818930466393,39.577616926966584,47.29603907354572,84.80406216406082
50.432838176932194,52.3722826238625,52.64191108005256,32.974430932355524,39.56318694393339,47.20329817947754,84.89057159307912
50.46939182004362,52.37605554253439,52.475764579177486,32.96749705923185,39.55023035443159,47.09946784939803,84.97959306982234
50.50665887305266,52.378516083582106,52.317433731071134,32.95766974929923,39.538632220543924,46.98416624057538,85.07104831164165
50.544505839026186,52.3794967272471,52.166990239707744,32.94523246722689,39.52830612628353,46.85707905622527,85.16482022133064
50.5828033340833,52.378845282636405,52.02449041019832,32.930476885277855,39.519189812913204,46.71794796414906,85.26077966110508
50.62143627251583,52.37643157788469,51.889967720920225,32.91369129410545,39.511259880231734,46.56657759142623,85.35879733187373
50.66028763987054,52.37213150045872,51.76341756640268,32.89514178411633,39.504542111953235,46.402844777253286,85.45871459744124
50.6992202326237,52.36581977608402,51.64477795432037,32.875068318614055,39.499097956591164,46.226691977853754,85.56031547929048
50.73808416452724,52.35739126463472,51.53392328052606,32.85370022222135,39.49500271442851,46.03810888142848,85.66334660536218
50.77673838108872,52.346786041436076,51.430680191250396,32.8312714003495,39.492342097492596,45.83711903911142,85.76756379911139
50.815053302828794,52.33398607561113,51.3348640773126,32.80801704981563,39.49122680425944,45.623780140651945,85.87274502320292
50.85289043670767,52.31899334913726,51.24631714085389,32.784158157078636,39.491798353767926,45.39819159943493,85.97865843177239
50.89008969906214,52.30182473980354,51.16491941817901,32.75989472416384,39.49421342957079,45.16049993909858,86.08503837448605
50.926484675003714,52.28252959203897,51.090567612755265,32.73541572729869,39.49862799790216,44.910900751075474,86.19160694275841
50.96192484898847,52.26119810829519,51.0231395282373,32.7109102377568,39.50520236249241,44.64964250165746,86.2981084946262
50.996274690927294,52.23794350947438,50.962457837042656,32.686563582675525,39.51411480717158,44.3770368614156,86.4043067646965
51.02939602885237,52.21288473840674,50.9082584933519,32.66254555954798,39.525557338187014,44.0934703051224,86.50995500420542
51.061143502944404,52.186155081286245,50.86016970202117,32.639010524335205,39.539713081941294,43.79940900306978,86.61479190910869
51.09137850565912,52.157918227611525,50.81771043521783,32.616113672644154,39.5567430766356,43.49540400287606,86.71857249688088
51.119976029717066,52.1283602956929,50.780311156026855,32.59402453227191,39.576799253412,43.18210456280936,86.8210834932617
51.146810304213574,52.09765924609999,50.747340498512415,32.57292207766496,39.600042990111795,42.860268966978055,86.9221138373137
51.17174057763376,52.065958189062755,50.718117742871684,32.55298100723746,39.62664065379403,42.530760354847324,87.02141887949507
51.19462315141077,52.03335997986551,50.691915450876834,32.53436783554984,39.65674192005384,42.194530789808795,87.11872628028385
51.21534056684329,51.999934452478655,50.66796818132445,32.51724817830067,39.69046907082709,41.85260508561284,87.21376991914552
51.23381378789315,51.965717735217005,50.645484324234445,32.50178922698652,39.727925210456114,41.50606812437129,87.30629773846323
51.249987529236506,51.93070867369843,50.62365044960294,32.48814728113739,39.76920086716189,41.15604688639209,87.39604071668437
51.263817733232266,51.89489737517736,50.601633995426965,32.476449001473334,39.814361841875574,40.80368365964909,87.48269010088309
51.27528375422261,51.85832933612083,50.57860639883904,32.46678279173173,39.8634294403139,40.45011532812238,87.565918256692
51.28440652013072,51.82115001312249,50.553803904567765,32.45920513480438,39.91637979491455,40.09647256821891,87.64541379375687
51.29124372430183,51.78359529356535,50.52660227915128,32.45374808633015,39.973168162422034,39.74388876539785,87.72088236608123
51.29586875557828,51.74596643697676,50.496552265104164,32.45041393282754,40.033750447306204,39.39349634684482,87.79201998805294
51.29836378811592,51.708634123047275,50.46336228847135,32.44916383542434,40.098077033147455,39.04640379419961,87.85850950082848
51.29883279394513,51.67205633772712,50.42686371950705,32.44992076441879,40.166068465452845,38.70366824503235,87.92005307764609
51.29740673055359,51.63676826720682,50.38698472771915,32.45259193562228,40.23759967120694,38.36628556893501,87.97639321416953
51.294224486508,51.603342655503624,50.343731114302344,32.45708918033505,40.31250379919847,38.03520396985117,88.02729021559087
51.28941129428604,51.572362843290755,50.297168634392776,32.4633269575348,40.39058109064355,37.711340305341636,88.07249206154736
51.283080244466326,51.54443312776211,50.247411524183384,32.47120540587312,40.47159495584688,37.39557733920643,88.1117455875422
51.27534681347144,51.520196057802835,50.19462544446135,32.48060154373424,40.55526192712289,37.08875089143042,88.14483591692658
51.266326944723545,51.50031859584534,50.1390366582884,32.4913794873859,40.64125675375435,36.791652533107595,88.1715979941042
51.25611456747448,51.48545874933602,50.08092521232912,32.50340519518689,40.7292330676649,36.50504952443294,88.19188656029431
51.244765231326106,51.47625013844856,50.02060417084333,32.51654650618433,40.81883503511291,36.229695845265695,88.20555470584145
51.232304151126044,51.47330932266775,49.958421628795726,32.530663752605136,40.90968779864298,35.96632557938109,88.21247839298525
51.218742014065654,51.47723516219582,49.89479976271706,32.545609104485315,41.001384490987874,35.71566204244061,88.21259475380208
51.20407222080469,51.48858462721718,49.830267296750684,32.5612344197393,41.09348779220656,35.478467302784615,88.20590242562979
51.188254130635364,51.507850684549766,49.7654436411195,32.577392230109346,41.1855393190291,35.25559593218737,88.19243205847737
51.17121216200397,51.535470472388134,49.70098767880755,32.5939265123333,41.27706012203709,35.048002901327266,88.17224035220353
51.152860341284594,51.57184941641788,49.63754941536734,32.61066857019232,41.36754139166377,34.85671279878003,88.1454394798865
51.13312431767912,51.617363417439975,49.57574958699161,32.62744963358759,41.45644282814614,34.682788765658046,88.11221189065004
51.11193586678221,51.672333370999475,49.51618448546829,32.64411848702875,41.54321115928073,34.52730909831347,88.07278048836258
51.08921329771159,51.73700738464277,49.45942826505551,32.66054487052105,41.62730546598388,34.391335564341354,88.02737360851086
51.06485766395461,51.81157686264919,49.40601636891198,32.67661010910061,41.708205692712745,34.27587629729928,87.97623374001395
51.03876859487844,51.89620468878436,49.356430918594754,32.69220101662434,41.785404984582485,34.181868620821845,87.9196554016434
51.010853799017084,51.99102678813606,49.31111520713452,32.70721334752094,41.85841252470034,34.11018834451778,87.8579942228332
50.981016988337615,52.096128706059645,49.270505878548285,32.721557017376604,41.926782488378265,34.06165519580816,87.79163090082429
50.949143986886476,52.211534478845614,49.23504767852245,32.73515305233721,41.99014765209681,34.03700956467478,87.72093995532306
50.91511213161872,52.33722176415517,49.205189893610466,32.74792424229736,42.04822675672316,34.03687482332047,87.6463045048226
50.87881473642632,52.47313326802212,49.18139346076841,32.75979354916082,42.100809158772016,34.06173597778751,87.5681478696149
50.840169514597946,52.61915912762801,49.164146074540575,32.7706938831635,42.14774673934142,34.1119439193827,87.48692955214807
50.79910304613195,52.77510828430005,49.15395344529261,32.78057384360972,42.188963867139876,34.18772503835467,87.4031120291213
50.75553938730092,52.9407038270082,49.1513063347435,32.78938976294471,42.224463704882105,34.28917755377514,87.31715031936008
50.70941487529159,53.115604576194556,49.15666955273951,32.797095915478565,42.25431346991432,34.41625935364468,87.22951601379258
50.66070090326409,53.29941812998536,49.17053183948595,32.80364748568208,42.27862354520875,34.56877792674385,87.14070781153073
50.60940473684956,53.4916852572293,49.19348606379433,32.80901159556279,42.29754355512727,34.746383963596564,87.0512184585617
50.555553848261404,53.691860769017794,49.22626380520819,32.81316967553037,42.31127054966633,34.948564177737694,86.96149349209978
50.49919358812172,53.89932256238026,49.2697002225555,32.81610716594876,42.32004466866169,35.174628799799606,86.87193009244207
50.44040279996742,54.11340061864563,49.32468135098401,32.81780565041001,42.32412717037095,35.42370287397075,86.78290750133081
50.37929993520333,54.33339098137154,49.392126763570815,32.81824916650908,42.323785142293254,35.69474634926254,86.69479596046816
50.3160256948357,54.55854551515191,49.4730040207366,32.81743384996519,42.31930100875335,35.986606853545055,86.6079250830382
50.25072574903432,54.78806842043143,49.568333636258224,32.81536319517236,42.31099016449911,36.298065995060625,86.52255558952707
50.183559400607265,55.02114290433961,49.67915943703927,32.81203084563048,42.29919821138897,36.62784744592439,86.43889523578272
50.11472193244543,55.25696552121908,49.806497767002135,32.80741044978892,42.28427817212844,36.97460327305213,86.35713432169214
50.04444694788488,55.4947526051806,49.95128791314084,32.801464482584315,42.26657584630196,37.33690671098109,86.27744850087784
49.97298362980576,55.73372395979822,50.1143459457449,32.79415973697167,42.24643858136656,37.71325330250302,86.1999709402047
49.90058030802985,55.973099576745426,50.296318343198685,32.78546943475949,42.22422795406416,38.10205816204671,86.12478534993592
49.82749606297357,56.21211844697917,50.497645224031025,32.77536261670902,42.20031237633959,38.501646079655536,86.051955031281
49.754020492542125,56.45004868108601,50.71854175414263,32.763799862789945,42.17504559687356,38.91024384291725,85.9815412884718
49.680470774078024,56.6861704615581,50.958988994148186,32.75074401166905,42.14875709168095,39.32598727486075,85.91357939956295
49.60717101969004,56.919756778301426,51.21872136032398,32.73617115160719,42.12176628285508,39.746944526462045,85.84804599477296
49.5344462252328,57.15008157245585,51.49721222883884,32.720065922705814,42.09440186628923,40.1711404587303,85.78486622768382
49.4626402655644,57.37644485325556,51.79367415045223,32.70240761368749,42.06700152102229,40.59656685449451,85.72395239860465
49.39212919397698,57.59818035897708,52.107087807095795,32.6831661945308,42.03989667328955,41.0211829023705,85.66521965154011
49.32330605522668,57.81463786915095,52.436247421971295,32.6623127669042,42.01340725737894,41.442925049242206,85.60855885968668
49.2565524352479,58.02516803958839,52.77979114440158,32.63982765216431,41.98785122273454,41.8597332348469,85.55381299217086
49.19222892953465,58.229130309417506,53.136207479930604,32.61569205192581,41.963546401058046,42.26957590031358,85.50079984425844
49.13069110617649,58.42590774153813,53.50384231095689,32.58987186988451,41.94079472266145,42.670460344633995,85.44935435848394
49.07230309921461,58.61490398175053,53.88092408947392,32.56231453250741,41.919871942427406,43.06044614709207,85.39933499609326
49.01742598722162,58.79553015821735,54.265591830281785,32.53296556602007,41.90104303968317,43.43768375569759,85.35059535945771
48.966396347958295,58.9672090064604,54.65590516515844,32.5017863840958,41.88458529514931,43.80046383464794,85.30297413299594
48.91952277244559,59.12939651423332,55.04984231890905,32.46875323885726,41.87078795427721,44.14724127075347,85.25632182980308
48.87709670493935,59.28159188738359,55.445311180520946,32.433843513139664,41.85993005642303,44.476628355764426,85.21051972727892
48.83939014837105,59.423324389777164,55.84018645749457,32.39703209760617,41.852266965035554,44.787393153681926,85.16545714040727
48.806634309107174,59.554144283226734,56.23235282125684,32.35830621794932,41.848039411416906,45.07849111972915,85.1209973007889
48.779006654645364,59.67363880058793,56.619725989979194,32.317682180146484,41.847482613633474,45.349107703229734,85.0769792507202
48.756646365851914,59.78145078475827,57.000257518258664,32.27520656444459,41.85081281912932,45.5986677949217,85.03325034243001
48.739678095160066,59.877270979757476,57.37194832044026,32.230948327549086,41.85820190309113,45.826804054131166,84.98967859474934
48.72821298169205,59.96081109771369,57.732870469264,32.185001195502196,41.869766402703576,46.03331506359771,84.9461249601143
48.72233136629584,60.03178821230022,58.08117628486692,32.13749843945722,41.88557683829674,46.218142172327454,84.90241925869374
48.72207608519115,60.08993953565952,58.41508998879777,32.08862011630726,41.90566641262018,46.38136430354497,84.85838221297725
48.72746294303925,60.13505143488342,58.73289774334558,32.03857962491946,41.93002189491201,46.52318788840562,84.81386847878782
48.738485280764465,60.16696729857234,59.03295118976029,31.987602513746577,41.958567490491085,46.643921908814924,84.76877457191715
48.75509945298821,60.18556780739985,59.31368411720448,31.935919491182784,41.99116567891489,46.74395534076153,84.72300970939635
48.7772114051108,60.19075554431485,59.57362532796695,31.883776008174475,42.02763953366635,46.82375013832746,84.67648237980701
48.80468758874021,60.182466963697195,59.81139569159506,31.83143824627853,42.067792997750445,46.883836520208256,84.62912476258845
48.83737800609703,60.160692505300446,60.02570477810317,31.779180330717654,42.111408580690295,46.92479403291617,84.58091170303207
48.87511965826007,60.1254739802437,60.21537005739606,31.72726171189576,42.15823279431366,46.94722264009462,84.53183831532759
48.91771665047877,60.07688408757494,60.379350598014014,31.67591507359277,42.207975308890184,46.95172145641972,84.48188708191608
48.96492682378662,60.0150224148248,60.51676428774397,31.625352542382632,42.26032979242127,46.93888641008123,84.43103503655601
49.0164743127066,59.940039960293284,60.626881977107615,31.575776175224505,42.314996125540766,46.909319460866094,84.37929366790658
49.072068325872,59.85216031204189,60.709127006502186,31.5273751037501,42.371681687615094,46.86363109260763,84.32672428213691
49.13139975938565,59.751668673764584,60.7630960645207,31.480313471627184,42.43008757478999,46.8024318368884,84.27340661450303
49.19412184460742,59.63888533806898,60.78857567419114,31.43473139728074,42.48990376770032,46.72632946715572,84.219408136913
49.25984605215439,59.51415843905767,60.78552716102989,31.390767122995708,42.55081983435398,46.63594046850529,84.16480159619853
49.32816316633763,59.37787916262293,60.7540508768108,31.34857872246637,42.612532700927915,46.53189803734937,84.10970737132783
49.39866317311823,59.23048869616816,60.6943613453012,31.308343100109713,42.67473754856367,46.41484055939384,84.05430139434364
49.470929747764565,59.072459028787414,60.60679168593701,31.270238748909122,42.737113782541336,46.28538853980766,83.99878447314993
49.54452117755588,58.90427003802369,60.49181319758144,31.23443504409936,42.799328243038566,46.14412335885713,83.94336692127717
49.618968622062965,58.72641249542434,60.35003906216542,31.201097755852196,42.86105624480132,45.991571449549944,83.88829083705302
49.69379997046377,58.53940957000489,60.18220795783673,31.170397405789473,42.92199554182419,45.828193911629086,83.83384611381581
49.76856238912186,58.34382253479481,59.98917212991104,31.1425048909091,42.98185828564381,45.654384601938965,83.78034606191815
49.84281889531921,58.14023110464779,59.7718976975872,31.117579493450716,43.04035829719276,45.470487152801624,83.7280972709913
49.91613151478247,57.929218426850305,59.531458143543546,31.095763619677093,43.09721681620796,45.276840845712805,83.67741091793759
49.988062779266585,57.7113823114263,59.26901395540237,31.07718381128486,43.15218119916774,45.073838777105486,83.62863657127964
50.05820233191087,57.48735085089224,58.98580123513831,31.061945633787712,43.20503041522412,44.86195933822075,83.58216117051107
50.1261893027503,57.25777272729741,58.683145303781025,31.050118534758752,43.2555593608187,44.64175534616221,83.53836763703971
50.19170683572971,57.02329105317206,58.362475637244216,31.041723111939827,43.303563219909634,44.41382157150885,83.49760769915365
50.25446491947427,56.78453468215531,58.02531303317034,31.036735786749084,43.34883974882125,44.17876721849037,83.46021862746336
50.314199547824025,56.5421377277289,57.67324190943099,31.035107102107403,43.39119871103104,43.937207794432055,83.42654450463654
50.370685205281156,56.29675884369014,57.30790061634043,31.036772699930143,43.43045856761441,43.689772919101365,83.39691801878766
50.423734014841884,56.04907351705383,56.930990832044614,31.041647316769467,43.46643418284397,43.437110044143374,83.3716233613215
50.47317437843639,55.7997551236362,56.54427610355844,31.04961534116585,43.49893719463475,43.17987349118987,83.35089205360916
50.51883613419524,55.54947893431035,56.14956099754732,31.060532170964837,43.52779281745306,42.918715615381316,83.33493334218039
50.56056499242816,55.29894718063709,55.748691227090035,31.074231823811722,43.552850257237814,42.654299192425256,83.32394692604619
50.59824787204375,55.04889803883606,55.3436025720565,31.090527767434175,43.573970385731066,42.3873195529984,83.31809356218008
50.63181496697005,54.80008271463755,54.93637038041527,31.109205254279363,43.59100414600761,42.118507814834906,83.31746678090556
50.66121882060905,54.55323960094314,54.52920074791977,31.130016916566337,43.603788573180076,41.848614907280215,83.32211155783686
50.686421929963416,54.30909532075326,54.12438011296693,31.152691297316554,43.612167437298105,41.57841074253916,83.33206747802365
50.70740736225401,54.06838076579125,53.72423250840189,31.176946947926957,43.616012254217125,41.30871356970938,83.3473775115887
50.7241899390498,53.8318296735917,53.33109180613631,31.202495813075497,43.61521937611545,41.04041491456614,83.36805570321712
50.73680640105081,53.60015807085087,52.94726546616721,31.229035666784593,43.60969192751674,40.77446705059015,83.39406850292785
50.74529940357044,53.37405660939483,52.57498218581827,31.256250425768666,43.59933568730123,40.51184582973924,83.42536158470024
50.74972193465916,53.15420925262891,52.21634845221411,31.283827875646857,43.584077933522,40.253518773622986,83.4618930032319
50.75015614186197,52.94130792492543,51.87335120752945,31.31147857247035,43.56388477348832,40.00042936579373,83.50362475702886
50.746715799048005,52.736034730125475,51.54790462196651,31.338936807469157,43.53875496223162,39.753488197908325,83.55049138400867
50.73952465074254,52.53902707069784,51.241883272805076,31.36594785076576,43.50870327678099,39.51355984581019,83.60240021638852
50.728699270297284,52.35086166999371,50.95710013316422,31.392262499147936,43.47376380393138,39.28145313782774,83.65926574975124
50.714359194944706,52.17206760611,50.69525410585231,31.41764824380513,43.43401805957133,39.057927785370204,83.72102317452183
50.69664721985105,52.003140745512326,50.457888335436905,31.44190120368813,43.38961614732583,38.84370505635749,83.78759567359572
50.67573011214748,51.84453443386695,50.24636532894392,31.464842070012125,43.34076592582646,38.639460581045014,83.85886046220467
50.65178262690021,51.69664101529498,50.061843777861384,31.486303660310806,43.287706347373046,38.445802721449716,83.93466170055669
50.624983750959586,51.559791686970875,49.90525747868886,31.50613133427805,43.23069606479766,38.26326002760294,84.01484955068528
50.595534350154715,51.43426946755629,49.77731548209474,31.52420349961963,43.17002333424336,38.09229290301691,84.09928653421639
50.56367027713036,51.32030749152233,49.678525307090936,31.540453222515985,43.10601480282903,37.93331728072473,84.18781287185327
50.529648212902195,51.21806700591043,49.60921145750632,31.554868908377355,43.03902463195115,37.78671346760061,84.28022461613591
50.493717603188706,51.12762051410192,49.569514237586255,31.567480132360643,42.96941611840599,37.652815295318426,84.37629759032623
50.45611003991262,51.048960623084085,49.55938486901309,31.578350373977145,42.89755956179392,37.531899935408354,84.47581988028092
50.41705444916139,50.982021122813464,49.57858774717379,31.587578995963796,42.823843675496605,37.4241895781218,84.57858510254587
50.37679180860167,50.92668174016886,49.62670353492144,31.59529634183664,42.74867534081497,37.329853734860514,84.68436123196828
50.3355661847756,50.882756429116796,49.703128347578016,31.60164744862028,42.672460614090696,37.24900054471856,84.7928852884116
50.29360647609325,50.84999517162185,49.807067943423725,31.606780411570735,42.59559065838081,37.18166554398235,84.90388941417646
50.25112689390278,50.828111459568184,49.93753520709542,31.610850655840352,42.5184508947886,37.12781271184769,85.01711137353388
50.20834340889714,50.8168071364872,50.09337185058004,31.614028352381343,42.44143687986818,37.087341930843614,85.13226576457272
50.16547693202268,50.81576785627067,50.27329308743633,31.616490919330296,42.3649508596619,37.06008604824685,85.24901512874065
50.12273328300294,50.82464414460161,50.4759215960964,31.618402932634773,42.289383540239236,37.04579930615439,85.36698623196317
50.08028556519511,50.84305073956555,50.69979928152594,31.6199011563819,42.2151075327413,37.04415296551127,85.4858144397106
50.03828158796003,50.87058537456337,50.94340236235904,31.621095144804325,42.14249005461933,37.05474090122995,85.60515825057216
49.99686200585976,50.90683618341537,51.20516538292927,31.622075017089173,42.071902832008625,37.07708209420031,85.72467039404823
49.956161026971834,50.95136482221366,51.48348808411489,31.622910752548147,42.00370935119215,37.1106150930048,85.84397638981127
49.916291126573334,51.00369367202127,51.77672528111276,31.623640809884396,41.938238180135194,37.15469939170057,85.9626964413898
49.87733990630079,51.063324404793505,52.08320742230444,31.62426459050799,41.87576775903274,37.20863539074998,86.08047633281367
49.83939007115553,51.129770746395074,52.40131648517799,31.624750263769354,41.816532369670476,37.2716881515433,86.1969794927022
49.80253720348826,51.202567993591295,52.72956140067102,31.625049202946794,41.760730698935255,37.343104407192854,86.31185454900722
49.766881714630955,51.28125580242717,53.06658789877207,31.625099876773326,41.70851771661349,37.422156965103575,86.42473046618566
49.7325101461192,51.365366554997806,53.41113672795288,31.624819024008175,41.65998921444905,37.50824935664946,86.53524717396539
49.69949546680628,51.45443718864842,53.76201498606985,31.624094142848524,41.615185056032296,37.60105314289968,86.64307278980749
49.66791449966828,51.548022102903545,54.11811869964735,31.622788595522447,41.5741154073812,37.70061806495303,86.74787844918283
49.63785328835056,51.64568288968255,54.47847929761574,31.620753158643744,41.53678104947376,37.80740672030689,86.8493079755523
49.60938978889776,51.74697017210566,54.84227557668408,31.61782924757127,41.50316684802707,37.92224677429095,86.94698954540583
49.582579488889685,51.85142872907795,55.20879902437935,31.613841923635874,41.473227934310195,38.046246064595444,87.04057467983326
49.55746805688902,51.958622769598925,55.5774138218144,31.608597574742195,41.4469001292001,38.180713507463715,87.12974969492569
49.53411540586218,52.06814741291884,55.94753672177358,31.60189847391885,41.42413214702454,38.327086418033524,87.2142090225053
49.51259762300842,52.17961312285337,56.31861791125594,31.593565176870868,41.40490492874077,38.48685807230012,87.2936420278042
49.49298658559841,52.29262987119734,56.69010379282517,31.58344662918898,41.389219784288755,38.66152598993341,87.36776655985162
49.47534056386009,52.40681560774992,57.06139451148632,31.5714148954052,41.37707602368942,38.852580171916166,87.4363694269469
49.45972088673599,52.52181345555425,57.43182199623389,31.557362032332783,41.3684631512873,39.06150770645788,87.4993017887257
49.446208452751904,52.63728728127483,57.800654448905576,31.541209849873958,41.363364010387194,39.289775247789755,87.55644455018422
49.43489407487974,52.752898608842095,58.16710511553338,31.52292037404688,41.36174881232919,39.538791532929196,87.60769927767176
49.42585656417701,52.86829905961916,58.53032473389079,31.50249095316835,41.36355670559846,39.809885941191816,87.65301403014392
49.41915882124942,52.9831548426339,58.88938672836975,31.47993864330092,41.36868568096721,40.10432327952588,87.69239426751452
49.414862088889265,53.09717529898155,59.24328353288797,31.455295459958833,41.37700547868834,40.42333026257796,87.72587019865853
49.41303053833967,53.2101121285562,59.59093084802282,31.42862379847328,41.388376886014576,40.76810003170195,87.75346041423548
49.413715155474094,53.32173886762437,59.93116652626807,31.40003270440909,41.40265168873259,41.139789867096965,87.77518053034683
49.41694039091026,53.43184302944221,60.26274672878427,31.369673510653385,41.419655363222404,41.53955530515365,87.79108123868785
49.42271539292133,53.54023399291331,60.58435483150882,31.33772082963593,41.43917782212907,41.968625855080674,87.8012590117445
49.43105509592426,53.64674044200193,60.89462857163241,31.304360312494875,41.46098529161413,42.4284054097209,87.80582611589666
49.44198135177506,53.75118821551555,61.19218993402844,31.269790252131504,41.48483693623454,42.92061330066986,87.80488827487481
49.45550625624595,53.853383833285136,61.47565787562737,31.234223334377663,41.51048680368096,43.44746159091691,87.79856539208431
49.47163075964622,53.95312463800527,61.74365149371249,31.197875732382286,41.537681890562446,44.011794839032866,87.78702414497852
49.49037134742935,54.050217906798004,61.9948201940373,31.160949712086005,41.56617712488736,44.617133041186136,87.7704741493297
49.51178408497015,54.14447986902329,62.2279098644137,31.123627369736674,41.59575697955151,45.26761732478181,87.74913793214364
49.53595760680507,54.23572051168284,62.44181713345123,31.086082513282616,41.62624015652543,45.96787783730059,87.72324606946222
49.56299140496635,54.32374536547634,62.63559492678664,31.04849536152189,41.65747358875362,46.72285273229529,87.69306619339763
49.592991186097436,54.408380333311854,62.80842767423853,31.01105126191862,41.689335266159915,47.53759400560567,87.65891561890243
49.626079038081684,54.489489010510425,62.95960146052941,30.97392651245924,41.721739443889554,48.417084931638136,87.62112877705242
49.66238962180507,54.56696201352574,63.08848554866424,30.937278400161762,41.75463107659687,49.36608522974593,87.58001891548581
49.702043637937,54.64069839024688,63.19456055233705,30.90124577674635,41.7879819500994,50.38903669421034,87.53588184049971
49.74512448586682,54.71060702303989,63.277501672815625,30.865951334204098,41.821801501105504,51.490042974276356,87.48902686842466
49.79168248062178,54.77662106834891,63.33725077090349,30.831496983187634,41.85614936815451,52.67287381701273,87.43978107858348
49.84175379824378,54.838695549644136,63.37401738690635,30.797956006053948,41.89113404620296,53.9409764756761,87.38845556708289
49.895362281712785,54.89678283777085,63.38822878191352,30.765373304387413,41.92689651199311,55.29753985415372,87.33532150507463
49.95250101327031,54.95081652441853,63.38047341610036,30.733775794772416,41.963582245008986,56.745573391210186,87.28063025780136
50.0131227786661,55.000726688385306,63.35145127508139,30.703179547378344,42.001309416718364,58.2879003107566,87.22464650400372
50.07715397337637,55.04646657263303,63.30193014007412,30.673583186248667,42.04014700478441,59.92706420449814,87.16764559570612
50.14450887464969,55.088015318392856,63.23271661054627,30.64495671381851,42.08010767915433,61.66522381566495,87.10988419943263
50.21508136771786,55.12535946424939,63.1446500479787,30.617243076728695,42.12114359477709,63.50408853088974,87.05159623194548
50.28872859976115,55.15849046990284,63.038603907183315,30.59037310943068,42.16313549932193,65.44492595191285,86.99302481757353
50.36527477794436,55.187430380853144,62.91547419929796,30.564275305251293,42.20589493824428,67.48868344248525,86.93444040907326
50.444531784144786,55.212250997730386,62.776168710693156,30.538869015072525,42.24922185208283,69.6362146416128,86.87611585027958
50.52630663314995,55.23305865231528,62.62162365506454,30.514053597696464,42.29301474083539,71.88846312938219,86.81829962653933
50.610386027648374,55.24996279358334,62.452835040678096,30.48971303033718,42.33736112544493,74.24646113794775,86.76123184908705
50.69652432323999,55.263064271523554,62.27086443206246,30.46573523806162,42.38258030229624,76.71119133722836,86.70517749547979
50.78445700455576,55.27247168859154,62.07681088326073,30.442024949129593,42.42928065683415,79.28344541460648,86.65042369172447
50.87392285597561,55.278317340848325,61.87178398028878,30.41849748658138,42.47844397409609,81.96375143471599,86.5972457689909
50.96466508883383,55.28074665775217,61.656904480045114,30.395065498885213,42.53148607099062,84.75237627480792,86.54589514508952
51.05641460577029,55.27989471642317,61.43331413974242,30.371638851944073,42.59034192375256,87.64934845788433,86.49662405930167
51.14888648977815,55.27588025068118,61.202162757432575,30.348140547459707,42.657632574579985,90.65441659560669,86.44969985857882
51.24180199350835,55.26881784924103,60.964574498209,30.324519314236436,42.736787392426905,93.76693286261126,86.40537677063779
51.334909695759855,55.25882095886098,60.72162240795628,30.30074420810437,42.83200075510933,96.985756418289,86.36386043094919
51.42797945627297,55.245984472553985,60.474323888496734,30.276791915562455,42.94808839451775,100.30926631093061,86.32531251902107
51.52078225482609,55.23036953480621,60.22363903530682,30.252645784151326,43.09032349023718,103.73546197453445,86.28988320687081
51.61308730618944,55.21201212198611,59.97046081054426,30.228307545130683,43.26427399794773,107.26203920827386,86.25771848670063
51.7046778026313,55.19094182936937,59.71562637795924,30.203804408615202,43.47569420976462,110.88635432266078,86.22892805216955
51.79535531105412,55.167181723539194,59.459973405618044,30.17918017988213,43.73050439156536,114.60531636569704,86.20355950014459
51.8849195293384,55.14072950804304,59.20440128402128,30.154480650263434,44.03479818735151,118.41537041523547,86.18161638562458
51.97314875013865,55.11155101504641,58.94988005645087,30.129750951794126,44.394821423325126,122.3126869478924,86.1630921562411
52.05980605669284,55.07960150560296,58.69740881965355,30.10504542733288,44.81696643627022,126.29347207948271,86.14796920739717
52.14465804163313,55.04484980386128,58.44797132573752,30.080432499597336,45.307801539441584,130.35422403189057,86.13618950403156
52.227476617527046,55.00727709339945,58.202528509896794,30.055984390376832,45.874031043047175,134.49185638246533,86.12764967420827
52.308024161801505,54.96686113952151,57.96204369978265,30.031762776354643,46.522323030633004,138.70370239859108,86.12223353533541
52.38605160960348,54.923575843600936,57.72749636376856,30.007816149272912,47.259099280472086,142.98741412637085,86.11983331606089
52.46132273568289,54.87740751941517,57.49985655374286,29.98418908753212,48.090400465790054,147.34078022247746,86.12032783541054
52.533638252684106,54.82836055486291,57.280039338671116,29.960929442940483,49.02182112182537,151.7615310082726,86.12355263358852
52.60283276781417,54.77644211196195,57.068870546950286,29.93808326942208,50.058436439402406,156.24718938052325,86.1293094663853
52.66875841603918,54.72165151652828,56.86707283428649,29.915684848212575,51.20469637682637,160.79506227299487,86.13740386743423
52.73128538003827,54.66399641381534,56.67526013956929,29.89375995573395,52.46432886181602,165.40248746999023,86.14765675699351
52.790317656950116,54.6035170668447,56.49392753392813,29.87234529925643,53.840269631154264,170.06720855375514,86.15987489326153
52.845794830723946,54.540285967105206,56.323437597737716,29.851502373482408,55.33459070301703,174.78757248090432,86.17382903302287
52.89766990843146,54.474384293313896,56.164013808533326,29.83130970137776,56.94841194505864,179.56246735438086,86.1892795625658
52.94588980533418,54.405887637112016,56.01574356084913,29.811846080211513,58.681822483189066,184.391124638905,86.2060190375059
52.99040190494718,54.33487836528395,55.87857898091298,29.7931869515082,60.53386851038128,189.2728506225873,86.2238761596608
53.031170549438805,54.26146324396086,55.75232849378644,29.77541655256648,62.50264316639716,194.2067114061088,86.24268344457641
53.068173441704246,54.18576929408409,55.636664029600986,29.758637012333587,64.58542584259645,199.1912406197596,86.26226226813026
53.10138143959772,54.107928428582674,55.53118635556722,29.742960553762515,66.77877253649973,204.22423507389894,86.28244539109038
53.130754679221745,54.028081488773154,55.4355385017759,29.728494531283815,69.07853125987079,209.30264962182426,86.30309270532037
53.15626834958325,53.94640045834265,55.3494877216699,29.71533780906509,71.47982572790295,214.42256577869048,86.32406595277672
53.1779384996268,53.86309596996473,55.27292832211553,29.703590658027537,73.97704769771121,219.57921057716686,86.34519505933842
53.19581704645907,53.77839733107592,55.20584503326462,29.693361558148847,76.56388875499186,224.76698392614097,86.36628496909123
53.20996860533626,53.692531975471645,55.14828452098767,29.684759157083164,79.23341986150069,229.9794678538954,86.38715367979162
53.22046253005592,53.605729442037926,55.10033194922214,29.6778795638227,81.97817824141852,235.20951902052892,86.40764699957431
53.227384134947506,53.51823594540835,55.062074709492315,29.672806720193304,84.79021732522988,240.44953174221317,86.42761128148648
53.230837934355684,53.43030982404591,55.03356241128639,29.669626016540235,87.66112959587288,245.6917283746131,86.44686917964485
53.23092967089431,53.342199953836555,55.01479340370759,29.668432897489637,90.58210553703465,250.92828879418772,86.46523867414852
53.227749222079126,53.254140155067105,55.00573744935494,29.669323944010035,93.5440809113645,256.1513201153478,86.48256880200113
53.22137539124114,53.16637232064624,55.00635963357232,29.672378817975993,96.53792500184323,261.35279961715764,86.49873976100288
53.2118883307178,53.079166692796626,55.01661087867236,29.677652143283737,99.55457040597564,266.52460211108695,86.51363134077852
53.19936441779119,52.99281016956795,55.03640005130543,29.68518232715837,102.58508281126419,271.6585807889645,86.52711331894739
53.18385785621556,52.90757939518948,55.06558543151943,29.69500214991233,105.62073232662316,276.74661027671425,86.53907494898652
53.165396029052296,52.82373236979891,55.10399003938285,29.70713491031452,108.6530579048216,281.78060291104214,86.5494457379635
53.14399823261802,52.74151939092151,55.15140925974171,29.721581162777348,111.6738867353398,286.75252109890675,86.55817364884894
53.119694484621725,52.66118439555373,55.20759367155401,29.73831265737456,114.67531401799441,291.65432557683744,86.56519763033334
53.09252130556311,52.5829440946808,55.27222906147103,29.757279200653613,117.64967492814758,296.47784349216096,86.57046068939927
53.06250595341091,52.50696900731681,55.34493379860645,29.778416757721708,120.5895568233221,301.2146529313757,86.57394295201698
53.029666299438475,52.43339187302087,55.42526171259873,29.801643986470822,123.48786227300404,305.856093581317,86.57566167599614
52.99402578206968,52.36233070831448,55.5126983988568,29.826851717427218,126.33785638495199,310.3934073807984,86.57563884294841
52.955616434637335,52.2938936307581,55.60665868161105,29.85390111228917,129.133165476421,314.81789599491924,86.5738886198991
52.91446115638605,52.22816303861764,55.70649112232349,29.88263384738708,131.86777117680035,319.1209906536172,86.57044224729742
52.870561438383845,52.165190456371384,55.81149127103762,29.91287909576448,134.53600935406214,323.2942364296035,86.5653641559656
52.823912119079495,52.105017258546596,55.92092189815175,29.94444669370288,137.132539479535,327.3292515998568,86.5587262220578
52.77452481112289,52.04769557099583,56.034022516822446,29.977116494865665,139.65228508275865,331.2177030093221,86.55057470944338
52.72242859537883,51.99328131372781,56.14999814180228,30.010640006244756,142.09037943291438,334.9513358464798,86.54093896760932
52.667650780994435,51.94181004186139,56.268007079409905,30.04475435902577,144.44213641389655,338.5221087267347,86.52987081466442
52.61020976513991,51.893288302996055,56.38716623543481,30.07919177358071,146.7030370160042,341.92239221649703,86.5174581461786
52.55013387584935,51.84770893922698,56.50656231542967,30.1136743669103,148.86873188436147,345.145098082417,86.50379408125859
52.48748103590781,51.80506401039427,56.62525268272123,30.14790577881968,150.93507812004418,348.1836968880977,86.48894786488535
52.422332723120604,51.76533348183156,56.74227096443766,30.181577845905405,152.8981862150301,351.03218296248,86.47297862547649
52.354773669681386,51.72846314997202,56.85666045489976,30.21439325001583,154.75442349869502,353.6850189612313,86.45596667479538
52.28488627108097,51.69436102028573,56.96751934436361,30.2460845530745,156.5004027073743,356.1370765797408,86.43801062112138
52.212761159952336,51.66291656569918,57.07402051974161,30.276414625032547,158.13309365260156,358.3836051866398,86.41919296101314
52.13849816691924,51.634016135185746,57.17539871083787,30.305167001341093,159.65010162021892,360.4202336532202,86.3995664663298
52.06218695668719,51.60753721973117,57.2709352816806,30.33214469588893,161.049910348268,362.24298944382065,86.37917920061791
51.9838902508157,51.58334019934242,57.359973839647296,30.35718133644392,162.33190466242272,363.8483340666291,86.35809325537626
51.90365250085035,51.56128013129982,57.44196026687147,30.380149541919295,163.49626128113735,365.23322678924967,86.33636254769306
51.821521207059185,51.54122724532646,57.516463976869304,30.400954816207737,164.54387465168406,366.3951952797494,86.31399873427681
51.73755028733893,51.52306817530701,57.583158857457434,30.41952419935671,165.47632617723485,367.3323510086621,86.29097329471263
51.651782505201105,51.50668764570596,57.64179240825327,30.435807067099066,166.29582600537583,368.0433237354252,86.26725211473041
51.56423936540533,51.49195985389917,57.69218065502331,30.449789326311922,167.00512587224407,368.527170619629,86.24281090530516
51.47493517443425,51.47876322869642,57.734226157498675,30.46150335900488,167.60744080408352,368.783361983468,86.21760938857031
51.383894874803744,51.46699477811426,57.76792521708234,30.471020326005668,168.10638552529244,368.81188322727047,86.19156778340056
51.29115053508027,51.45655865275113,57.79335738179605,30.478433448924896,168.5059194389695,368.61334782776964,86.16458921902985
51.19672508034699,51.447338202516406,57.810685777680355,30.483853288021262,168.810284506992,368.1890100204502,86.13660381543173
51.10062865238577,51.4391846003961,57.820173346404616,30.48742356243638,169.0239190928237,367.5407005012135,86.10757724494073
51.00286928143723,51.43193817900364,57.82218350144859,30.489341088555673,169.15138873498884,366.6707621971084,86.07748051003911
50.903455829006596,51.42545687489458,57.817150477648894,30.489858621159932,169.197375432349,365.5820421215875,86.04627463080998
50.80238496233498,51.41961800485434,57.805549890419314,30.489272401046392,169.1666673705663,364.2779500216145,86.01393404398951
50.69963389084053,51.41430080377072,57.78791013083727,30.48791105628576,169.06407896454814,362.76251113314186,85.9804661020478
50.59517785393985,51.409382679702,57.76485666236191,30.486129141945835,168.89433290306044,361.04035104665036,85.94589194942725
50.48901599023614,51.40475512737507,57.73713405146408,30.48429452264722,168.66197756153792,359.1166408548069,85.9102217919841
50.38117526733236,51.40033237651964,57.705579223588934,30.48276916906118,168.37135458027848,356.997036743385,85.87346976431402
50.27169221201308,51.39603742284584,57.67108341556915,30.481900752384426,168.02658017861066,354.6876308101102,85.83568973738367
50.16060282968132,51.39178649601101,57.63458744841405,30.482034299333307,167.63153231697575,352.1949400324898,85.79697825728807
50.047958741443466,51.38749690453734,57.59710228386305,30.48352578193009,167.1898643876297,349.52593394254666,85.75744013837942
49.933848569504285,51.38310704955467,57.55970925232069,30.48673616948305,166.70502040820242,346.68807377398696,85.7171691233228
49.818396783590345,51.37857756485493,57.52352177323213,30.492010434781967,166.18021041853382,343.68932596286953,85.67627408228537
49.701748733434556,51.373869840010364,57.489640079441806,30.499662528346743,165.61836469882658,340.53811999829963,85.63491196676074
49.584070229210056,51.36893246232367,57.4591318729535,30.509976204917027,165.02210978312937,337.2432566711854,85.59327825119847
49.465562354083985,51.36372104317727,57.433029605188395,30.52321053402122,164.3937762116651,333.8137910393305,85.55157228010633
49.34646402982885,51.358235447122176,57.412314295726084,30.539594801534363,163.73544014961203,330.2589051098391,85.50999309650223
49.227028791530245,51.35253368683361,57.39788609855973,30.5593141909598,163.04899819785757,326.58778902089546,85.46876954727502
49.107493902700156,51.34670994773574,57.39055034677243,30.582502990377385,162.3362288298093,322.8095818830578,85.42817053756355
48.98806882417012,51.340858447620384,57.39102425914551,30.60925575018704,161.59879343164835,318.9334177420768,85.38847055949996
48.86894931469505,51.33504357567067,57.39993500352944,30.639643585809935,160.83820043720866,314.9685177395445,85.34991492328186
48.75033446911103,51.32928912499762,57.41779443405475,30.67371559224595,160.0557797772808,310.92420622370923,85.31273100299298
48.63243189261057,51.32359187074991,57.44497497516332,30.711486750748026,159.25267313686297,306.80982277832356,85.27716384281256
48.51548948519528,51.31795006163439,57.481713130034876,30.75293063016897,158.42982149923265,302.63460413937565,85.24347926686748
48.399900273209234,51.31240193855118,57.5281300523341,30.797984432789324,157.58794955106475,298.40759635612824,85.21192874108546
48.28633593796996,51.307071013544025,57.584237635988714,30.846554995012553,156.72756536028018,294.1375984963554,85.1827284600236
48.17580504501311,51.30219699622048,57.64992656675915,30.89851466731224,155.8489854816386,289.8331289784401,85.15608089754973
48.069606124485304,51.2981446976647,57.72496774768155,30.953692164761357,154.95237245444704,285.50244586221794,85.13219963001416
47.96923371247143,51.2954081780451,57.809040582346086,31.011872389933657,154.03775999162607,281.1536313231228,85.11129426751509
47.87629126655072,51.29463269259258,57.90175814036786,31.072809861843997,153.10506403949748,276.79465902370043,85.0935369036656
47.79243014957576,51.29669386775967,58.00266626561366,31.13624303202474,152.15410188377354,272.4333782866026,85.07906162596322
47.71931572675467,51.30283442542488,58.11123330107711,31.20189474751566,151.18462992570147,268.0774598279959,85.06799700036214
47.65860554597207,51.31477630134057,58.22685071733545,31.2694629182464,150.19641126114115,263.73435724895285,85.0604783170684
47.61192660041735,51.334765642936894,58.34884232823846,31.33862072275581,149.1893215301994,259.41128428719117,85.05661493449917
47.58085761766691,51.36559440950479,58.47646948550978,31.409035325394125,148.16344364319076,255.11523207034074,85.05645421209907
47.5669175012346,51.41062677545214,58.60892825980585,31.48038892927677,147.11908910474114,250.85304771094226,85.05998817249662
47.5715451832084,51.47380827267948,58.7453525541787,31.552382403592713,146.05675623034276,246.63149531861865,85.06718698415033
47.596076768364725,51.559613416735125,58.88483469267837,31.624727324479228,144.9770755719043,242.45722390838623,85.07800570244656
47.6417502885117,51.67291945215472,59.02644671721892,31.69714778789134,143.88077780654118,238.33670274877974,85.09235325030127
47.70973726779982,51.81885374931651,59.169238526334944,31.7693946272728,142.76868784916581,234.2762034487673,85.11007112481003
47.80116230524305,52.00266442211706,59.3122162699194,31.841252018919697,141.64171395123228,230.28179888173008,85.13095460957118
47.91709126019613,52.229622120489175,59.45432460572728,31.912525954632546,140.50081086103725,226.35933557126975,85.15478452649303
48.05851405907747,52.504927360990685,59.5944520331414,31.983028396995433,139.3469367490125,222.51440150158163,85.18132359441981
48.226367426607474,52.83360112597857,59.73145724051556,32.05257186958339,138.18102866204134,218.75231362447033,85.21028914486473
48.4215989803235,53.22038429616032,59.864193262343534,32.12097023241673,137.0040004367024,215.07812260933957,85.2413518962809
48.64523677043035,53.66970950312799,59.99151593943636,32.18803272433692,135.81675031070432,211.49661750178902,85.27416839420115
48.89850555317518,54.18577747597495,60.11229056685964,32.253549792203664,134.6201600570771,208.01230248168932,85.30839908784475
49.183031837812685,54.772668431534555,60.22540646120815,32.31728360412572,133.41507719014967,204.6293380499934,85.34368635473072
49.50100179969468,55.434380600727046,60.32978395099684,32.378973156530236,132.20228747888743,201.3514735871013,85.37963289207705
49.85513190298424,56.17481264606216,60.4243611392636,32.43834595856256,130.9824944361864,198.18199554487558,85.41582497877172
50.248521530436726,56.997771803704524,60.508074856753176,32.49512068905744,129.75632036774104,195.12368149562528,85.45187856805968
50.684522370845315,57.90700882007453,60.579862990916546,32.54899880999524,128.52433034175124,192.17875662762376,85.48745024355645
51.16665396065721,58.906327937405365,60.638694556441976,32.599659400366896,127.28706594609733,189.3488836290398,85.52220655465835
51.698512423825655,59.99983011249033,60.68359995570764,32.646769204226715,126.04507208230149,186.63518803772638,85.55580609825078
52.28363442609957,61.192106748510184,60.713674171615786,32.68999980035843,124.7989094486123,184.0382757149643,85.58792604832054
52.92535167942023,62.48818623619697,60.728060908909015,32.72903350337544,123.54915914049491,181.55822332702022,85.61829469511035
53.626708206472266,63.89330967366816,60.725949352219274,32.763555908737196,122.29642393808909,179.19455517892246,85.64668278294222
54.39045386482683,65.41266718599235,60.706601170624765,32.79325216922722,121.04131639794896,176.94621853485043,85.67287109345507
55.21904515468172,67.05113840227915,60.669386522345995,32.81781885285706,119.78444488294288,174.8115801294241,85.69664754652601
56.11461517499736,68.81311156435595,60.613794733995924,32.83698153852303,118.52645633454999,172.7884702983661,85.71783845742233
57.07894609221778,70.7024304130425,60.53941996569859,32.850501060476624,117.26815603145383,170.87427348288998,85.7363221349853
58.113445226637936,72.72239371802121,60.44595073011322,32.85817035310651,116.01061037353922,169.06605329176116,85.75199854167207
59.21909735076794,74.87572355858595,60.333177015283034,32.859821254084196,114.7551418552755,167.36072419368563,85.76475678940741
60.39641342802449,77.16449637222055,60.20099910405213,32.8553457747467,113.50324907195757,165.75526810564926,85.77448803209401
61.64540489098579,79.59005756917782,60.049421410662205,32.84470965055294,112.25653196506147,164.24690963362414,85.78112515782713
62.96558351497108,82.15294617648566,59.878546688539785,32.82794208338405,111.01664673147496,162.83315252835052,85.78465080930526
64.35598405539875,84.85285023156165,59.68859693691676,32.805115648426806,109.78526788350311,161.5117066832539,85.78506339372211
65.81520191512713,87.68857891432094,59.47994706075482,32.776339739796,108.56403900047452,160.28040636615216,85.78235461452492
67.3414397783098,90.65802297215119,59.253130126376206,32.74176960697423,107.35452024108282,159.13715594656557,85.77653295594894
68.93256307419254,93.75809933717862,59.00881279788401,32.701611385332725,106.15816016195846,158.0798823321325,85.76765526100084
70.58613052683783,96.9846934950933,58.747790839852335,32.65610963067965,104.97631242537199,157.10648696499447,85.75581692103275
72.29936308063527,100.3326044641989,58.47103054631413,32.60552481380984,103.81027601061837,156.21481664603536,85.74111654581607
74.06908710434904,103.79549533418259,58.17970837367996,32.550115455891415,102.66131150685864,155.40267658976916,85.72364984081788
75.89173490510386,107.36586951073545,57.87519479293569,32.49013086529147,101.5306192964883,154.66787601631006,85.70354096240794
77.76342949825793,111.03511267741999,57.55899698108536,32.42581238929666,100.41930598237902,154.0082433283372,85.68096000349048
79.68008794457441,114.79362395754616,57.232716796482016,32.35740578851163,99.32836853069759,153.42157966366338,85.65609657903867
81.63747216219404,118.63099526217495,56.89805510939738,32.28519111180933,98.25870215004413,152.90562518581788,85.62912943716327
83.63118911288268,122.5361623745089,56.55683556481097,32.20952599155694,97.2111085062225,152.45811037639484,85.60024156180923
85.65671429512183,126.4974847161322,56.210998897980765,32.13088493010858,96.18628462497519,152.07688000350447,85.56966331419511
87.70951588995383,130.50277159806257,55.86256444945611,32.049871176057614,95.18480212402518,151.76005916710528,85.53768307087823
89.78523312417448,134.53932418502757,55.51359453318158,31.967200706539952,94.20708958186263,151.5061984115109,85.50461144700319
91.87976340289691,138.5940519346483,55.166172194719216,31.88371595446368,93.25342156100248,151.31428700748924,85.47075047977319
93.98920820037804,142.65363192163812,54.82237015249048,31.800495645454426,92.32392057309781,151.18361704746445,85.43640557809299
96.10975251743486,146.70463737558615,54.48420328018875,31.719018152603756,91.41857783348101,151.113617494419,85.40190953470338
98.23756139857352,150.7336515326429,54.15358554301462,31.64124378544344,90.53729031664501,151.1037745318139,85.36761015851796
100.3687613139971,154.72742596473404,53.83230801669409,31.569558568747947,89.67990038134417,151.15363315438958,85.33383233805404
102.49952002903146,158.67304528808717,53.522027521867194,31.506646838297264,88.8462234241679,151.2627743852116,85.30086798218395
104.62612647992565,162.55802625956372,53.22424606050811,31.455367549497748,88.03606406318295,151.43071366750397,85.26900488306504
106.74498952871132,166.37036815364775,52.94028078097095,31.41865284509893,87.24922889434323,151.65678757066783,85.2385436360088
108.85261889141808,170.0986069120928,52.67124313681361,31.399419225804326,86.4855316046219,151.94010085928264,85.20976996908581
110.94566161180042,173.7318708254544,52.418039086861086,31.400483855952356,85.74478050302613,152.2795242974713,85.1829204236409
113.02093989838117,177.25993053292112,52.181379060255146,31.424488981272106,85.02675760909014,152.6736949105857,85.15819280569723
115.07541464423217,180.67329242577932,51.961781944605,31.473842650906867,84.33120721965591,153.12099240429404,85.13578841184408
117.10609275226847,183.96333764547563,51.75958350564296,31.55067923082814,83.65782947363516,153.6195067504897,85.1159264878966
119.10994695645513,187.12240080894554,51.5749696938571,31.65683345375035,83.00626340405914,154.16702184900743,85.09881354163393
121.08391556016336,190.1437196894288,51.40802100370343,31.79381904344143,82.37606449141086,154.7610038008627,85.08461711100495
123.0249924916717,193.021305355277,51.25873145016879,31.962809561940315,81.76669474238936,155.39856895670346,85.07348319387626
124.93031022002737,195.74980949877718,51.12699398635517,32.164622804246925,81.1775285577829,156.07645790776635,85.06556667429429
126.79712927436623,198.32442982007274,51.012577716314986,32.399707759714545,80.60786011853031,156.79106919190113,85.0610246873457
128.6227831513069,200.7408673975218,50.915122508284455,32.66813332401579,80.0569044028235,157.5385404103323,85.05998242180468
130.40466245784862,202.99531970427452,50.834154952638585,32.96959406259721,79.5238119065218,158.31480650440275,85.06252322762109
132.14022955206815,205.08446889165018,50.7691075073836,33.30349934455779,79.00771859729305,159.115610168039,85.06871433830436
133.82700658595544,207.00545859000098,50.71932364000629,33.6692252942879,78.50780656605936,159.93650425485257,85.07862114216593
135.46253524523044,208.75589670072716,50.68405603150988,34.066462320078344,78.02332897205235,160.77287845251766,85.09228031488169
137.04436284011575,210.3338923409021,50.662472131134805,34.4954465313852,77.55359884350949,161.6200145819747,85.10966872367601
138.57007181739317,211.7380850117967,50.65366166951736,34.956972472322,77.09799157332294,162.47320070644042,85.13071592851351
140.03730287428132,212.96763294676742,50.656634112078976,35.452269523940664,76.65598880306332,163.32791382138467,85.15534477635516
141.44374856964356,214.02218041808013,50.67031023942164,35.982838828892206,76.22722107124058,164.17996085445378,85.18348249452247
142.78716800482,214.90185734934795,50.69352614293089,36.550292356274845,75.8114561437676,165.0254693650191,85.21502828917708
144.06547399637702,215.60733629297047,50.72506189767673,37.15621886467779,75.40854862613683,165.86077277278244,85.2498272138227
145.27686439970364,216.13993252990971,50.76367927064655,37.80208566720472,75.01842226258525,166.68229937291446,85.28768893864014
146.4198969010765,216.50174421919021,50.80813898604189,38.48916276575404,74.64112907889674,167.4865316094002,85.32842202246982
147.49345176182052,216.69581455363516,50.857197123056,39.21845415714896,74.27693562348566,168.27003665247102,85.37183339625443
148.4966384712185,216.72621707308016,50.90960842603037,39.99063280076778,73.92634558639266,169.02950541866196,85.41770042453861
149.42871649222408,216.59798675353494,50.96414539848202,40.80600685395873,73.59004624444141,169.7617615321709,85.46576769248927
150.28904267282383,216.3169965173427,51.019610610506234,41.66460523027846,73.26884503134951,170.46377159506235,85.51578058335348
151.07705894393888,215.88995453091152,51.074831083899575,42.56643868717877,72.9636362305361,171.1326706840736,85.56750605301613
151.7923581710015,215.32452890815844,51.128660644348784,43.511820359102536,72.67537158736428,171.7657695970681,85.62070900360625
152.43480505261647,214.62945331572965,51.18001433120602,44.50155076959239,72.40500380985844,172.36052957094628,85.67512142133405
153.00461059667057,213.8145387672532,51.227912760029376,45.53691114499001,72.15341364827339,172.9145360631672,85.73045209451665
153.50229814754584,212.89063674841307,51.271495025007184,46.61957597898583,71.92135049991825,173.4255062150778,85.78642321639498
153.92860341932197,211.86958731541887,51.30999816177683,47.75156615458013,71.70940200545822,173.8913153988681,85.84277981017176
154.28438845842413,210.76410830499222,51.342741968195206,48.93525605518258,71.51798474344608,174.31000024132703,85.89925879297564
154.57059980976578,209.58758843639458,51.36914548005194,50.17337925588375,71.34733622601946,174.6797465402348,85.95556533937022
154.78825179575713,208.35382380506047,51.388753740110516,51.46899597396098,71.19749582427296,174.99890089036106,86.01139438314367
154.93844785143466,207.07675470397945,51.40123772030396,52.8254233955812,71.06828208170545,175.26598527730957,86.06646909910997
155.0224697874748,205.77026344310414,51.40637316488569,54.24613242182893,70.95928897768776,175.4796740901068,86.12054448143999
155.04187235051532,204.44807894372997,51.40404636225578,55.734622289613036,70.86990893696633,175.63875299854465,86.17337842792854
154.99848304027356,203.12371739357934,51.394305355060354,57.294325582361495,70.79935975523452,175.74209799293072,86.22472055426539
