HandOpen,HandClose,Wrist Flexion,Wrist Extension,Supination,Pronation,Rest
168.7671955382345,302.8089140395976,334.2154017536354,327.3569224717516,295.64377115960616,248.48073845840835,128.34641969087875
168.58156137104766,302.0543022406798,334.36713291188704,327.30127591422763,295.2373504538546,248.27052062185572,128.32956968935184
168.39890896481197,301.29824126769057,334.4687277670004,327.2602721715705,294.82047628798153,248.04836836134052,128.31586831706042
168.21943351359693,300.5427770550224,334.52235768068164,327.23369804191873,294.39300993471727,247.814400534585,128.3047027153655
168.04333132652368,299.7899245216194,334.53029361169325,327.22133491145416,293.95484897065535,247.568784234093,128.29550477256308
167.8707775605525,299.0417084664481,334.49481870374535,327.222878187663,293.5059010811595,247.31178672345445,128.2877157794883
167.70197346162308,298.30008680005176,334.4182578822741,327.2379333364507,293.0461814910248,247.04373279637034,128.280781136179
167.53718717302053,297.5668782014229,334.30299198294495,327.2660903035191,292.5758913841948,246.7649733603711,128.27419418948688
167.3767149795721,296.84378976831675,334.15135723452966,327.3069219921248,292.0953730809208,246.47595046048284,128.26752060038072
167.2208322799195,296.13243458726123,333.9655569283393,327.35990418142734,291.60507938253244,246.1772483555609,128.26036423208572
167.0698127228707,295.43425999167783,333.74768431862265,327.42441244167907,291.1056572061346,245.8695396794118,128.25233341468802
166.92395916160612,294.75050883052813,333.4997401155688,327.4998016865723,290.5980010593583,245.55353075267232,128.2430657922841
166.7835670417761,294.08229298429137,333.22356287504596,327.58541236545034,290.0831718182172,245.22999455450508,128.23227168041976
166.6488663318437,293.4306489601902,332.92080676350747,327.6804942547088,289.5623325610955,244.89979400041662,128.2197242791176
166.52003921575775,292.7964953297733,332.59304907782894,327.78420174583334,289.036820036419,244.5638170444525,128.2052100224813
166.3972995966943,292.1806254104288,332.2418697853027,327.8956704315709,288.50820549008665,244.22292918139522,128.18851509741515
166.28092532554953,291.58380917915207,331.86879224921745,328.01402336340595,287.9782210076123,243.87802558086906,128.16946460239558
166.17121396374597,291.00685523486464,331.4752250470667,328.13829874435385,287.4486811310858,243.53007337404478,128.14794409932412
166.06845499802435,290.4505396085448,331.0625158440926,328.26745204849067,286.9215091843599,243.18005515766862,128.12386304106778
165.97296266246798,289.91554101172534,330.63199262906005,328.4004421095478,286.3987467169708,242.82891879345124,128.09711932006763
165.88508665813785,289.4024877250075,330.1848935896571,328.5362467090217,285.8824524186868,242.4776212173429,128.06762642830418
165.80514544150017,288.9119955446977,329.7223131458734,328.67379358092046,285.3746202835319,242.1271632598466,128.03536413697773
165.7333592647021,288.4446004093593,329.245263771672,328.8119567814827,284.87721670997155,241.77853074144215,128.0003757877996
165.6698706617961,288.0007078526847,328.7547264913716,328.9496314718294,284.39220686602255,241.43264904216738,127.96272037439635
165.61481109083738,287.5806537016779,328.2515886430107,329.08574089513917,283.92145479447163,241.09044005027476,127.92245584335288
165.56830956873864,287.1847477151745,327.7365918165343,329.2191689707293,283.4666021673962,240.75287212399724,127.87967158552591
165.5304401381351,286.8131984361589,327.21038688903207,329.3487697891812,283.0290434931262,240.42090645039343,127.83450116451276
165.5012029775697,286.46604636137135,326.67357647273485,329.4734599370246,282.6099281691175,240.0954416744115,127.78707573484138
165.48056856796416,286.14321489311465,326.12666096634507,329.5922362436657,282.2100887985883,239.77735071129325,127.73747578453548
165.4685008130671,285.8445606397988,325.57001772947785,329.70410727582197,281.8299600680772,239.46751211465826,127.68574848195111
165.46490938426135,285.56981731717286,325.0039949461883,329.8080955269228,281.46961265623156,239.16674868669844,127.63196433818652
165.46960423967505,285.31855209110137,324.4289792532094,329.90332448834926,281.12886860172165,238.87577651883547,127.57623005765633
165.48232715201195,285.09023779610476,323.8453364779323,329.98903218682153,280.8073512677455,238.5952561133198,127.51864032626261
165.50281283366635,284.88431795587564,323.25335047658916,330.06449650919853,280.50445892798206,238.32584172258714,127.45924223429229
165.5307843406687,284.70015463070234,322.65326352214424,330.1290444449798,280.21939220978464,238.0681276223152,127.39806646326092
165.56588994452636,284.53697088350424,322.04530981819164,330.18217373812354,279.9512476941715,237.8225823381476,127.33517870681035
165.6076832052933,284.3938907563829,321.4296565964475,330.22360596612367,279.69904025222456,237.58957503147423,127.27067625732005
165.65568235432332,284.26997336942867,320.8063755578394,330.25322062711535,279.46162404921904,237.36942012318192,127.20464149626852
165.7094193455593,284.16415427977745,320.17553199797186,330.2710303896683,279.23766216165325,237.1623371001656,127.13712968917517
165.76841895964225,284.0752091621125,319.53725413703893,330.2772377394813,279.02572044483827,236.96838956370135,127.06821019448921
165.8321753682624,284.00182941798573,318.89167751779524,330.2722245861354,278.8243506824444,236.78751984781272,126.99799148825612
165.90017771733105,283.9426862522035,318.2388944258313,330.25645114745055,278.632067063381,236.61963581429563,126.92658876964035
165.97192194893785,283.8963815303815,317.5790171817032,330.2304113744851,278.4473365583098,236.46461715424994,126.85409360226592
166.0468608484759,283.86140430422313,316.9122341193884,330.1946640946972,278.2686714632719,236.3222486124924,126.78060641872553
166.12436352922794,283.8361984917712,316.2387592969256,330.14980118711384,278.0946947002769,236.19221750816564,126.70628980924933
166.2037622346592,283.81922730535433,315.5588055857235,330.0963504178709,277.9240813565718,236.07420366474744,126.63136478409011
166.2844338840256,283.8089287450939,314.8726782784951,330.0347780774574,277.7555020625351,235.9679222758764,126.55606198491336
166.36580818585037,283.80367390974084,314.1808446490406,329.96561136068595,277.58767614008167,235.87304919679914,126.48060885966642
166.44730306469867,283.8018320332405,313.4838626623383,329.88949470112516,277.41942661208753,235.78914913858162,126.4052710391039
166.52828670354592,283.8018301514366,312.7823005345924,329.80712580877395,277.24962902814076,235.71570835339097,126.33037325963502
166.60810660016452,283.8021043217987,312.0767702905228,329.71924389190036,277.07715008069204,235.65218645639246,126.25625319865391
166.68611206857526,283.80105667404945,311.36796664079327,329.62672555749197,276.9008855707402,235.59798052335265,126.18320386819313
166.76161525611212,283.7971240713318,310.6566155904514,329.5306191365263,276.7198134069974,235.55236354746256,126.11147744825098
166.8338567687625,283.7888444709842,309.9434639339612,329.43206700717667,276.5329448670897,235.51450569935508,126.04133272189762
166.90205713087687,283.77481216607595,309.2294007690679,329.33229070378013,276.33923934387394,235.48353584720218,125.9730442651717
166.96550831589244,283.75363127143777,308.51554561953293,329.23268868984064,276.13761680982867,235.4585325822716,125.90684978214225
167.02359341883556,283.723973017318,307.80317450960746,329.13486420276223,275.9270429887594,235.4384720519394,125.84290533176566
167.07572629056364,283.68462819356336,307.09361952666177,329.04052539950993,275.7065463205774,235.42226385442186,125.78130567520854
167.12131694807337,283.6344541979461,306.3882642891927,328.95143935751264,275.4751497128997,235.40888031839964,125.72212957604698
167.1598136248795,283.5723323013811,305.6885331837711,328.86950324161893,275.23185125315257,235.39742982971794,125.66543820551576
167.19074270727933,283.497239886228,304.9957957532303,328.79675770760485,274.9756987594936,235.38712351156428,125.61123586775533
167.21369473552656,283.4083191895354,304.3113118426233,328.7352841910978,274.7058358850075,235.37726840655296,125.55946625275232
167.22832925985534,283.3048266461225,303.63629807515224,328.6871619512659,274.42146930739585,235.36734755874662,125.5100610926835
167.2344382440277,283.18606819055196,302.9719745099142,328.6545397794438,274.1218784677242,235.35706205957712,125.46297075937228
167.23198058124873,283.05143821124716,302.3194902814547,328.63964401890786,273.80651367666593,235.34627610369552,125.41813475622389
167.22103593616987,282.90047208067693,301.67986391149674,328.644668091959,273.475046656219,235.3349914444382,125.37544972563576
167.20175801568402,282.7327940619042,301.05404881946794,328.67172451849336,273.12731346725576,235.3234119173834,125.33479533485733
167.17438646494952,282.5480355287036,300.442994942846,328.7229186046874,272.7632778140678,235.31197286901667,125.29608150074274
167.13925188110613,282.3458499647802,299.8475977506456,328.800364339316,272.38307809568335,235.301276175735,125.25924569141641
167.09671762950342,282.1259758110407,299.26866443365645,328.9060827520007,271.9870441772434,235.29205312298015,125.22421045805706
167.04712577371083,281.8882150797122,298.70700033068454,329.0419615552962,271.57563777777665,235.28520910864958,125.19087669842355
166.99082517250733,281.63235020771083,298.1634757356637,329.20983431265455,271.14944499782115,235.28182796480618,125.15917112695435
166.9282325348249,281.3581506480067,297.6389600554815,329.4114982638838,270.7092665890111,235.28308467026687,125.12907564838105
166.85982403409128,281.06549252942216,297.13425293731785,329.648609573643,270.2561537238883,235.2901911049737,125.10059359797467
166.7860613976569,280.7544310851104,296.65012137912373,329.9226365493187,269.7913137471745,235.30443149433862,125.07371133557288
166.70735234579237,280.4251559018443,296.1873214045425,330.23493609609375,269.3160356924055,235.32716861777908,125.04841996224754
166.62408177592107,280.0779678759671,295.74650697111815,330.58677496451986,268.83174126560834,235.35976702342376,125.02476187751265
166.53663150822817,279.71335212647165,295.3281558984065,330.97922884310293,268.34003625690707,235.40355174619643,125.00282565217854
166.44533078447128,279.33201670011704,294.93261890748374,331.413135441944,267.84265202045646,235.45985342357807,124.98269321470791
166.35040534060096,278.9348295858667,294.56016792013554,331.88916832696805,267.3413786215206,235.5300198938064,124.96441390930377
166.25200632919572,278.5227866896903,294.21094048975095,332.40785879414307,266.83808170713036,235.61534519858327,124.94803007991553
166.15027972979814,278.097076255248,293.88491293485237,332.96950399981256,266.3347050754185,235.71704005441393,124.93359200120703
166.0453774106089,277.6591041724294,293.5820087848156,333.5741373512923,265.83318056196583,235.83629410277823,124.92112215149645
165.93740683494912,277.2104136720419,293.30219418744883,334.22162208537435,265.3353561538956,235.97429874057826,124.91058253787013
165.8264134026361,276.75263619717316,293.0454305581287,334.9116868460374,264.8430313673059,236.1321694991437,124.9018994398746
165.7124302754001,276.2875424663951,292.81161443754377,335.6438357365482,264.3579886711449,236.31089519985701,124.89500455557513
165.59551349640384,275.8170531507433,292.60062715053226,336.41731006113116,263.88192631785495,236.51138168646258,124.88982273979757
165.47570463170328,275.3431225043037,292.41237423550933,337.2311710465292,263.4164030310645,236.7344719620609,124.8862203191623
165.35299045101752,274.86762749722715,292.2467091283538,338.08433126189783,262.96288831687275,236.98087594352134,124.88398937003733
165.22734191621302,274.3923806497004,292.10337520621516,338.9754681396663,262.52280226061356,237.25112392190684,124.88288743103541
165.0987882374704,273.9191711607076,291.9820794159829,339.9029926918222,262.0974405811051,237.54560938685114,124.88266615693624
164.96742394707897,273.44970666218035,291.88256059583426,340.8651415796501,261.6878936915976,237.8646091071518,124.88304700548122
164.83335164034366,272.98551947829054,291.8045295748506,341.860020360995,261.2950746959447,238.20821685682782,124.88369912058253
164.6966622964225,272.52797038568,291.7476065789113,342.88552904490115,260.91976716298814,238.57630441519726,124.88427821566268
164.5574868248082,272.07831575196906,291.7113712159355,343.93934171691484,260.562573509277,238.96857424083962,124.88448613808592
164.41602598491934,271.6377062722899,291.69540291277383,345.01900866710423,260.22383737478486,239.3845914461994,124.88407365358125
164.27249761319294,271.20713213998914,291.69920524090384,346.12200690558996,259.9036863770572,239.8237375570516,124.88279409875605
164.1270779324471,270.78744039159795,291.7221417056564,347.24566716473475,259.60216455402076,240.28520990251474,124.88038640453036
163.97992209476038,270.37941121525006,291.7634942764289,348.38714921596915,259.31928572000976,240.7681250562594,124.87661178883074
163.8312201977862,269.9837634171941,291.82251975480267,349.54353828854244,259.0549797924059,241.2715882214292,124.87127726619921
163.68119091925792,269.60109416124874,291.8983916193533,350.71189314147244,258.80908830508076,241.7946534874948,124.86419853670743
163.53001552742967,269.23187629198134,291.9901542025374,351.8891724948876,258.58146302253044,242.33629707113022,124.85514967419832
163.37781378909787,268.8765098381556,292.09680337203736,353.0722073645009,258.37201465533525,242.8954696896238,124.84386607775014
163.2247015265469,268.5353061443018,292.21736296138806,354.257793778684,258.18062124171934,243.47111450037474,124.83008655800445
163.07083661665402,268.20840304470914,292.350840638523,355.44274053253264,258.00702195665866,244.0620973838433,124.81356299839118
162.91638023968983,267.8957514770652,292.49619180706065,356.62379723411175,257.85082046897213,244.66717115753767,124.79401726293929
162.76144312141068,267.5972119875215,292.65239988777574,357.7976280168427,257.7115297389046,245.28503460803088,124.77110880268611
162.60611298769695,267.3126184011443,292.8185395472291,358.9609076879594,257.5885449106745,245.91436751436947,124.74446444651451
162.4505331959506,267.04173981617544,292.99371666562894,360.1103762520607,257.48109700880224,246.55377703870127,124.71372975974282
162.29492473477654,266.78427488275383,293.1770214062672,361.2427772307978,257.38830637015525,247.20176993312666,124.67857116284699
162.13953120326985,266.53995204898933,293.36760181819994,362.35484845806394,257.3092884919841,247.8568132057271,124.63863701635641
161.98457647128407,266.30859722755423,293.56472088076737,363.44344007020845,257.2431727415437,248.51736975417134,124.59355011533695
161.83028177942552,266.0900881443244,293.76768562838464,364.50558328584316,257.189054371821,249.18185087868582,124.54295238905566
161.67687594350832,265.8843313395921,293.9757808792819,365.5384255747746,257.1460107920006,249.8486069729988,124.48653617298301
161.52454694895002,265.69134058216736,294.18832111071754,366.5392011794641,257.1131698893484,250.5160166649768,124.42401804212446
161.373399549096,265.51128239609824,294.40469480502736,367.5053197121483,257.08970547439446,251.18254184798147,124.35510738107129
161.2234979232176,265.34441646172706,294.62428580994526,368.43440964399,257.0747722367202,251.84667184695164,124.27952985381862
161.0749484553032,265.19106797879596,294.8463928323797,369.3242405905524,257.06751991933953,252.5068811576327,124.19707332128642
160.92791368734342,265.05170121292144,295.0702780986714,370.17269126038315,257.0671942428094,253.16168274927637,124.10758650063717
160.78255178877393,264.9269529614032,295.29524454626466,370.9778406456256,257.0731735395128,253.80966529853603,124.01093713684449
160.6389834952573,264.81755614501594,295.5205968439619,371.73801335125466,257.08490260612905,254.44944272922854,123.907000679418
160.49732946206908,264.7243055694277,295.7455530130489,372.45169828193553,257.1018691480331,255.07962950586088,123.7956992306326
160.35773577756075,264.6481473741524,295.9692486098948,373.11751005637774,257.123680062324,255.69890742467408,123.67702541529354
160.22032733460608,264.5902292505651,296.1907947050447,373.73427594236114,257.1500946672107,256.3060631300472,123.55100634631953
160.08516071289807,264.5517994351511,296.4092533255359,374.3010796367862,257.1809342031085,256.8999273896674,123.41765722187844
159.95226365906393,264.53409411040724,296.6235515070405,374.8171787037213,257.21600088966875,257.47934087935903,123.27699349906337
159.8217178823238,264.5383324941287,296.8324915476212,375.28196374858,257.2551169741571,258.04322238804895,123.12908550699687
159.69367507678083,264.5657138994558,297.0348796952948,375.69504176370884,257.2981800361562,258.5906163458319,122.9740761338039
159.5682972389096,264.61733019932666,297.2296069643492,376.05627538200895,257.3451046130629,259.12064079404803,122.81213671877566
159.44571922985665,264.69410982753595,297.4156225320823,376.3656957507256,257.39571865882147,259.6324527414078,122.6434274194503
159.3260762020953,264.7968693061052,297.5919525786227,376.6234562186551,257.4497715540824,260.1253034526172,122.4681175808401
159.2095187597891,264.9263443277183,297.75782119544164,376.82990789607635,257.5070433765436,260.59856686387474,122.28642775302404
159.09616056358348,265.0831233761412,297.91271295315124,376.9856303231639,257.567389038002,261.0516704887827,122.09862399710602
158.9860274159294,265.26761302750043,298.0563125784951,377.0913378310082,257.6306734491822,261.484047055667,121.90497249300498
158.87908760560137,265.4801075740578,298.188476652596,377.14783123799197,257.6967511510323,261.8951836851211,121.7057263111233
158.77532059933498,265.7208266214717,298.3093029570684,377.156077590218,257.7655558284353,262.28465609805454,121.50116587877089
158.67472346886714,265.98984106902356,298.41914873411923,377.1172491639728,257.8371506987454,262.65207170573,121.29162808533543
158.57725189207824,266.28702073602744,298.5185374774625,377.0326367944484,257.911655374029,262.9970335723286,121.07748072070049
158.4827918410334,266.612088773128,298.60811077319346,376.903602957119,257.9891842891389,263.31920032569843,120.85909629950778
158.39120183384088,266.9646584406907,298.68869543521384,376.73165708239054,258.0698882474131,263.6183271615551,120.63688511547102
158.30234666921032,267.3441726683949,298.7613328048676,376.51848600536715,258.15398281358256,263.8942106189438,120.41134944475182
158.2160697345617,267.74987735833554,298.8272019330884,376.2658553975138,258.24168607017054,264.14665136253683,120.18308190501978
158.13217364385824,268.18091022703135,298.8875924236197,375.97555062116356,258.3331844856777,264.3755117966948,119.9527128727983
158.05046180223044,268.6363630907028,298.94398916220246,375.6494468409205,258.4286980139042,264.58075334699237,119.720883259166
157.97076925720467,269.11522236042947,298.998098877885,375.28954406223716,258.5285180213658,264.762374375533,119.48826942239319
157.89292331985934,269.61632478821986,299.0517389814687,374.89787717315807,258.63294633775445,264.92036203970497,119.25559786462404
157.81670431185765,270.13842694047804,299.1067492707975,374.47646558778416,258.74227135554423,265.05474006948845,119.0236064429522
157.74188825108044,270.68025956241826,299.165017571147,374.02739283232023,258.8568588325108,265.1656047417799,118.7930054941582
157.66832383453482,271.2404715290239,299.2284818953345,373.552847940096,258.977212331675,265.253069849259,118.56450211472435
157.59593985060056,271.81758662174633,299.29903476623525,373.0550314824203,259.10391314681243,265.31722853442733,118.33885385165482
157.52468355610313,272.4100640413571,299.3784705223018,372.5360875479325,259.2375750497456,265.3582093265966,118.1168717058209
157.4544888072341,273.01634231791843,299.46854270065313,371.9981577190233,259.378898493628,265.3762161160325,117.89937120105174
157.38531209876416,273.6347807220262,299.5709829490003,371.44340308271126,259.5286917154085,265.371476272411,117.68714755303921
157.31715675441967,274.2636213747433,299.68741154306343,370.873907090321,259.68777266229745,265.3442101431689,117.48100382154354
157.25003241821977,274.9010583178398,299.8192883307992,370.29161788622224,259.85688081790516,265.29469678947356,117.2817685507291
157.18392188874395,275.5452878547702,299.9679753357214,369.698418832323,260.03669645996706,265.22331915543606,117.09025653364684
157.11882251236142,276.19445114906966,300.13476189057457,369.096167839849,260.22785482700476,265.1305093760219,116.90722296155485
157.0548005523933,276.8465959165049,300.3207805289023,368.4866146760594,260.4308639970665,265.01670772612994,116.73337271356915
156.99197009156654,277.4997501244765,300.5269651539888,367.87135504055215,260.64603687420794,264.88241530953434,116.56939527169072
156.93042529330256,278.1519819258551,300.75412609753005,367.25191275289995,260.8735255685879,264.7282295081712,116.41595493212145
156.8702243559835,278.80135028310673,301.0029904475629,366.62978940267897,261.1133509032615,264.55478313508763,116.27364186451084
156.81143884602756,279.44586902538356,301.27413052622387,366.006386771964,261.36534688900497,264.36269917110286,116.14295874141712
156.7541760258226,280.0835773928176,301.56792757193006,365.3829614196165,261.6291323017656,264.1526419955022,116.02436539094826
156.69852280339617,280.7125936769116,301.8846436118225,364.76070644978654,261.90418539108214,263.92535501663764,115.91831032221657
156.64448211097618,281.33106139579877,302.22445388090216,364.14080026494634,262.1899003315533,263.6816060297666,115.82519993010767
156.59198230247674,281.9371139710057,302.58736587331606,363.52432433579924,262.48554490862716,263.4221532279645,115.7453607298532
156.54092940278682,282.5289484891839,302.9731721634331,362.9122075882886,262.79024369920677,263.14781014177106,115.67906066396448
156.4912127472143,283.1048797058,303.38151590938793,362.3052973080953,263.1030678112336,262.85949151936734,115.62655607277482
156.4426518031293,283.6632774357144,303.81192994863335,361.7044045639694,263.4231010997303,262.55815376839547,115.58808728955374
156.3949703438541,284.20251239575316,304.26377933049986,361.1102286826798,263.74939506571576,262.244738599649,115.56382508141785
156.34785429248018,284.72101218824963,304.736249446774,360.52331413779933,264.08093246946277,261.9202051427098,115.55384324001882
156.30102717995618,285.21731062270993,305.2284409591527,359.9441338752549,264.4166803010908,261.58555282579897,115.55814612088507
156.25425034241098,285.68999445214104,305.7394158847812,359.3731421331044,264.75561800302165,261.2417600327008,115.57669078436017
156.20726816757664,286.13766618259547,306.268121456833,358.8106992310933,265.09667193672385,260.8897391763586,115.60936079651266
156.1597922125719,286.5590160112425,306.8133412444212,358.25702447163,265.4386888594309,260.5303814029172,115.65594349469839
156.1115418728021,286.95288066794404,307.3737547485086,357.71227717912706,265.78053428389126,260.1645857833353,115.71616770761375
156.06226103779903,287.31819852479515,307.94796915708764,357.17661245251503,266.1211746020435,259.7931967832332,115.78976163249287
156.01167044718736,287.65398882776435,308.5344499880779,356.65011173572043,266.4596361404528,259.41695750598495,115.87645384548858
155.95943154668274,287.9594428556958,309.13149547600364,356.1327416778133,266.79496831305437,259.036560374079,115.97592504978687
155.90519557490487,288.2339867526981,309.7373338481617,355.6244425035432,267.12631176057346,258.65268968259915,116.08779011820833
155.84868425514634,288.47721542012636,310.3501917810814,355.1251915140936,267.45295044489166,258.26597269089183,116.21163665802123
155.78969676899774,288.6888302432469,310.9682442547148,354.63493642437,267.7742593152892,257.8769451093823,116.34705260319699
155.72804351846804,288.8686852011081,311.5895923657197,354.15354768880474,268.0896713052102,257.4861147041209,116.49359591248334
155.66350877135469,289.01682151435455,312.21235573444807,353.6808916105461,268.3987440290178,257.0940134201743,116.6507610610717
155.59588996625874,289.13339374159654,312.83473121726456,353.21687591004485,268.7011952653722,256.70114887667563,116.81800748399645
155.52503619645756,289.2186069181795,313.45493157014306,352.76136990553863,268.9968243358946,256.30796138323535,116.99481618627912
155.45081585282355,289.27276300363144,314.07115291699085,352.3141535148064,269.2854544551908,255.9148756157806,117.18069454546438
155.37306925876578,289.29629990646686,314.68165870936184,351.8749978486902,269.5669893096665,255.52234387748362,117.37512926415586
155.29162872180035,289.2897253490326,315.2848342091339,351.4437222212728,269.84145509800345,255.13079463988117,117.57756557066045
155.20637552357724,289.2535621329717,315.87912885397424,351.02011945274677,270.1089356232648,254.74058958687118,117.78744292342462
155.11724084829297,289.1884024767569,316.4630366152527,350.6038989158548,270.369527601308,254.3520745039591,118.00422166064938
155.02413992312526,289.0949543402757,317.03519367358274,350.1947537287103,270.6234037987011,253.96562069888867,118.22735183556063
154.9269281239353,288.97398252563164,317.59443233148863,349.7924073410882,270.8708522245875,253.58157277527468,118.45623620620167
154.82543921203887,288.82626018435667,318.13969658307053,349.39653890589017,271.11219844474573,253.20020864605766,118.69025064112243
154.71954730147235,288.65262386508766,318.6699680597478,349.0067363340726,271.347737275188,252.82179774338377,118.92878967652706
154.60916515558932,288.4540145263726,319.18430153930825,348.6225803580236,271.57776988477184,252.44664897629826,119.17126383649618
154.49420527599773,288.2314114850209,319.6818421391942,348.2437081354113,271.80263148949024,252.07505750300055,119.41705304486906
154.37460512857425,287.9857793313733,320.1617447871417,347.8697462229779,272.0226223127921,251.7072569197565,119.66548980042434
154.2504203298002,287.71812476710943,320.62313359753176,347.50025945448874,272.23795630312793,251.3434705762188,119.91589666136024
154.12187416374599,287.42954283712885,321.0651796238304,347.1348251848597,272.4488102148507,250.9839590740011,120.16761381409655
153.98931935341966,287.1211528535237,321.48715050858675,346.77308817660116,272.65535548179855,250.62897021908648,120.41997123519808
153.85320306483982,286.79404569274544,321.8883455721934,346.4146884731986,272.8576885923087,250.27869094243763,120.67225638094615
153.71409501134784,286.44934512725877,322.26806013941166,346.05920767327797,273.0557802697504,249.93329283187484,120.92373938564313
153.57271007828987,286.08826074374764,322.6256641488269,345.7062418402692,273.24953525625693,249.5929732483282,121.1737247527246
153.42985766604107,285.7120249071514,322.96064886079796,345.3554569246269,273.4388436364391,249.25790313921024,121.42155415992215
153.2863693648491,285.32183240445244,323.2725552452876,345.00651909294857,273.62352366705454,248.92818074530857,121.66655875705929
153.14309153206892,284.91889109409095,323.5609298506677,344.6590422679917,273.8032672023864,248.60387885833273,121.90803449429761
153.0009234651815,284.5044686449431,323.8253954143883,344.3126579199136,273.9776875849724,248.2850847554703,122.14527370917598
152.8608109243423,284.07983010719084,324.0656921101417,343.9670642513107,274.1463667538781,247.97184517403443,122.37759431449669
152.72368903261398,283.64618059947344,324.28160115090526,343.62194975534237,274.30881281951594,247.6641190127749,122.60431697421276
152.59046404079217,283.2047158125048,324.47289434627874,343.2769342246257,274.4644355911354,247.36182809826605,122.82473628229064
152.46205933305194,282.7566661595328,324.63940147348126,342.9316350515849,274.6126201625019,247.06490494484453,123.03814826493388
152.33943811542926,282.3032324093305,324.7810538395349,342.58571873893527,274.75277868822167,246.77324718700388,123.24390470310657
152.22355974963745,281.8455250006214,324.8978105047274,342.23883015635397,274.8842968167075,246.48667995219705,123.44141903851653
152.11534548370864,281.38460915030475,324.98960728639435,341.8905400190931,275.00650508961496,246.2050161515255,123.63012369759578
152.0157002384862,280.92154751120756,325.05642330580406,341.54041899171983,275.11877066465905,245.92810965924116,123.80945392335005
151.9255215180674,280.45734217078933,325.09832962040866,341.188097002307,275.22057539353847,245.6558018077953,123.9788876635212
151.8456478106779,279.9928853148823,325.1154311942769,340.83319798792417,275.3114719063931,245.38785895615138,124.13797713986152
151.77682068744903,279.5290152437037,325.1078397914537,340.47529153504877,275.39103833601104,245.12401253197044,124.28632211799912
151.71972541482654,279.0665652006811,325.07576070258904,340.11397077796204,275.45893195001946,244.86402287261006,124.42353436290159
151.67503956886182,278.60630581587515,325.0195456464957,339.7489130830406,275.51492677499306,244.60764884309754,124.54925821780643
151.6434011951431,278.1488949266931,324.9396210033952,339.3798129142157,275.5588442575378,244.35457888731904,124.66321940779385
151.6253414037797,277.6949370041847,324.8364363904858,339.00633178943065,275.59049503514785,244.10444495075456,124.76522811950271
151.62128709514363,277.24503894351915,324.7105280455997,338.6281777711696,275.609726537958,243.85688923395887,124.85513530118865
151.63163190949558,276.79975872137817,324.5625574449789,338.24516900397794,275.6164630873146,243.61156065772272,124.93281353638261
151.65676751244726,276.35955880511256,324.393233318023,337.85716672209315,275.6106424465854,243.36804578945205,124.99818970442857
151.69703428377332,275.92486613525483,324.20325868453017,337.46402215011557,275.5921548276522,243.12586672144644,125.0512675624671
151.75267888962722,275.4961254324757,323.9933968366379,337.0656526506499,275.5608783192347,242.8845763408817,125.09209465840463
151.82387691987563,275.0737438715775,323.7645144117334,336.6621023909871,275.51671172438375,242.64381751372758,125.1207248420473
151.91075277989904,274.6580427311297,323.51750741507163,336.25346815190034,275.45951874623887,242.403288059002,125.13723971129824
152.0133328732019,274.24932165221145,323.25325332499466,335.8398310060176,275.3890918470374,242.16273337009017,125.14179811216779
152.1314915780343,273.8479201104707,322.97268400242655,335.42131556942604,275.30522602401754,241.9220255628963,125.13463798927023
152.2649799103077,273.45416351520123,322.6768351845672,334.998142607941,275.2077817586367,241.68120663951157,125.11602948855864
152.413508011588,273.0683009906716,322.36677500375833,334.57055646818026,275.0966299409418,241.44043581338735,125.0862508055322
152.57676955717722,272.69055313856813,322.0435530262502,334.1387609974298,274.9715951415302,241.1999637876787,125.04561482211315
152.7543793738594,272.3211766961868,321.7082670892186,333.7029816003607,274.8325161027761,240.96019460763048,124.9944873993366
152.9458168419003,271.96041954607375,321.36210681091336,333.2635205297574,274.6793198577916,240.72171331864865,124.93325339794457
153.15044720231765,271.60843645742887,321.0062745506101,332.8206922855264,274.511978737142,240.4852203017179,124.86227866032948
153.3675704649317,271.2653014786576,320.6419227749232,332.37477614399904,274.3304295306682,240.25149604464468,124.78192732149168
153.59641287679446,270.9310786155426,320.2702088106616,331.9260956095265,274.13459740208634,240.02145730057129,124.69260500127814
153.83607733160358,270.6058184798071,319.8923321506393,331.47507962095887,273.92448213957226,239.79618090748565,124.59475650476325
154.0855406479439,270.2895010928065,319.509456336245,331.022188804845,273.7001673727563,239.57683234868503,124.48881826773486
154.3437117847137,269.9820494048508,319.1226521503525,330.56784941163164,273.46177033319105,239.36462111442353,124.37519644515038
154.60946725218258,269.6833955953027,318.73296092272034,330.1125162665432,273.2094538680979,239.1608467034256,124.2542982818338
154.88162485933407,269.39347121537133,318.3414400616619,329.6567286944849,272.9434793787375,238.96691649192218,124.12655562986333
155.1589284973585,269.11212967904254,317.9490885835131,329.2010387290555,272.66418070487526,238.7842730063754,123.99239517232213
155.44009511776352,268.8391501036025,317.5567866603731,328.74594558243166,272.3718783574355,238.61434401962018,123.852207510131
155.72385864268756,268.57435017549625,317.1653511899169,328.2919571636472,272.06687141832026,238.45857220376303,123.70637856837148
156.00894551670842,268.31765123611416,316.7755780173161,327.8396451759517,271.74952126798985,238.31841190132178,123.55534840702565
156.2940359916746,268.06903121925535,316.3881757259453,327.3895731623838,271.42028617522726,238.19523853975738,123.39961614269754
156.57780024667113,267.82850703473974,316.00372481092506,326.94223151357073,271.07966158987097,238.09028897056177,123.23969057449452
156.85898524483036,267.5962151373559,315.62275531758877,326.49810024326194,270.7281613100423,238.00469858084756,123.07606693079588
157.13644449043474,267.37245354316207,315.24580324821335,326.05770511605573,270.36639699761304,237.93952295939704,122.90926351141404
157.4090836431563,267.1576186150588,314.87334668380254,325.62154545748075,269.9951166062561,237.89567933273463,122.73985154846412
157.6758142383236,266.95217594735254,314.5057566019633,325.19002710739767,269.6151268035701,237.87391842504957,122.56842410094931
157.93558067777002,266.7567335207626,314.14336136412345,324.7635229371768,269.22724005506325,237.87488417602285,122.39555347411742
158.18740255192077,266.5720759349566,313.78649400866163,324.34242959951365,268.8323442531711,237.89914264030764,122.22180338113435
158.43035477974746,266.3990884724901,313.4354266525546,323.92709941140396,268.43146323670686,237.94711908172744,122.04776781000233
158.66351752006287,266.2387091357221,313.0903243112255,323.5177801477871,268.02568841298154,238.0190658910689,121.87406379264606
158.88598316063073,266.0919793745398,312.7513142999813,323.1146857693658,267.616085354681,238.1151298841274,121.70128108804579
159.096919263826,265.9600588118956,312.4185373439327,322.7180644664936,267.20369763322964,238.23539698278972,121.52996501868114
159.29559709515877,265.8441375901983,312.09208171720843,322.3281373668774,266.7895733381584,238.37984053646258,121.36065903915625
159.48135466724048,265.7453858922231,311.7719348279959,321.94503947424295,266.3747052370314,238.54829003924038,121.19393665149249
159.65357816898154,265.66501112775615,311.45805450067377,321.56888998199526,265.9599548919811,238.74049068987264,121.0303699905518
159.81175217369912,265.6042817863563,311.1504270479879,321.19986038071676,265.5460853440831,238.95613864527124,120.87048665772069
159.9554982654026,265.56444177574366,310.8490080519958,320.8381117059584,265.1338510155666,239.19482534236425,120.71478151219131
160.08453761858675,265.54665234269686,310.55367585979764,320.48373007704913,264.72400651781686,239.45600645567416,120.5637565936903
160.19865179775354,265.55203863869514,310.26429869435316,320.13678740022493,264.31725978418325,239.73906069590072,120.41791652374678
160.29772193788602,265.5817084751641,309.9807832444228,319.7973994457336,263.9142937776848,240.04332256069588,120.27771924143708
160.38179115547246,265.6366719392436,309.7030049067249,319.4656535926516,263.51582710978573,240.36802346743792,120.14355630742887
160.45105461752487,265.7177982691705,309.43075657221186,319.14153034790485,263.12258438463857,240.71225838918048,120.01579225365391
160.50579790174154,265.82588128547405,309.1638206161846,318.8249569237391,262.7351944579409,241.0750472961218,119.89479646416042
160.54638376755642,265.9616735564569,308.9020280781642,318.51588618847074,262.3541655014837,241.4553751102437,119.78091462966415
160.57330293791608,266.12581362863017,308.64519732308116,318.2142497823054,261.9799676879329,241.85213728089087,119.67442958137947
160.58719551603932,266.3187829672933,308.3930822675964,317.91986193317103,261.61308217043216,242.2641050145116,119.57557877308723
160.58880239617125,266.5409677606614,308.14543403985573,317.6324364929101,261.25395626699566,242.68998557437826,119.48460078767403
160.5789271492244,266.7926892563038,307.90204812706475,317.3516802007843,260.9029911985697,243.1284671546585,119.4017348346601
160.55845658123587,267.07412589337997,307.66269552478684,317.077302750369,260.5606197036176,243.57817260756312,119.32717132427078
160.52836628346196,267.38526411815286,307.4270671569764,316.80895622011786,260.22733873045433,244.03762880783884,119.26102787359113
160.48965916207078,267.72596016327486,307.1948367380517,316.54625242265706,259.90362547513854,244.50532406447834,119.20338216108584
160.44331081990518,268.0959802720268,306.9657153738698,316.2888460132086,259.5898728828558,244.9797464447235,119.15429958710287
160.3902935095455,268.4949374327916,306.7393931127708,316.0364368171874,259.2864420076496,245.45933254040142,119.11380585523585
160.331621914051,268.92225595069357,306.51549409082145,315.7887072408391,258.9937114849984,245.94243609819767,119.08185398330416
160.26832920934416,269.3772436297269,306.2936474701913,315.54534374716854,258.7120143585598,246.42738829293845,119.05835253761391
160.2013956764156,269.85913840295876,306.0735427794408,315.3061243781744,258.44156657878887,246.91253975998504,119.04322603679091
160.13172990350307,270.3670479630136,305.85486387925704,315.07091747125327,258.1825066343198,247.39621070608183,119.03642524459083
160.06021899713406,270.8999118762189,305.6372339111724,314.83960445237454,257.9349621540164,247.87665837685074,119.03787808225155
159.98775040970347,271.45656536072926,305.4202822087421,314.61208091325733,257.6990155081622,248.35213791952447,119.0474547098574
159.91515563406105,272.0357782366738,305.2037041008,314.38832721611345,257.4746258191523,248.82094979344342,119.06498532978085
159.8431607502814,272.63619506920696,304.9872023923986,314.16839898736515,257.2616407751656,249.28139877742254,119.09027810386627
159.77242379740923,273.2563073320154,304.77043837935247,313.95234731677033,257.05987066762356,249.73177192838327,119.12309044675932
159.70360284513762,273.8945332180594,304.5531006684845,313.7402187801884,256.8690972756212,250.1704084286528,119.16309777222618
159.6373546085322,274.5492711125284,304.3349614082067,313.5321279035966,256.68903243542843,250.5957503346578,119.20991983242799
159.57427922471635,275.2188456966741,304.11581233765247,313.3282529553573,256.5193460052771,251.00630045993086,119.26317578442459
159.5149133472209,275.9014770446151,303.895412452772,313.1287617255332,256.3597429639906,251.400599852174,119.3224926926593
159.4597894964113,276.5953528618101,303.67355563141797,312.9338157699928,256.20995764189416,251.77729843521473,119.38746316332714
159.40946257538235,277.2986739292116,303.4501267583666,312.7436445534748,256.06966958157045,252.13520290539964,119.45762305478272
159.36445492666974,278.0095920644556,303.2250369231777,312.5585381037129,255.9384892610355,252.4732233527506,119.5324820515205
159.3252065674492,278.72617030481604,302.9981680058056,312.37876496465907,255.81605137670812,252.79033248589568,119.61155031285982
159.29210748840364,279.44644860164124,302.76943680237895,312.20456791546184,255.70207157357754,253.0856189667388,119.69431300474548
159.2655537339054,280.16848978275056,302.53884980340854,312.0362339266201,255.59629847945632,253.35832569168267,119.78019867734297
159.24593563501136,280.8903273055833,302.3064389573016,311.87408694288354,255.49848886900514,253.60779485930402,119.86860539736007
159.23358549272083,281.60994288249645,302.07220701423233,311.71840463665495,255.40847522437693,253.83343088324966,119.95895735250126
159.2287812664366,282.3253505055247,301.83619200694903,311.5694097260855,255.32620358127514,254.03475984956404,120.05071464629607
159.23180771071384,283.0346526866139,301.5985225840196,311.4273377675581,255.25168013323847,254.2114722540408,120.14333103354717
159.24297610029546,283.7359855728951,301.3593551515529,311.2924337363244,255.18495281264055,254.363364830693,120.23623317254379
159.26256550255002,284.4274845921227,301.11882136892456,311.16487645963554,255.12618543033133,254.4902901890952,120.32885508217258
159.29077473518086,285.1073566126407,300.87709427993536,311.0447791804295,255.07568960303786,254.59219950152385,120.42066818309061
159.32775990828492,285.77392931808134,300.6344430845906,310.93226663910986,255.03384947385868,254.66917432088863,120.5111576419882
159.37369690130495,286.4255914554127,300.3911668289607,310.82747811002963,255.00107673184849,254.72136749038356,120.59979241820213
159.42876801378873,287.06075272460777,300.147535602323,310.73049355924365,254.9778724465304,254.74896087457452,120.68605314540015
159.49308804486265,287.6779102080398,299.90384870006415,310.6413324432394,254.96486302543042,254.7522194384978,120.76948938966784
159.56667180414343,288.2756934671083,299.6604829229517,310.56002864437943,254.9627297801581,254.7315296374823,120.84972819502907
159.6494722559029,288.8528021597663,299.41782331276124,310.4866323072001,254.9721584121347,254.6873381056264,120.92642939519541
159.74140475749786,289.40796413150997,299.1762031209868,310.4211342382852,254.99388465532715,254.62010016476071,120.99926188427155
159.84230487627073,289.9399997926925,298.93596057157407,310.3634629337986,255.02871230164226,254.53032374665102,121.06793301936054
159.95189240749383,290.4478655191722,298.69748594030347,310.3135606129647,255.07743259049474,254.41860437718245,121.13221061019019
160.069813912445,290.9305910989803,298.4611511312836,310.27138807267767,255.14077361810135,254.28556984629918,121.19188982353607
160.1957075066661,291.38723820894165,298.2272499397895,310.23684983012197,255.2194553009431,254.13183902333046,121.24675388467581
160.32919641259315,291.8169646620947,297.996060244463,310.20978772276175,255.31422211932832,253.95807321316144,121.29659230306994
160.4698325137109,292.21906778584946,297.76790009186146,310.19005166673287,255.4257785697844,253.76501257975087,121.3412486611925
160.6170885991494,292.59292286547935,297.5430629582397,310.17750148918736,255.55475615223884,253.55341774494863,121.38062299789594
160.7704156221366,292.93794409021007,297.32175669988436,310.1719324450521,255.70178291743818,253.3240252961865,121.41462513499474
160.92927311636083,293.25365172925376,297.1041609231717,310.1730714292214,255.86751793372935,253.07760125982054,121.44315120566745
161.09308479492512,293.5397152163951,296.89048171319274,310.1806522735485,256.05257184165714,252.81498606731893,121.46611651058042
161.26119703042434,293.7958848611428,296.6808915247843,310.1944219906862,256.25745229361496,252.53704315163537,121.4834848733072
161.4329156594925,294.0219438894199,296.4754758176039,310.2140682202499,256.48262305976937,252.24460976946017,121.49524299797942
161.6075691593722,294.2177740257953,296.27429790000514,310.23921706929946,256.72854723494146,251.93853281739786,121.50136585111052
161.7845016638186,294.383405949886,296.0774585211115,310.2695120608576,256.99563085135617,251.6196944179504,121.50183734758406
161.96300412884898,294.51895945631776,295.88503866974054,310.304624118694,257.2841926445166,251.28895419469285,121.49669886795665
162.1422805434438,294.62459774254216,295.69705151701027,310.34418031217274,257.5945314227425,250.94711338875888,121.48605025508988
162.3214854337909,294.7005875369134,295.51351576423946,310.3877601534949,257.9269573582598,250.59497746844087,121.46999760629954
162.49975480832367,294.7473407343983,295.3345212918175,310.4349715115694,258.28171541066956,250.2334057806628,121.44861908386945
162.67617319290068,294.7653481424513,295.1601691039331,310.4854577440559,258.65894233746127,249.86326140287696,121.42199114567536
162.8497409111326,294.755131593914,294.9905089663099,310.53882310639153,259.0587402218032,249.48536609918264,121.39022693040533
163.01941321297537,294.71730431259647,294.825591374346,310.5946234818702,259.4812246667778,249.10054702186275,121.35346427757874
163.18416277672932,294.6526109579669,294.66551510162145,310.6524363651916,259.9264554545921,248.70967497565823,121.3118254240156
163.3429780349234,294.5618522255788,294.5103623585237,310.7118656749777,260.39438573335866,248.3136107103709,121.2654187533281
163.4948151511465,294.4458195251219,294.3601488518152,310.7724691983939,260.88492153545997,247.9131579103367,121.21438648153261
163.63859785337254,294.3053389373081,294.21489862605057,310.83375366714625,261.397959582057,247.50910508487405,121.15892490942659
163.77328307173298,294.1413064568385,294.07470987030104,310.89524914082796,261.93331654930785,247.10225911027075,121.099242340601
163.89790168925396,293.9546210629338,293.9396925705187,310.9565162905981,262.49068007177493,246.69339131722558,121.0355168166794
164.0115240828572,293.7461356187781,293.8099067674128,311.0170744246217,263.06966322799093,246.2831988666091,120.96791837536102
164.11322609526957,293.5167163499925,293.6854223795494,311.07639870248545,263.6698337538738,245.87236393594915,120.89666339487563
164.20213031715716,293.2672868215285,293.56637602564774,311.1340011324117,264.29064136431316,245.46160271955497,120.82202072739493
164.27747220728975,292.9987636491414,293.45290113127044,311.18944514611286,264.9313769324364,245.05161313364889,120.7442630216363
164.33859885907046,292.7120080047607,293.34504859948385,311.2422794193992,265.5912431787164,244.64302579163737,120.66363941908958
164.38491653509084,292.4078872843343,293.2428293284789,311.29205468343855,266.26940029056425,244.23645155530534,120.58041262195171
164.4158854213076,292.0873238846343,293.1462792314282,311.3384482987406,266.96490412236165,243.83252595830186,120.4949038079845
164.43108045516303,291.7512354567146,293.0554085095944,311.38131143946487,267.6766749337219,243.43186076039473,120.40747755596625
164.4302223175696,291.40048740686,292.9701115539192,311.4205753552816,268.40357989974245,243.03500084857828,120.31849332326303
164.41312735265868,291.0359515585704,292.8901883103863,311.45619582881017,269.1444887789159,242.64247158859368,120.22830019663705
164.37965887455897,290.6585499272871,292.815434938576,311.48823195855095,269.8982111606766,242.2548169729102,120.13727990189055
164.3297609777133,290.2691903304551,292.74565242288844,311.5168994329097,270.66344646055614,241.87254818422153,120.04586326501266
164.26352257725907,289.868716930473,292.6805911905913,311.5424892453931,271.4388391794071,241.49611040286604,119.95448471526262
164.18117331922224,289.4579721533484,292.61997057356916,311.5652988411532,272.2230182105154,241.1259510871555,119.8635361581261
164.08302544127454,289.03784738220617,292.5635533478583,311.585688179541,273.0145330347167,240.7625738383713,119.77338494111612
163.96946072656124,288.6092236120392,292.511138911927,311.6041218642715,273.81180655039526,240.40648389174498,119.68442607470627
163.84098269118203,288.1729228392507,292.46249963681424,311.62108830389496,274.613190910751,240.05813775286612,119.59708927719443
163.6982417399467,287.7297683260051,292.41740263082477,311.6370352514519,275.4170081644603,239.71799527217502,119.51179205324556
163.54198187058728,287.28063270581333,292.37569500002,311.65243114624394,276.22149166019136,239.3865677197145,119.4289116978121
163.37298631928167,286.8263756034544,292.33730612258995,311.66781305605906,277.0247496205701,239.06436514563268,119.34881238723543
163.1921014807913,286.3677916809307,292.302183157172,311.683712014929,277.82483660461224,238.751845577872,119.27186881837162
163.00028884573925,285.9056685898379,292.2703030019825,311.70059576819966,278.6198088724464,238.44945950644808,119.1984355515913
162.79860815877313,285.4408358219132,292.24174300060594,311.718938592314,279.4076755697394,238.1576894176524,119.12880738890922
162.58814488122835,284.97410502101326,292.21666704694655,311.73927590716437,280.1863714938204,237.87699545804782,119.06323559359696
162.36998074107976,284.50621955924316,292.1952446961657,311.7621298227586,280.953840036756,237.60777033469887,119.00197615326749
162.14523228198877,284.0379127762413,292.17764900633773,311.7879460120639,281.70809730117384,237.35039288355156,118.94529427586228
161.91506954920192,283.5699570473473,292.16412108259215,311.8171566062524,282.4471879547398,237.10527401330614,118.89341547199645
161.68066250050404,283.1031027670579,292.15495800582954,311.85023028476866,283.16916431432287,236.8727970091253,118.84649622225955
161.44312999385923,282.6380248224912,292.15043310560685,311.88759658889967,283.87217701721437,236.65325013048033,118.80465913071399
161.2035693575051,282.1753795951227,292.1507872578756,311.9295837581492,284.5545404641153,236.44685734784966,118.76803881302992
160.96311556310766,281.7158559701422,292.15628142931325,311.97648263646636,285.214677606988,236.25382680627825,118.7367695113368
160.7229313650383,281.2601167983579,292.16717681465263,312.0285983668827,285.8510703746946,236.07430609616276,118.7109371473853
160.48413944587037,280.8087471650213,292.18365948283304,312.08617923206197,286.46230737327653,235.90830916582118,118.69057107378102
160.24779548195986,280.36231219524535,292.20584947449896,312.14936270056324,287.04711248640336,235.75574768560546,118.67568412354038
160.01492772844924,279.9214065581214,292.23387843853345,312.21825028235446,287.6042708231963,235.61653716676707,118.66629086454304
159.78655585093756,279.48659297800856,292.26788873360243,312.29296856173823,288.13257239979714,235.49062667684248,118.66236821480067
159.56363790386226,279.05834887184113,292.30796207900113,312.3735988504252,288.6308650344013,235.37793152229276,118.66381551972724
159.34702353758507,278.637124722932,292.3541222601312,312.4601140914009,289.0980991914723,235.2783118325002,118.67047847137528
159.13749657896835,278.2233954080294,292.4064050373518,312.5524421675651,289.5332676931824,235.19164926548257,118.68220986422227
158.9358542083847,277.8176003136034,292.46485263351195,312.6505215020898,289.9353496750159,235.11789219875394,118.69888527578456
158.74291246693545,277.4200897550976,292.5294397274891,312.7542324212822,290.3033527590622,235.05700501196247,118.7203585166042
158.559441336065,277.03118179275015,292.6000742122913,312.8633375289644,290.63634993125106,235.00894190597413,118.746429937112
158.3861332602299,276.65121338198236,292.6766684928956,312.9775456845068,290.9334273866134,234.97370793785615,118.77687471932538
158.22364058189444,276.280482672357,292.7591382093608,313.09656613027244,291.1936561372872,234.9513890900956,118.81148093197957
158.072596539803,275.91919801532237,292.8473291728921,313.2200395245907,291.4161730695479,234.94209430403467,118.8500330077182
157.9335614239036,275.56753617020183,292.9410143410271,313.3474816550313,291.60025077488257,234.94593116172783,118.89226452860909
157.80696362685134,275.22569425235326,293.0399628364849,313.4783553327138,291.7452625428862,234.96307089016793,118.93785347232226
157.69311688701663,274.89383341847235,293.14394214206806,313.6121338738348,291.8506560406264,234.99377779920349,118.98646728719622
157.5922721570103,274.57203053000023,293.25265342158644,313.74823734857233,291.91602019694307,235.03834529499397,119.03778639343209
157.50461144040938,274.26034040744787,293.36574019891253,313.88597722148336,291.94113033096426,235.09706340338542,119.09146783450065
157.43019241574905,273.9588515307897,293.4828691304372,314.02463106255055,291.9258947004645,235.17027793641913,119.1471061265397
157.36893793885116,273.66763139753914,293.603739155089,314.16351411443424,291.8703264861308,235.25841703940566,119.20425649386753
157.32069376055537,273.38667893078735,293.7280176647839,314.3019236987092,291.7746214017323,235.36192163160868,119.2624926827715
157.28526502250816,273.11598845213393,293.8553454049754,314.4390832310419,291.63920866489457,235.48120094941945,119.32141953769309
157.26237635520394,272.85560703514597,293.98540932099814,314.5742050593176,291.4646817565797,235.6166782652933,119.38062879547027
157.25162905062,272.6055769473156,294.1179410567734,314.7065472648636,291.25173853855335,235.76880957169536,119.43967163273771
157.25253769797445,272.36587657732923,294.2526420528738,314.83535189674876,291.00123350523467,235.9380137531445,119.49809538392982
157.26460227931244,272.1364672249051,294.3891769591466,314.9597946790512,290.71422080268053,236.1246346596772,119.55549381726719
157.2873161674678,271.9173369296289,294.52723622701234,315.07905864908884,290.39188597817633,236.3289972119531,119.61150229965217
157.32011235956566,271.7084399584792,294.6665324725881,315.1923973238613,290.0354801640424,236.55143432712904,119.6657583353547
157.36234441133763,271.5096436292864,294.806736490288,315.2990689092848,289.6463516666755,236.7922198120206,119.71790143425392
157.41333606461038,271.32078327108957,294.9474894769111,315.3982724731029,289.2259653806887,237.051529580991,119.76761997644576
157.4724170646404,271.14171175870365,295.08848051698794,315.4892081067787,288.77581836957415,237.3294966060534,119.81467233677651
157.53888793577408,270.9722423375257,295.2294456868211,315.57113774269783,288.29736271050655,237.62623920577968,119.85884433402954
157.61198324082775,270.81210113521155,295.37009248492325,315.64333061422485,287.7920443469346,237.94179912523182,119.8999005397901
157.69091205148442,270.66099342188335,295.5100897912027,315.70502035420174,287.2613623787831,238.27610991365512,119.93759577864135
157.77492772564938,270.51866488814284,295.64912479932116,315.7554880236339,286.7068243537081,238.62905810081347,119.97172419174375
157.86333045299494,270.38484470382855,295.78689419808336,315.79413513813165,286.1298652244238,239.0005140111265,120.00212914662058
157.9554147336627,270.2591797793407,295.92303198603355,315.82042328257694,285.531857527128,239.3902643088661,120.0286585084817
158.05046046894674,270.14128047294525,296.0571103985528,315.8338129728179,284.91417188457245,239.79796554247991,120.0511337944104
158.14779097165749,270.0307848687614,296.1887139645593,315.83382741647796,284.27816037415033,240.22318997315966,120.06937875700488
158.2468066938267,269.9273154942086,296.31744834287537,315.82011360246327,283.6250848128496,240.66545273037934,120.08325860081014
158.34694054544465,269.83040389195656,296.44288319056454,315.79237941187813,282.9561398999139,241.12415659136647,120.09266636365854
158.4476120119819,269.73952577735093,296.564567887918,315.7503358135939,282.2725876175309,241.59856933930533,120.09748116091359
158.5482643920887,269.6542031392876,296.6821164885035,315.69376485808317,281.57582815514036,242.0878951398024,120.09757286507076
158.6484375149929,269.57402307164847,296.79521548062064,315.62258238907145,280.86732633382513,242.59131695910236,120.09285895620215
158.74777083497796,269.4985846038361,296.90355266163385,315.53676674515367,280.1485455616835,243.10793952338196,120.08333709573586
158.84593846614138,269.4275068350142,297.0068142186657,315.43627516193743,279.42099977766384,243.63675038675967,120.06905647996527
158.94261604132873,269.36048869298486,297.10475756618507,315.3210881052596,278.6863012807067,244.1766710794858,120.05009058658831
159.03751542928995,269.29729611160474,297.1972168621887,315.19128369278,277.94609914170854,244.72658824344066,120.02656471030006
159.1304052834242,269.237693936319,297.2840336589212,315.04699582674215,277.2020297554811,245.285301911918,119.99869191860623
159.22106249529853,269.18144981478184,297.36505601916247,314.88832834807397,276.45578654004186,245.85150645904343,119.96675286983259
159.30922634261228,269.12839405266084,297.4402139543187,314.71538146600534,275.7091823346981,246.423865170103,119.93104512625281
159.394634214821,269.07840814173085,297.50952590570114,314.52834890031886,274.9640879750155,247.0010553311575,119.89187761958699
159.4770901169914,269.03135659211085,297.573025604085,314.3275248393813,274.22236606733134,247.5817140525058,119.84961624635818
159.5564642889873,268.9870900090972,297.63075248261,314.11323558092704,273.48591537738577,248.16440378123545,119.8047036971752
159.6326272190913,268.945507080015,297.68281631265063,313.8858474645544,272.7567142777974,248.74767138339774,119.7576121916465
159.7054172641647,268.90654815287127,297.7293951602551,313.64584119347893,272.03675811615483,249.33008812667035,119.70878760583831
159.77467949571107,268.8701327944618,297.77066319218693,313.3938063533331,271.3280046929926,249.9101982815527,119.65865296507364
159.8402940269763,268.8361675539188,297.8068066779172,313.1303698271666,270.63242648856635,250.486488511468,119.60764841328867
159.90213255424933,268.80460858763047,297.83814237024285,312.8562064335956,269.95204838127677,251.05745070161052,119.55623278927605
159.9600085544073,268.775450662143,297.8651568903635,312.5721173371405,269.28887037160297,251.62162495643975,119.50483512973231
160.01370299601163,268.7486573196177,297.8884129303457,312.2790242666112,268.6448003786247,252.17754702504283,119.45382670010866
160.0630266217042,268.7241649134026,297.9084966965199,311.9778887453201,268.0217044699794,252.7237105260052,119.40355918542792
160.10782417483503,268.7019521561695,297.92609084954404,311.6697049521759,267.42145342969025,253.25862014174976,119.35441612198662
160.14792343596196,268.682041641728,297.94201616979285,311.3555590790948,266.8458573914323,253.78083004119364,119.30680526393364
160.1831208371683,268.66443468162066,297.95714769519105,311.03661167246634,266.29660650707547,254.28889622283438,119.26111164214204
160.2132314712037,268.6491068795219,297.9723538149057,310.7140144782888,265.77532307512945,254.78135144660993,119.21768923718614
160.23811981731535,268.6360623064065,297.988556529992,310.3889088844339,265.28360513236987,255.25677399500046,119.17690273381199
160.2576560734468,268.6253241818178,298.00676948599977,310.06249567244737,264.8229493541426,255.7138370455985,119.13914628933092
160.27166698331536,268.6168707771396,298.02801647775283,309.73602543028517,264.3946656682325,256.15126226300026,119.1047994404871
160.27996256339458,268.6106429991048,298.0532722540133,309.4107142738537,263.9999070878939,256.56778839178037,119.0741781189826
160.2823996802896,268.60661510473216,298.08352152657926,309.0877324871525,263.6397236921554,256.9622306648203,119.0475478474722
160.27888653861876,268.6047970602584,298.11979542962575,308.7682630158392,263.3150105955941,257.33352160493007,119.0251739428096
160.26932907943922,268.6051715645161,298.1630932712135,308.4534864534369,263.0264148513272,257.68066086643887,119.0073292659547
160.2536118902961,268.6076945034388,298.2143337517647,308.1444989576432,262.77433715008925,258.0026882452469,118.99424456562579
160.2316443312481,268.61235584617253,298.2744272391426,307.84230891593273,262.558995775719,258.2987545942533,118.98607354097585
160.20339054389683,268.61917503871854,298.3443197522424,307.5479071801389,262.3804178908583,258.5681731624929,118.98292394399843
160.16882846583027,268.6281373125837,298.4249116086509,307.2622627269672,262.23836658792186,258.81037094289525,118.98490686186337
160.12790672849025,268.63919922225904,298.5170012706271,306.9862452053599,262.13235069597215,259.0248543696722,118.99213131461202
160.08058198390614,268.6523575058036,298.62135707416263,306.7206216475342,262.0617421364707,259.21126958413606,119.00466000611476
160.02689519812733,268.6676496354784,298.73876695123397,306.46612736128105,262.0258461659903,259.3694440605018,119.02250364842618
159.96698299369885,268.6850930209411,298.8699589306996,306.22346411358313,262.0238685080745,259.4993288668807,119.04566748783243
159.90101876317866,268.70471101295175,299.0155378352347,305.9932239931459,262.0549266792815,259.6009510465167,119.0741759788761
159.8291799171991,268.72665050036625,299.17604484066464,305.77588550131367,262.11816643499935,259.674455038382,119.10803354649052
159.751682921184,268.7512197187833,299.351999453008,305.5718853918964,262.2128297749214,259.720127516047,119.1471803447315
159.6688093569105,268.77880120144386,299.5438225670833,305.38162071086936,262.33820264779047,259.7383320414495,119.1915113879117
159.58086334344478,268.80980290183084,299.7517826485886,305.2053778898857,262.49358962974463,259.72946339557586,119.24093261611326
159.48812470580796,268.84472114460726,299.9760658397695,305.0433355144441,262.67838656916535,259.69399752643614,119.29537258497352
159.39087681575785,268.88417311534886,300.2168260805752,304.8956433644189,262.8921084646544,259.6325256872104,119.3547349716596
159.2894648027601,268.9288210508231,300.4741122008604,304.7624285650296,263.1343073623303,259.54569426469993,119.41886552309317
159.18428755041032,268.9793250562724,300.7478159501011,304.64372361696456,263.4045275390612,259.43416205351133,119.48758599404613
159.07573126737947,269.0364046864599,301.03774635047637,304.539463620118,263.7023685236998,259.29865507032844,119.5607475186468
158.96414265894026,269.10087342937067,301.34368772318464,304.44955824246136,264.0275133732987,259.1400066354935,119.63822860469378
158.84987322840024,269.1735646410729,301.6653337462403,304.3738936127303,264.379652466641,258.9590995813053,119.71989024907218
158.73331083140894,269.2552845373562,302.0022361437781,304.3122609129152,264.7584406013508,258.75681929431613,119.80556416002977
158.61483970798454,269.346873901652,302.3538738635654,304.26435891117416,265.1635513646809,258.534099518851,119.89509030322462
158.4947953754271,269.44924186240235,302.7197057307979,304.22987556375267,265.5946909061373,258.2919545725607,119.98833527518725
158.37349454338494,269.5632881755498,303.09910503543654,304.20849909921037,266.0515115683903,258.03141965609746,120.0851521780771
158.2512979686663,269.6898501177859,303.4913184396291,304.19984835663087,266.5335716871231,257.75350705795177,120.18533816574006
158.12860831248554,269.82975976475217,303.895552144882,304.2034685009665,267.040409410163,257.4592555586678,120.2886545336303
158.00580532680576,269.98387766473223,304.311037799217,304.21890217835306,267.5715825149125,257.1497639845,120.39488155828501
157.8832149914809,270.15301629282277,304.7369679429988,304.2456923875535,268.1265965069955,256.8261308651293,120.50382706358883
157.761147153113,270.3378857966423,305.17244465637464,304.28330996811394,268.70485890030733,256.4894105571614,120.61527580197769
157.63991922760565,270.53914884447687,305.61655277362973,304.33115374647684,269.30573375590916,256.1406673830344,120.72895591015332
157.51980934453297,270.7574529489755,306.06841708232116,304.38863401914,269.9285651800565,255.78101777705558,120.84457532941303
157.4010086894682,270.99335434528615,306.52713226797925,304.45518828047767,270.5726071638119,255.4115749007121,120.96187760887709
157.28365250064874,271.2472655230985,306.9917033609595,304.53021659937787,271.2370003201376,255.03340233630007,121.08063981045774
157.1678859145163,271.51951218638476,307.4611073494604,304.61309990360206,271.9208583713001,254.6475614378047,121.20062493818729
157.05386744587577,271.8103679734368,307.9343420521757,304.7033240596707,272.62331329878276,254.25514691973868,121.32156608391053
156.9417105308064,272.11998273643775,308.4103570861858,304.80053324550823,273.3434438000914,253.85722970665057,121.44320141507426
156.83145602031925,272.44833784428977,308.88800500801926,304.90447035885217,274.0802310296295,253.4548158011441,121.56529318074037
156.7231125939527,272.79531370336485,309.3661184953319,305.01497630523517,274.83261847319375,253.0489023645888,121.68758865615345
156.61668842619525,273.1607352647954,309.84357212403694,305.1320915014509,275.5995419703226,252.64051991346483,121.80977477477072
156.51215640648752,273.5443079916718,310.3192167813602,305.2560779390005,276.37986328678915,252.2306754581712,121.93149049519458
156.40941737119599,273.9455777903466,310.7918236098524,305.3872972665886,277.1723428321184,251.82030446855956,122.05237502781112
156.3083400084857,274.3640043789896,311.260151246052,305.5261261150133,277.97571331365884,251.4103175639311,122.17207774650296
156.20883463055614,274.7990147528808,311.72300506644353,305.6730072391438,278.7887141864477,251.00163702553894,122.2902150088151
156.11086185124543,275.24994286164684,312.17917868356426,305.82848026694427,279.61001936742787,250.59513916452482,122.4063420084192
156.01437629579388,275.71598266848986,312.627410517791,305.99308887539536,280.4381922924613,250.19160862003835,122.51998986727985
155.9193008776989,276.19624626753426,313.06646374212147,306.1673131480429,281.2717376305307,249.791790033558,122.63072313116496
155.82556928628438,276.6898047527112,313.4951919400982,306.3516316066955,282.10912563591626,249.3964309640161,122.73814464928458
155.73315785212682,277.19562895358877,313.9124761660734,306.5465643446356,282.9487288766956,249.00622751920338,122.84185713877788
155.6420474910897,277.7125591695698,314.31716677736,306.7525870121012,283.7887950261326,248.62177673699372,122.94145426941272
155.55218070399326,278.2393863212893,314.70814425956775,306.9700587360819,284.62750974347347,248.24362663057084,123.03656038907364
155.4634933164474,278.77490788527547,315.0843699736599,307.1992759585667,285.46302354236246,247.8723224920127,123.12685426075522
155.37597835494896,279.31786889857875,315.4448193274336,307.4405160389891,286.29339477920286,247.5083569808946,123.21203786894405
155.28968533352835,279.8669233617683,315.7884333991919,307.6939639895875,287.1165910122012,247.1521215372007,123.2918054845192
155.20466082818803,280.420709769265,316.1141994611806,307.9596581288524,287.9306063706508,246.80394929917185,123.36586887856444
155.1209282909751,280.97790885184276,316.42122047095523,308.23755651446726,288.7335359244429,246.46415346137132,123.43399960938312
155.03853654109074,281.53718792177466,316.708655948032,308.5275840168132,289.5235183263403,246.13297501243275,123.49602081688163
154.95758786950765,282.0971587860265,316.9756684486876,308.8295580265504,290.29868491793223,245.81053968489798,123.55176658098922
154.87818830493924,282.6564420778654,317.2214912030014,309.1431378520901,291.0572067552208,245.49691141932337,123.6010853808485
154.80039277184673,283.21371242794623,317.4454855059874,309.46790416585714,291.797322482843,245.1921405789557,123.64389720101961
154.72422940931804,283.76763488612033,317.64707885791216,309.80342129204416,292.51727566207694,244.89621715283602,123.68022537000972
154.64976506401058,284.3168212841167,317.82572232736493,310.14917125631194,293.2152898710452,244.60903029833145,123.71016175614434
154.57711382679693,284.8598983823669,317.98097779760326,310.50450413067415,293.88965396065,244.33042403108377,123.73382902385134
154.50638277530064,285.3955598098141,318.1125897607431,310.8687150686882,294.53877982986376,244.06024731698443,123.75140082152154
154.43764608982698,285.9225107192043,318.2204215012005,311.2411045858943,295.1611498017728,243.79830976984297,123.76313822969455
154.37098612836522,286.4394347617133,318.3043960278891,311.6209124461061,295.75528233412115,243.54434710901683,123.76937172285385
154.30652450340386,286.94507347722515,318.36456302990126,312.00726879799134,296.3197946954345,243.29808583138433,123.77044567685137
154.2443826747444,287.4382835149059,318.40115608490146,312.3992737014671,296.8534402101023,243.05929917729645,123.7667027183748
154.18463364297773,287.9179758669813,318.41452037091733,312.79606176573805,297.355051874899,242.8277562728493,123.75852237687593
154.12732660996585,288.38306886938193,318.40504213583097,313.1967388372644,297.8235221012431,242.60316569378628,123.74634171550686
154.07254977808742,288.8325524022793,318.37319708517254,313.6003329666068,298.257887016282,242.38521937420944,123.73061871477465
154.02043403391087,289.2655348654321,318.3195911618554,314.0058730746552,298.65737523796827,242.17364968909393,123.71179882694055
153.97109162610872,289.6811765109291,318.24488284691506,314.41245256016225,299.02134244968744,241.9681878123904,123.69033952992103
153.92458033429415,290.0786381596848,318.14971743971284,314.81916128961643,299.3492362311623,241.7684920825149,123.66674735693562
153.88093190817162,290.45714481550704,318.03478585107365,315.2250247387317,299.64068049334236,241.57416723357107,123.64155791162567
153.8401726436191,290.8160384659665,317.9008754660174,315.6290673855212,299.8955353825805,241.38483421879326,123.6152779228204
153.80228168658954,291.15472087264277,317.7487962901684,316.0303673102615,300.11383625100484,241.20012474291073,123.58836694577644
153.7671504866563,291.4726081597043,317.5793125876101,316.42799042446546,300.29574748185564,241.0196118866036,123.56127465002106
153.73462305806237,291.7691916948995,317.3931986862017,316.8209395134666,300.44162131240734,240.84281239663036,123.53446255803784
153.70457647022764,292.0440817043727,317.1912924776481,317.20822873424163,300.5520280693549,240.6692843037466,123.50836800899724
153.67693604564937,292.29693847229754,316.9744301288835,317.58894508369576,300.6276750008952,240.49867602257484,123.48336684031037
153.65161556954288,292.5274161592344,316.74338855405205,317.9621819713439,300.66935583111484,240.33065963904556,123.45979259003994
153.6284800962388,292.7352198813709,316.4989502024501,318.326982000072,300.67802024941983,240.16487766805733,123.43797497793896
153.60738084145868,292.92015495170824,316.241960486289,318.6824066838347,300.6548173414836,240.000995869561,123.41823034404146
153.58818914351934,293.08206684480183,315.97326127405154,319.0275984840708,300.6010114347099,239.83875394120335,123.4008167121937
153.57076393650476,293.22079104381135,315.6936293199645,319.3617163186177,300.5179073921154,239.67791577733,123.3859243252255
153.55490956140503,293.3362132620762,315.40383599970346,319.68387647698427,300.40689045011766,239.5182155276617,123.37371579654183
153.54040637194512,293.42832049052004,315.1047007228057,319.9932168535399,300.2694574446386,239.35940207196413,123.36434771398808
153.5270814092231,293.49714312540806,314.79702350997934,320.2889545669902,300.10714594981033,239.20129681083938,123.35793246186718
153.51482017904658,293.5427087073779,314.4815253396955,320.5703228770395,299.92148118194234,239.04375212358482,123.35449462575001
153.50350993080716,293.56510546412613,314.15891101087084,320.83652161796874,299.71402101595515,238.88657929828847,123.35398976855953
153.49300751246173,293.5645322074308,313.829925677948,321.08679670777724,299.4863745988637,238.7295836420589,123.35636314612799
153.48317729728754,293.5412351212134,313.4952900941093,321.32051039801536,299.24011993720296,238.57267654760227,123.36156633996883
153.4739252396307,293.4954556666644,313.1556437506937,321.537079861617,298.976754473327,238.41590759884943,123.369511364401
153.46516455871887,293.4274909627012,312.81161099527975,321.7359174334798,298.6977618863923,238.25939360944088,123.38003471890381
153.45677104413505,293.3377439716253,312.4638603286183,321.9164947215787,298.4046609704962,238.1032904877819,123.3929276775172
153.44861100140164,293.22666243435714,312.1130408710363,322.0784010463127,298.09894715368137,237.94786194621437,123.40798738541751
153.44060822192793,293.0946886338203,311.7597253072474,322.221277138732,297.78205368022316,237.79351745354577,123.4250143127691
153.43275044297783,292.9423208134425,311.4044760050571,322.34475527581,297.4554150869213,237.6407595312163,123.44376977610577
153.42502743302316,292.77016451391756,311.04790514398104,322.4485262405351,297.12050373026426,237.49016061841306,123.4639709881917
153.41739465621248,292.57887285389353,310.69061023441276,322.5324014730411,296.7787577614201,237.34242554730895,123.48533907528706
153.4098043850505,292.3690976234744,310.3331131870526,322.59624907534396,296.43153386532975,237.19841551199886,123.50762733448248
153.4022274149435,292.1415523861386,309.9759230783746,322.6399373501677,296.0801725836333,237.05907378795038,123.53058627528046
153.39460674535655,291.89706357297604,309.6195959873327,322.66340895580305,295.7260426341989,236.92537561170028,123.55392130222458
153.386808452342,291.636505010526,309.2646721882768,322.6667491266375,295.370470708318,236.79836572279683,123.57731207675788
153.37865150373796,291.36073926308376,308.91161711635533,322.65012059246965,295.01468721187,236.67916891615687,123.60047134445675
153.36997958742313,291.0706726331289,308.56088576974685,322.6136985528032,294.6598821390186,236.56891746956381,123.62316179596321
153.3606746860878,290.76730222704373,308.2129842105255,322.5577319157818,294.3072438269808,236.46871565523722,123.6451515378448
153.35060388873598,290.45164783505857,307.86840407922864,322.48260000935664,293.957889608863,236.37969832758085,123.66618023385377
153.33959445199517,290.1246891116798,307.5275503487403,322.38874086596707,293.61281469439655,236.3030576657728,123.68599104403451
153.32747937782713,289.7874160902369,307.1907944591253,322.2765806907398,293.27294774766926,236.23997362289782,123.70438279767795
153.31413204150485,289.44087539933713,306.85854748147204,322.14658819401444,292.93918807396443,236.19157013387252,123.7212067650945
153.2994278835979,289.08610566251366,306.5312126306001,321.9993267858922,292.61233941968726,236.15896229008243,123.73631985451826
153.28320087748568,288.72407834652256,306.209103781952,321.835378647371,292.2930693475313,236.14327546963753,123.74957266261585
153.26527615279275,288.35574891288366,305.892485724314,321.6552622257103,291.9819818178632,236.14557417214075,123.76085042088803
153.2455371221837,287.9821020264318,305.58167841087896,321.45947908815083,291.6796697596818,236.1668217271868,123.77009475404907
153.22392976224666,287.6040879012567,305.277059078113,321.2485859161655,291.3866493824677,236.20793378083903,123.77726115002105
153.20040369558697,287.22256935702785,304.9789859090817,321.02314435019565,291.1033022240732,236.26980353042777,123.78226560086075
153.17488478216254,286.83838392519715,304.68779737022396,320.7836255101997,290.82992550937587,236.35323439799504,123.78498838341287
153.14731644389144,286.45239882742885,304.4038749330654,320.5304276794276,290.56677328708724,236.45890224138017,123.78531645928447
153.11768864419815,286.06545148324204,304.12762774370725,320.26396686607825,290.31399919438945,236.5874130893038,123.78315017106345
153.08599477859914,285.67829729119234,303.8594161257533,319.98468469037994,290.0716288928113,236.7393341439202,123.7783578043432
153.0521853308153,285.2916727507898,303.5995543433945,319.6929916083756,289.83965045652707,236.91512973374589,123.77074748148044
153.01620463444655,284.90635221131913,303.34837368898985,319.3892888878338,289.6180823417254,237.11512230624143,123.76010778294618
152.97807165045953,284.52308869577405,303.10620612750205,319.07404808854085,289.40691825848694,237.33954546163795,123.74626869612676
152.93789699866284,284.14255822628695,302.87331123929454,318.7478023629019,289.2060812866883,237.58856523352046,123.72910655528548
152.89582211645518,283.7654166055847,302.64989117658547,318.41106831412026,289.0154867205331,237.86219080988883,123.70850531146483
152.851974430264,283.39235083685827,302.43617220625947,318.0643461836939,288.83508788698884,238.16019465723926,123.68435215947116
152.80648933143064,283.0240174442336,302.2324025132232,317.7081881508462,288.6648112415061,238.4821482553563,123.65658510140504
152.75953198349973,282.6609855752295,302.0387803162436,317.3431931449136,288.50450611615383,238.82748286157283,123.6252199943131
152.7112568462247,282.3037933697701,301.85546003328784,316.9699411751871,288.35400160966844,239.19545418766648,123.59031508124723
152.66175839366167,281.9530008696616,301.68262489717955,316.5890111783896,288.2131463655028,239.5850722875682,123.55193409543035
152.61109098385182,281.609130691122,301.52048142702824,316.20106680890035,288.0817383691753,239.99513887884214,123.51016976165856
152.55932656881035,281.2726122576212,301.369187213762,315.80685931098776,287.9594694560145,240.4243721923074,123.46518743056559
152.50655790232628,280.94383802221444,301.22885352650485,315.40715849325113,287.8459826921578,240.87145861087618,123.41721510953565
152.45284176267478,280.62321506711527,301.0996095028007,315.00276048501297,287.7409208712766,241.33499309895112,123.366492428232
152.39817319462867,280.3110989530781,300.98158804451595,314.5945595675844,287.6438683708953,241.81345110375096,123.31325520598439
152.34253174789436,280.00772068607733,300.8748495515289,314.1835346974714,287.5543157942643,242.30525801954812,123.25777302811152
152.2859219034887,279.71322901120857,300.779386166087,313.770661926635,287.4717503373942,242.8088352125008,123.20036993702037
152.2283416854023,279.4277552095812,300.69519170254836,313.35690228877263,287.3957333144505,243.32255510078141,123.14138731969314
152.16973953332433,279.15137153174993,300.6222538430693,312.94326025531524,287.3258498864901,243.84472350920262,123.08114736312183
152.11004661320305,278.88401385745425,300.56048480233545,312.5307701926888,287.26166028952434,244.3736571437763,123.019976783534
152.04925293434255,278.6255067682305,300.5097388570339,312.1204180098558,287.20276120645195,244.90773394147567,122.95825073405287
151.9874239829414,278.37564885161015,300.4699022587311,311.71314072797855,287.1488328868894,245.445341609942,122.89638234492523
151.9246442055439,278.13421842667634,300.4408996604009,311.30989601207136,287.09957260692505,245.98484246788377,122.83476830031583
151.86098110744433,277.90092102335046,300.4226157435675,310.91165686638936,287.0546398381859,246.52463095038397,122.77376787104487
151.79651907763952,277.67541081838556,300.41487239853296,310.51933785323234,287.0137109458658,247.06317112283708,122.71373698918902
151.7313914170176,277.4573664124097,300.41746349139845,310.13379603471856,286.97652022084867,247.5989433024028,122.65504895427915
151.66574421799575,277.24648883971537,300.4301253214879,309.7558983039243,286.94278976268754,248.13041551156059,122.59805875343973
151.59968546387384,277.0424400639914,300.45246075531395,309.3865096641825,286.91217078259007,248.65611009359395,122.54307141760705
151.5333034153747,276.8448549300497,300.4839526832753,309.026407022767,286.8842967441264,249.17464649986235,122.4903805978055
151.466729580939,276.6534117957937,300.52405108008753,308.67626455471975,286.85882817556865,249.68468667763312,122.44033545398649
151.40014998830205,276.4678311757574,300.5721877354707,308.3367140485394,286.83539011787946,250.1849021355218,122.3933480197952
151.3337495021525,276.28781752253786,300.62772497056653,308.00833976522716,286.8135269530933,250.67403946680844,122.34984243381102
151.2676785668993,276.1130745118946,300.68997724014486,307.69160468042645,286.79277763060037,251.15096716101198,122.31022569105627
151.2020874661753,275.9433773308677,300.75829054165257,307.38684898457956,286.77274278093927,251.61462691817292,122.27490693189216
151.13715441846406,275.77856910797965,300.832039383932,307.0943636531947,286.75303161654733,252.06400628330206,122.24430277735232
151.07305084901813,275.6184953003649,300.9105645166844,306.8143958128808,286.7332096905857,252.49820699446536,122.2187868977132
151.0099082654743,275.4630078707155,300.99320195711493,306.547081738875,286.712856771312,252.91648834783223,122.19863602325852
150.94785339285784,275.3120272778619,301.07938344679945,306.29245055271406,286.6916170315264,253.31820846770606,122.1840421942258
150.88705912284874,275.1655329735281,301.16864834808007,306.05050175547456,286.66913847345853,253.70278286864817,122.1751720187719
150.82773010900016,275.0234959349483,301.26057321388095,305.8212117087208,286.6450214679609,254.06973851191066,122.17218690423475
150.77004972976601,274.8858840854457,301.354773604462,305.60446417328546,286.6188781817414,254.41874673453316,122.17519696703026
150.71417783796184,274.7527277692719,301.45097629714553,305.40005110334783,286.59038302985414,254.74955741712452,122.18422179572373
150.66030394853365,274.6241137405203,301.5490119096787,305.207752101762,286.559211579461,255.0619507283814,122.19922094807194
150.6086656219657,274.5001199112069,301.6487296134474,305.0273492879309,286.52498401595994,255.35578608861658,122.220151223577
150.55949122374093,274.38082176561977,301.7499890590299,304.85857349228843,286.487313989299,255.63103436997946,122.24696977286392
150.5129441286353,274.26635726701164,301.85273763881946,304.7011237431723,286.44584921214147,255.88771317470312,122.27958848518861
150.46915024209372,274.15691765569915,301.95701960630487,304.55475328190187,286.4001987437602,256.1258357820002,122.31785837989742
150.4282717950578,274.05267475729914,302.06290684905156,304.419271560307,286.3498483630636,256.3454528513401,122.36160914773001
150.39052345385105,273.95377771485676,302.17050593641073,304.2944655365383,286.29417605173154,256.54668065790634,122.41067616438824
150.35611636683132,273.8604122619772,302.2800490207919,304.18009136131815,286.2324921993446,256.7296429259945,122.46487009925195
150.32522466593514,273.7727920261879,302.39190006045095,304.0759406045247,286.16399854321736,256.89443618899514,122.52394600738714
150.29802073067125,273.6910896101609,302.5064509321728,303.98183722999823,286.0877324549039,257.04118999009796,122.5876355582373
150.27470054790194,273.61543931259166,302.62408163985106,303.8975630578903,286.00261459866863,257.17010591462673,122.65570438438507
150.25543675082116,273.5460035659317,302.7452375502506,303.8228552441243,285.90754859552845,257.28139845177026,122.72795388331416
150.24032683232855,273.48296913135965,302.87045744385125,303.75747750983663,285.8014339115552,257.3752519521913,122.80417113026995
150.22942274728078,273.42647856161693,303.0002905538998,303.7012201775249,285.68311209947484,257.451873280668,122.88410694078513
150.2228050528921,273.3766281322647,303.13528065740667,303.6538257105832,285.5514022632725,257.51152874320616,122.96751077563722
150.2205971411051,273.3335259084702,303.27609676381024,303.6149868198839,285.40524382430385,257.5544871981896,123.05415537795582
150.22290510019292,273.29728169075105,303.4236157757766,303.5844240442303,285.2437789697155,257.580985897012,123.1438037119895
150.22977431877928,273.2679388382057,303.57883345321716,303.5618942584586,285.0663151927607,257.59130214200684,123.23617504586726
150.24121297322586,273.24547878810966,303.7427645926527,303.5471197576151,284.87231625024447,257.5858098022686,123.33097637470341
150.2572167879118,273.22988934275037,303.91646064563923,303.53978635157364,284.66148386356235,257.56492611783517,123.42796090231133
150.27773390277397,273.2211635648386,304.1010211152993,303.5396219425388,284.4337857501371,257.5290586689251,123.52693049588835
150.30262499966693,273.21923393957866,304.29750780243,303.5464058726879,284.18936017171586,257.47864371267224,123.62768488831333
150.3316988755991,273.2239731181667,304.5069005445833,303.55990004036215,283.928444284796,257.4141741642533,123.72999724136203
150.36478883332643,273.23525784054704,304.7301769706542,303.5798683477357,283.6514246019487,257.33613775509133,123.83364445039203
150.40176840350725,273.25296672775687,304.96835878528873,303.60620603830057,283.35887963671297,257.24497395691554,123.93842730442822
150.4424958523564,273.27691738441354,305.222428838577,303.63898785716424,283.05150162629207,257.1411302740929,124.04413448284471
150.48678239824466,273.3068742821294,305.4932736249505,303.6783687722572,282.73000841610553,257.0251053374312,124.15050362188762
150.5344331875978,273.3426223053227,305.78174926192355,303.724518737623,282.3951657910526,256.89739173659575,124.25724315200716
150.58528817706588,273.38397153880385,306.0887156043732,303.777690726074,282.0478309703576,256.7584272559295,124.36408171967969
150.63919327988418,273.43069447068143,306.41492445473875,303.83826543285846,281.68889566246514,256.60864240981107,124.47076938031358
150.6959530223373,273.4825283246753,306.7608883898895,303.9066709488496,281.3192030713285,256.44849935241746,124.57703412498006
150.75534927491495,273.53924245031436,307.1268438313533,303.98332913431346,280.9395734722376,256.278438550597,124.68256774454021
150.81720208924895,273.6006392680677,307.51272822800166,304.06873083196126,280.5508870573366,256.09884076276467,124.78706382191875
150.88137700552247,273.6664936390955,307.9181164407385,304.1634846865098,280.15408402429074,255.91008710765382,124.89024209807347
150.94772332957433,273.7365779163504,308.3422386728624,304.26823064413753,279.7501181450807,255.71260591408569,124.99181633185312
151.0160354457015,273.81077744119654,308.7841297099308,304.38357065719964,279.33999861757786,255.50681963507412,125.09146117931543
151.08609703137205,273.8891246984452,309.2427260000342,304.51012918054374,278.92487778670335,255.2931034696875,125.18884105030432
151.1577415231297,273.9717047327375,309.7167950001673,304.648595805672,278.50603226341843,255.07184662745263,125.28366563032561
151.23083916803256,274.05859628439856,310.20486828791536,304.79963685994625,278.0847569366772,254.84350567375787,125.37569358119731
151.3052387131887,274.1499312384495,310.70535263563306,304.9638172444343,277.66234281206744,254.60855535453823,125.46468694569278
151.38076140325418,274.2459338947147,311.21670206917526,305.1416430918684,277.24017259066676,254.36744404560503,125.55039328755507
151.45725756508628,274.3468559245551,311.73745739812887,305.3335929224899,276.81977049200435,254.12064744725959,125.63258207845541
151.53463444702308,274.45293953185995,312.2662328748581,305.5400472283131,276.4027372828736,253.86871427177206,125.71106905740652
151.61281632528082,274.564488060846,312.8018308479382,305.76127430124717,275.9907158049066,253.61221149475787,125.78568373990603
151.69171514237595,274.68190490257354,313.3433901355295,305.99756665363844,275.5854569970256,253.3516741325676,125.85623767659678
151.77126523304017,274.8056174570903,313.8903740155463,306.2493378318844,275.18884417818674,253.08765031056828,125.92255767179594
151.85145380014296,274.936025285129,314.44248554457397,306.5170374779275,274.8028100534754,252.82073878740724,125.98454365717902
151.9322807279345,275.07355826367365,314.99969144333124,306.8010416180862,274.4292954258218,252.5515311913103,126.04216855715762
152.01370380808763,275.218709034064,315.5622654940664,307.101674318733,274.07031917780665,252.2805629280352,126.09542397932985
152.09565525022518,275.37195730949026,316.13067199684235,307.4192542962303,273.7280069943035,252.0083608727216,126.14429060283489
152.17810255808752,275.5337261206038,316.70536213505704,307.7540474786125,273.40449973342197,251.73548362918356,126.18876148204947
152.26105595861918,275.7044550828895,317.28671095978933,308.1062494117628,273.10188570487634,251.46246629313848,126.22885626416631
152.34450902944053,275.8846469267547,317.8751304081234,308.47610661155636,272.82223767227083,251.18977463791035,126.26458020688588
152.42840440420937,276.0747947745577,318.47115698392554,308.86400691209485,272.56761883460894,250.9178569239826,126.29587410284188
152.51267015321307,276.2753287098479,319.07542903863185,309.27038786692066,272.3399764019599,250.6471876806338,126.32262232375336
152.59725053514975,276.48667396674267,319.68868601263824,309.6956169388284,272.14104906341106,250.37821382609835,126.34470456210569
152.68207433760918,276.7092857140481,320.3118039952102,310.1400085475903,271.9723725884552,250.11130788428005,126.36201382870757
152.76702891249792,276.94357039795926,320.94571378043156,310.60386738748235,271.83527878873593,249.8468184419316,126.37441518684962
152.85199662556803,277.1898287018797,321.5911974840624,311.08742245795236,271.7308325205751,249.5851141944399,126.38171172759355
152.93688596373136,277.4483122767712,322.24877663406653,311.5907517993439,271.65983385189026,249.32653314332103,126.38367724038835
153.0215996372122,277.71926296363284,322.9188123855348,312.11381307622764,271.6229349014447,249.07134208435585,126.38011691314827
153.10600518034283,278.0028439008688,323.601662943054,312.65647659690785,271.62071128399486,248.81979406946132,126.37087737980983
153.18996419680732,278.29909280784244,324.2977711085939,313.2184369290168,271.6536093153529,248.5721751836167,126.35580831767443
153.2733557556145,278.6079855520462,325.0078010942369,313.79908950109365,271.7219161787737,248.32874412842568,126.33475206825028
153.35603746672632,278.9294777769589,325.7328464603288,314.39751424802466,271.82583164940473,248.08966407620602,126.3075867827292
153.43780908497718,279.2634362682176,326.4744852606257,315.012521701977,271.9655051971304,247.8550313175446,126.27425532120307
153.51844833633865,279.6095913057971,327.2346071118833,315.6426215214558,272.140973407115,247.62492032140065,126.23473376067717
153.5977678464734,279.96759783075765,328.01519690816474,316.28593586699907,272.3521389525837,247.39933975476183,126.18899568881847
153.67560729883485,280.33707598357915,328.81817902410734,316.9402288657467,272.59885299702506,247.17816502739387,126.13703691501568
153.75178274068998,280.7175441265097,329.6452549285014,317.60308286409196,272.8809544040697,246.96116186216074,126.07892546579414
153.82608781291515,281.1083752290058,330.49775191618676,318.2720336358576,273.1981985505979,246.74805853668605,126.01479936586388
153.8983602331363,281.50886639774956,331.3766235208481,318.94457602112766,273.5502207090908,246.53854263287027,125.94481541325747
153.96851880934486,281.91829063695087,332.2825805409141,319.61818447123494,273.93660488420755,246.33219508412984,125.86912667284349
154.03652287116486,282.3358402502089,333.2161289040092,320.2904118306591,274.3569112323243,246.1284980828457,125.7879179170818
154.10233513028953,282.76059380577885,334.17743506265356,320.95892798566126,274.81057650354575,245.9269428968351,125.70143245403946
154.16596149650272,283.1915960629025,335.16622058380443,321.62145607578555,275.2968251365215,245.72709709208596,125.60993980816046
154.2275092071625,283.6279147497447,336.1818714765321,322.27574771277153,275.8146907762537,245.5285714391263,125.513695744742
154.28717008757178,284.06857864298314,337.2236768891933,322.91963656488514,276.36303598050955,245.33101365994236,125.41295754344561
154.3451526646733,284.51252609696706,338.2909768562835,323.55104070778236,276.9404892444898,245.1341915572865,125.30802173824095
154.40166455682566,284.9586587220587,339.38314202616,324.1679039183831,277.54541587386205,244.93803972214533,125.19921313964939
154.45696245412927,285.40588037422623,340.49946791810527,324.76824256364745,278.1759917824575,244.74260741790323,125.08683331318622
154.5113754870997,285.8530362090363,341.6390822406602,325.3503149038721,278.8302450422262,244.54803368577365,124.97114540212151
154.56525168807406,286.2988691213555,342.80093350275797,325.9126991962624,279.50597289130644,244.3546117230713,124.85241977151173
154.61890298952906,286.74207307297485,343.983856678712,326.45420677288604,280.2006561295808,244.16281120866685,124.73096943214979
154.67261988313672,287.1813273247036,345.1866054456748,326.9738419699761,280.91149071784224,243.97317799371638,124.60712256193037
154.72670653266175,287.6152325347023,346.4077817169826,327.4709303701087,281.63545573181153,243.78623070379382,124.48118490316608
154.78145531389683,288.0422697289302,347.64576812374975,327.94522625165996,282.36929454405174,243.6024630699347,124.3534599587941
154.8370836220653,288.46087415966934,348.8987603797191,328.3968482890162,283.10946911518636,243.42237267692028,124.22429675884428
154.89372312027854,288.869504938553,350.16479111540355,328.82619537496,283.8522383089708,243.24640745931683,124.09408854968295
154.95147195726273,289.2666091884871,351.4416347959275,329.2339830356729,284.5938382763071,243.07488898361382,123.96322422215627
155.0104192315791,289.6505895093347,352.726688352239,329.621261914401,285.33058227674996,242.90803089843445,123.83206903301374
155.07059291581893,290.01986527083744,354.0169348374012,329.98929597123464,286.0588382255382,242.74601722064546,123.70100206850681
155.1319018219682,290.3729163121234,355.3089391391764,330.339452104813,286.7750500258268,242.5890076040799,123.57044354058397
155.1941537390169,290.7082230005001,356.59882494392235,330.67322963289115,287.47586456117534,242.43706657327508,123.44082288347151
155.25712117340257,291.02421275017826,357.8823075928176,330.9922756770386,288.1581990852445,242.29015051144182,123.3125399625283
155.32055871983275,291.3192981863301,359.15483025728184,331.29826768925113,288.8191500679411,242.14818963112953,123.18598322653725
155.384151989385,291.59190898167486,360.4116946421173,331.592860253456,289.455881046671,242.01113732073154,123.0615719308056
155.4474834324981,291.84045604173343,361.648083061922,331.8778549654753,290.0656294273848,241.87892847758138,122.93974775633893
155.51007549592362,292.0633516801128,362.8590760228412,332.1553802664746,290.6457641376051,241.75146381897903,122.82092118213718
155.5714536960389,292.2591492322578,364.0398247814712,332.4278484620438,291.19376449641766,241.62867904858442,122.70545026538632
155.63114470323853,292.4266461207873,365.18578717404614,332.69778947805685,291.7071610458453,241.51058209443082,122.59367890539312
155.68862848995732,292.56485055770924,366.29282271037863,332.967726738531,292.1835724910389,241.39720087503528,122.48596705731379
155.74333202648089,292.67295136130144,367.3572091707797,333.24005707933503,292.62081583104776,241.2885630465236,122.38266182485665
155.7946790043485,292.75039113555994,368.37574276804133,333.51687053025927,293.0169371682543,241.18476838421176,122.284060076632
155.8421147127228,292.7969201906841,369.34580738150976,333.79980804591054,293.37015179245117,241.0860287091963,122.19042779172473
155.88506499249002,292.812559165791,370.265254533299,334.0900695937374,293.67884319445665,240.9926064424804,122.10204533417274
155.92290052210407,292.79760326111113,371.1322373618906,334.3884894655822,293.9416532743431,240.90477027305297,122.01920401233527
155.9549735906955,292.7527201366807,371.9452079791946,334.6955123869948,294.15751995550033,240.82283810732315,121.94215831878466
155.9806783566083,292.6789808927669,372.7030359268181,335.0110841122563,294.3256206126227,240.74719714191014,121.87110947997839
155.9994499941659,292.57774879574094,373.4051229177994,335.3346285186453,294.44536533720293,240.67823998137402,121.80624385883668
156.010719117519,292.4505833601903,374.0515448283616,335.66516139931167,294.516488583702,240.61633352362873,121.74775817821099
156.01391001377698,292.2992637191194,374.643211418527,336.00138418241437,294.5390923147199,240.56188227752102,121.69582573555378
156.00849878422258,292.12579911873894,375.18185277634007,336.3416767514022,294.51358426512166,240.51536250369224,121.65055975218029
155.99404647982962,291.9323229649187,375.6697712308513,336.6841388193758,294.4406567399676,240.47725725274384,121.61203952302503
155.97016163264902,291.7209977582381,376.1095778259926,337.0267577246102,294.32136446733085,240.44801209408956,121.58036422353985
155.93646428984215,291.4940375704396,376.50408754830426,337.36753838533815,294.15715288742444,240.4280832475744,121.55565384423736
155.8926198742076,291.253728985213,376.8562694863474,337.7045195707708,293.94976571677535,240.4179634393128,121.5379994874897
155.83839243513543,291.0023580747163,377.1691076584982,338.0358272190259,293.70116965734786,240.41811853331154,121.52744255754045
155.77363336107177,290.7421784557356,377.4454557734291,338.35979652453284,293.41357508525874,240.42895292264336,121.52401110789098
155.69822621304536,290.47551001566273,377.688007327328,338.6749990425979,293.0894335215396,240.4508713236644,121.52774520234024
155.61207941909748,290.2048064289144,377.89928357870326,338.9801621009242,292.7313430467598,240.48431591015523,121.53866235173521
155.51518101088413,289.9325660803745,378.0815000257875,339.27415785761997,292.3419796669295,240.52970665975727,121.55671746311313
155.40762645154274,289.66121396986705,378.2363855625243,339.5560890709289,291.92411993865863,240.587402321662,121.58182365607563
155.289574625795,289.3930741064917,378.3651451618628,339.8253008545505,291.48063391026955,240.65775285111653,121.61390116605237
155.16120913975655,289.1303443883664,378.46859517952225,340.0812755653978,291.0143905597489,240.74112766752972,121.65287586692679
155.02277527044046,288.8750047164617,378.54727495308816,340.3235732346521,290.52823201885656,240.8378502738886,121.69862939393721
154.87463811520178,288.62877232028393,378.6014242107634,340.551877037843,290.02510202324567,240.94815362926354,121.75097947465434
154.71727226137943,288.39316957282324,378.6310180646074,340.7659941613176,289.5081422898041,241.07222520468383,121.80971903728256
154.55119968860467,288.1695649059706,378.6360017383874,340.9657585629382,288.9806093264199,241.21023037799506,121.87464549309495
154.37696606106095,287.9590934288559,378.6165165391574,341.1510067325968,288.4457475952322,241.36225169369058,121.94552909593111
154.19517390250508,287.76258360752144,378.57293317502376,341.32169440326123,287.9067595597736,241.52826309418413,122.02207401617471
154.00649356479386,287.5805917439812,378.50581186646536,341.47795944728296,287.36678446103286,241.7082032314461,122.10394057017308
153.8116101709343,287.4134351498059,378.41588050163017,341.62000852198554,286.8287994107811,241.90202073961098,122.19079792647305
153.61117607371162,287.2611366076691,378.303944345623,341.74797393256034,286.2955540770023,242.10961715945555,122.28232751156027
153.40583540756813,287.1234086069058,378.17073534206463,341.8618813662788,285.7696227359449,242.33080825032874,122.37817543080692
153.19627236238497,286.999780829144,378.01685363753836,341.96166009239175,285.2534474281925,242.56537769719176,122.47793213705258
152.98319869862897,286.88972726078345,377.8428276459022,342.0471226585948,284.74927972804176,242.81310769706695,122.58117199458587
152.76729740010975,286.7926404191743,377.64912190872843,342.11801900974905,284.2591435245221,243.07371839964833,122.68748635970019
152.54921276041415,286.70774974374956,377.4360185153201,342.17421960160374,283.7849023887912,243.34683767164196,122.79645731194772
152.32960345577686,286.63414903736293,377.20354007795936,342.2158482239911,283.32830125660576,243.63207313007152,122.90762392433611
152.1091722522786,286.57089187052503,376.9515330953937,342.2432694690324,282.89089360126115,243.92906092611517,123.02050889456564
151.88862582090923,286.5170012650152,376.6797669531983,342.25713185083316,282.4739861022924,244.23740979490003,123.13467436203052
151.6686377604537,286.47140052896174,376.387915033984,342.25857403729407,282.0787004292293,244.55665894710137,123.24972742329015
151.44988596370618,286.4329128366516,376.0755554169659,342.24935576841506,281.70602716359457,244.88633092998222,123.36527391273745
151.23311379968504,286.4003465711346,375.74231761155437,342.2317418873689,281.35677010278175,245.22596469851928,123.48089646034154
151.01912303538606,286.37252750254703,375.3880180168385,342.20836851074273,281.0314943070377,245.575050868978,123.59618758120337
150.8087101355894,286.3482487320409,375.012635490706,342.18236339137354,280.7305694432835,245.93298691859755,123.71077470428978
150.60263976350856,286.3262618460644,374.61622168980136,342.1575802874198,280.45420719310323,246.2991345845311,123.82428915807576
150.40168064695735,286.3053341665432,374.19884608393255,342.13861811311756,280.20242765120474,246.67286467394618,123.93633195378949
150.20662140348645,286.2842543214368,373.76053060377365,342.13061855489383,279.975065616685,247.05350946695162,124.0465028583372
150.0182178313699,286.2617618772965,373.3011354031288,342.13905828400965,279.7718648672571,247.44033727317012,124.15445989847636
149.83714396476265,286.23653129174653,372.82028103549214,342.1695570767408,279.5925270373756,247.8326218167331,124.25992718989751
149.66401995130022,286.2072575895575,372.31740382937016,342.2276139964197,279.43666143860304,248.22968504680134,124.36264835408352
149.49946708551522,286.172705113887,371.79186506748,342.3183544833325,279.30378646758265,248.63084451612926,124.46236363140196
149.34409789665165,286.13164729479814,371.2429601259379,342.44641045597103,279.19345465568153,249.03539944709365,124.5588441138195
149.1984531259667,286.0828450307677,370.6698674615157,342.61586326052185,279.10533921244644,249.44273027158152,124.65191970599375
149.06297789151654,286.025162061947,370.0716905101094,342.83010834096746,279.03917917441595,249.85236709459375,124.74144984522206
148.93806051901478,285.9576647957885,369.44756395958603,343.09166895116584,278.99472796412647,250.26393505379428,124.82728658984301
148.824053498589,285.8795721274413,368.7966758613105,343.40212528220536,278.9718116034554,250.67710636146026,124.9092953670384
148.7212294196931,285.7901781013772,368.118233793825,343.762209968295,278.9703657713735,251.09164726982388,124.987403035329
148.62973939016774,285.68888977748435,367.41152013794283,344.17190872170863,278.9903605973352,251.50744275197104,125.06159611753455
148.5496424277345,285.5752895761829,366.6759977884524,344.6304775180116,279.03175126970126,251.9244262304698,125.13186954616666
148.48096051930568,285.4490874643749,365.91131244729263,345.1365505280901,279.09454438787293,252.34253860580768,125.19820321055084
148.42367408308573,285.3100343435314,365.11723928391416,345.6884264206755,279.17884177097665,252.76178866102734,125.26059628058368
148.37766905602788,285.1579271230975,364.29375800979767,346.28429447046034,279.2847773875358,253.18228052435785,125.31909254897684
148.34272392590975,284.99265248559965,363.44122386358157,346.9222483321016,279.4124922542771,253.6041099773747,125.37374596960454
148.31855894514752,284.8141410362962,362.560420227231,347.60028033141384,279.5622277560041,254.02723804364672,125.42457969319175
148.3048663768586,284.62226387578386,361.6524780231269,348.3163858528238,279.73437139157204,254.45145715296132,125.47160742991692
148.30127508512297,284.41680960177854,360.71884903455634,349.0686090241177,279.92934208977937,254.87639116293343,125.51488675531631
148.30732208866488,284.19754980016063,359.7613537553439,349.85493005481203,280.14746354782244,255.3014353837218,125.5545235757763
148.3225021531051,283.9642981867415,358.7821439063504,350.67318685498554,280.3889648186121,255.72568623432437,125.5906249659497
148.3463408429503,283.7170299170587,357.7835748454664,351.5211729734242,280.65400603298946,256.1479553045629,125.62327771935857
148.378395781915,283.45617365422765,356.7681454324487,352.3967451307075,280.94260458268184,256.56682710459603,125.6525844245142
148.41820077481705,283.18288898037105,355.7385132548156,353.2977912866888,281.2545458409362,256.9806559239068,125.67869153967322
148.4652493469051,282.899059759957,354.69745345433955,354.22221340935675,281.58939099371935,257.3875305864168,125.70175732700048
148.51904098548226,282.60705969107596,353.6477978816498,355.1680526613496,281.9465062997201,257.7853384080782,125.72191065811118
148.57910653260566,282.3095515526296,352.59250419448273,356.1335805213436,282.325009389183,258.1719301126538,125.7392706775476
148.64496628343514,282.00944706239454,351.5347806122475,357.1172291211865,282.72371058269135,258.54522976620353,125.75400007839892
148.7160924242302,281.7099132568073,350.4780679978623,358.1175167021739,283.14116418697046,258.90324766916063,125.76630994718924
148.7919441072228,281.4142743244146,349.4259201816256,359.13305253891497,283.57575805206403,259.24414239911613,125.77640897170046
148.87202533170876,281.12586693389164,348.38195592111754,360.1624839530751,284.0257019699872,259.56637034824485,125.78447380155527
148.955880237293,280.84800757866157,347.34984923841967,361.2043613111774,284.4889544424093,259.86876105431105,125.79067607618829
149.04304387958766,280.584044880851,346.33321175620904,362.25709839881796,284.9632484944651,260.1504624630286,125.79520404693702
149.13304177636448,280.33735015768406,345.33540977734276,363.3190685270914,285.4462272816321,260.410913234685,125.79822835087121
149.2254545936524,280.1112906129042,344.3595030068844,364.3886370791498,285.93552438734093,260.64991095538926,125.79986344689083
149.31995505658224,279.90933117713195,343.4083309285081,365.46404356331516,286.4287405348611,260.86763167429376,125.80019339490228
149.416264732418,279.73516367749215,342.4845587794979,366.543328458372,286.92347396913453,261.0645243715995,125.7993317030777
149.51410774540275,279.5926411580128,341.5906026274441,367.62442815972275,287.417457388895,261.2412045790986,125.79743084887482
149.61324416861325,279.4855572648604,340.7285903327567,368.70526321067706,287.9086281246098,261.39842671930097,125.7946342729267
149.7135366680767,279.41752975272317,339.9004317368444,369.783700474794,288.3950459466372,261.53704508457025,125.7910491601596
149.81494863583538,279.39208163176914,339.10783906885143,370.8575395535339,288.87481127086244,261.6579110399707,125.78677690622025
149.91747727308945,279.412748997237,338.35221431762693,371.9245919485403,289.3460900964061,261.76180880729504,125.78193935525935
150.02111840214403,279.4831508142895,337.63455688133564,372.9826911056203,289.8071351959171,261.8494917510067,125.77664884605994
150.12589434605334,279.60713327888374,336.9555001081809,374.0295958844488,290.2562188646753,261.92171111730954,125.77097098401994
150.2318661500859,279.78889615522326,336.31535417746153,375.06298967556705,290.69159141371676,261.9791532246954,125.76494756726575
150.3390818730784,280.0328997021834,335.71404610592276,376.0806393837401,291.1115507191755,262.02237595525486,125.75865142601701
150.44752833543015,280.3436343042946,335.15108001570565,377.0805028180389,291.51450210370626,262.051832977005,125.75219210931235
150.55715389013122,280.7254569380833,334.62566195504945,378.0606978726142,291.8989139353707,262.06790818933433,125.74566615802885
150.66791508160318,281.1824968063161,334.13688182302405,379.0195128756014,292.26328205970697,262.0708704006516,125.73912897932931
150.77976331534532,281.7185307582329,333.68376077214305,379.9555041066787,292.60619077908837,262.06082043669215,125.73262428234445
150.8925885102414,282.33683119613085,333.2652145994028,380.8674981648592,292.9263545922786,262.0377266060165,125.72620907590894
151.00621454405098,283.0400448472333,332.88010745215985,381.75447839325386,293.2225505713992,262.001481575147,125.71992247202367
151.12046635664205,283.8300895527722,332.5273549224157,382.61555538739196,293.49355489201855,261.9518807824021,125.71374805974664
151.23521243911182,284.7080325630472,332.20591707598174,383.4500552858986,293.73818020002875,261.88857713831413,125.70763917266457
151.35032498438605,285.67400482533077,331.9147301849594,384.2575233360246,293.9553104408,261.81109966703644,125.70157935600258
151.4656333910241,286.7272106383464,331.6527330432532,385.03757428753477,294.143843931976,261.71888139310335,125.69559382937301
151.58094807966253,287.86595857312193,331.4189365743307,385.7897558068094,294.30265657433625,261.6112088843216,125.68970365543898
151.69610650114555,289.0876126237807,331.21238114770875,386.51351348172875,294.43067712992615,261.4871366004395,125.68390233422863
151.81095763306078,290.3885404855965,331.0320230558979,387.208156969558,294.5269524505082,261.34546560785174,125.67819229233093
151.9253069795982,291.764287915653,330.8767084078143,387.87279257944846,294.5905964845707,261.18478421730697,125.67261544106893
152.03891281438104,293.2100184295488,330.7452216850531,388.50635096975,294.62074036904727,261.00347834609516,125.66722159112535
152.15154480414122,294.7208886188517,330.6362564062279,389.10773160954096,294.6166019618358,260.7996859099663,125.66202447786289
152.26301438366488,296.292110554813,330.5483009819285,389.67587220145606,294.577570208423,260.57131623634245,125.65701807417504
152.37312776583894,297.91890060107033,330.4796237666578,390.20967323348015,294.50317016637183,260.31626370440625,125.6522296435996
152.48163217659015,299.59654855232327,330.4284277327097,390.70799364703237,294.39298409618874,260.0327286311994,125.64772855823793
152.58823191168324,301.320505427365,330.3929937820741,391.1698323587811,294.2466689838623,259.7194135037201,125.6435810827536
152.69263813259195,303.0863802602857,330.3717015991377,391.5944740139838,294.0640288470866,259.3755501221721,125.6398258990825
152.79456355743525,304.8899659308048,330.3630580080901,391.9814437758201,293.8450051271211,259.00088815753514,125.636507220971
152.893659846488,306.72733201427155,330.36578525449846,392.33043843617384,293.5896062486927,258.5956581100427,125.63370381338561
152.98949335449436,308.59482579846986,330.3788270106908,392.64135014281135,293.29792397064756,258.16045357268905,125.63149996919489
153.08160850359013,310.4889570290051,330.4012433478075,392.9142358462038,292.97024333509165,257.69610526471945,125.62994604376753
153.16959483435073,312.4063286653919,330.4321331615013,393.1491505577639,292.60708240120505,257.2036494155825,125.6290763139189
153.25307339743875,314.34364083414454,330.4706100308643,393.3460135510296,292.2091056387907,256.684360464632,125.62895733556647
153.3316520702245,316.29764023667263,330.51571643753465,393.50463221703905,291.7770625769082,256.13973804372915,125.62968881654442
153.40493499046022,318.2650066906751,330.56626554112086,393.6247442743183,291.31184469897255,255.5714307450599,125.63135323401177
153.47256422992362,320.24226926788145,330.6207653243763,393.70592693997844,290.8145345006188,254.9812096131127,125.63399127473687
153.53421175398438,322.22574110870755,330.6775076816533,393.7474702026424,290.28634471813285,254.37104379831553,125.6376376758041
153.58951064775326,324.2114242352182,330.73467468673095,393.7483918423786,289.72856413933835,253.7431630410055,125.6423521144437
153.63799412419226,326.19493124543675,330.79032345022415,393.7075640324602,289.1426126376183,253.10004118143294,125.64818971021211
153.67908719205494,328.1714932096188,330.8423666022189,393.6237737220549,288.530085625293,252.44441678939262,125.65515986916105
153.71211723867432,330.13604341784867,330.8886863666483,393.49570263739747,287.8926737912053,251.77939445462522,125.66324258815429
153.7363014329533,332.0833114606763,330.92725921860153,393.3219836932389,287.2320691141848,251.10846606565093,125.67243636127287
153.75074565293218,334.00793628915585,330.95612545841857,393.1013360742776,286.5499859649761,250.4353747507781,125.68275993414534
153.75450673691768,335.90465288913526,330.97328640717797,392.83261103325475,285.8482143481789,249.76398264123873,125.69420308032919
153.74667425767126,337.76846961306654,330.97670478055494,392.51473580150264,285.1285767304561,249.09826550479437,125.70670261118565
153.72638569556256,339.59473149450315,330.9643902050527,392.1467031356425,284.3928503193468,248.442333551795,125.72017885340419
153.69277101795572,341.3791297029229,330.93441142242983,391.7276122458527,283.6427866440653,247.80039167917766,125.73456858927263
153.64488835528883,343.117723960899,330.88480951134886,391.25662880502483,282.8801863235293,247.17672595604307,125.74979928211468
153.58169458328646,344.8069271589746,330.81356115496317,390.7328777676724,282.10689179983893,246.57574340701774,125.76575241118827
153.50204698960258,346.4433918123852,330.7186557233608,390.1554565251174,281.3247182883528,246.00192835476687,125.78228346462323
153.40469864934911,348.0238495308672,330.59816364496476,389.52361569267737,280.5354524493246,245.4596744541293,125.79927092060032
153.2882789251617,349.5450587482661,330.4502312180591,388.8369029313883,279.74090549024936,244.9531627504255,125.81661760161673
153.15132167489472,351.0039033427874,330.27308981059434,388.09516046176657,278.94289242029186,244.48640605980495,125.83420432173399
152.9923806513332,352.39746472829415,330.0650935582718,387.2985093318666,278.1431449802861,244.06332849848866,125.85187368266628
152.81015271362028,353.72295335364333,329.82468973525505,386.4473713390127,277.3433090051093,243.68772286925258,125.8694745416763
152.6035229510373,354.977615403386,329.5503463549355,385.542420011781,276.54505473548903,243.3631736455967,125.88689901782253
152.3715712486707,356.15870419152617,329.24059417454686,384.5844870496095,275.7501391545123,243.0930829583774,125.90405720948306
152.1136009764435,357.26346633579186,328.8942027263571,383.5745897095689,274.96034883581285,242.8807055988576,125.92083833778639
151.8291507731571,358.28917846812413,328.51029750581546,382.51406673413,274.17745406935757,242.7290410397903,125.93712799431476
151.5179401339614,359.2333380804359,328.08831991539546,381.4046259695878,273.4032415674174,242.6406358811663,125.95285800921468
151.17978561901157,360.09391436434254,327.6279903285557,380.2482690828765,272.63950706393473,242.61746531445857,125.96801080037359
150.81455583528995,360.8694674308559,327.12938669551613,379.04724852037594,271.88794173821975,242.6609399045412,125.98257007049735
150.4221756242205,361.5591453980226,326.5929970807069,377.8040746241229,271.1500368084298,242.77192827418358,125.9964933067014
150.00262617014803,362.16272301551226,326.0196389602592,376.5214478792032,270.42711214514503,242.95074753167333,126.00974401209342
149.55591859803752,362.680723204002,325.4103653465835,375.2021443959472,269.72037517836947,243.19721633569975,126.02232147486163
149.08211488462385,363.1144585874727,324.76644670748635,373.84901128945387,269.0308848298005,243.510779055376,126.03423232778098
148.58145137867334,363.4658921647742,324.08933183039323,372.4650531288016,268.35948444893455,243.89057483835833,126.04545206275846
148.0544751485549,363.7374439333879,323.3805337869125,371.05342344249215,267.7068398327856,244.33544144563692,126.05594715463883
147.50207375469418,363.93184689922555,322.64157163179794,369.617295451918,267.07354499922906,244.84394948611856,126.06573123044141
146.92542889210458,364.051997273984,321.8740484487549,368.15980088608757,266.46015009568526,245.41443083096692,126.07487216249801
146.3260184136266,364.1008148477441,321.07971757006237,366.6841065834349,265.8671163420619,246.04490163697673,126.08344092537703
145.70568975829445,364.0812547105282,320.26042120280243,365.19345865735295,265.29482233785666,246.7329370222779,126.09148003083801
145.06669496628456,363.9964629894762,319.41804606798485,363.6911102616766,264.7436145257457,247.4756596050178,126.09903198194614
144.41163051643255,363.8498829589399,318.5546214999851,362.1802769355482,264.2137851856079,248.2698749344813,126.10616719457829
143.74336736097348,363.64526119019837,317.6724110651405,360.6641816166702,263.7054926704438,249.11218850473162,126.1129549170899
143.06503267267811,363.38672449125477,316.7738581695366,359.14604789662303,263.21876965522483,249.99898361423453,126.11942145472888
142.37997713148414,363.0789712492807,315.86151214101244,357.6289925604498,262.7536409315207,250.92636616195097,126.12556393382474
141.69167810112066,362.72737997529214,314.93805696492444,356.1159799709234,262.31018986423254,251.8901988105253,126.13139725998067
141.0036485220187,362.3379484263096,314.00632772814106,354.6099110090515,261.8885049318685,252.88615157993632,126.13695800098256
140.3194156643248,361.9171924984515,313.0692165720963,353.11367086474223,261.48864709544245,253.9096590773868,126.14225651469629
139.64251676573002,361.4720886593195,312.1295963743219,351.63001573096716,261.11071663860287,254.95584282123232,126.14725175446195
138.9764327015293,361.01011277113395,311.19036600446816,350.1614443318924,260.75489555434643,256.01953614536427,126.15189232598999
138.32447313957675,360.53942243018986,310.25448783998314,348.710204780761,260.4214014248231,257.0954114347866,126.15616648570209
137.68969730209122,360.0689883694106,309.3249094093841,347.2783481667253,260.110485014301,258.1780666233183,126.16009163165984
137.07492611343585,359.6084149457528,308.40450059292596,345.86768394867136,259.8225273822829,259.26202821032814,126.1636702772927
136.48280175693986,359.1675271653678,307.49611788017836,344.4796950481374,259.558081739651,260.3418133666843,126.16689067473325
135.91580113217304,358.7560067596195,306.60266207525,343.11556492410017,259.31778192969244,261.41210745929396,126.16977632729211
135.3761971618851,358.38317811505976,305.72701912331854,341.7762879472909,259.1022651231311,262.4678999671867,126.17240597912117
134.8660561673979,358.0578205772398,304.8720205962905,340.46270528365187,258.9122019193139,263.50450429985267,126.17486659314848
134.38730070104248,357.7879334588038,304.04052397577436,339.17547377391963,258.74831181930614,264.51760810451685,126.17720310184922
133.94175365217663,357.5805421645746,303.23545724411514,337.91511361897403,258.6112903161318,265.503412964666,126.17943292835506
133.53111038440812,357.44159164498757,302.4597124603528,336.68211379306075,258.501770718466,266.45870459401056,126.18159634488339
133.15690601128404,357.37585736633173,301.716038370894,335.47694730991606,258.4203803904625,267.3807901219145,126.18376286680822
132.8205344585061,357.38687039032317,301.00705991265016,334.300036580335,258.3677592898652,268.2674647148949,126.1859833511821
132.5232596997739,357.47694961320093,300.33529966937226,333.15183025734314,258.34448156757736,269.1170852760877,126.18826011837514
132.2661610487821,357.6473481757594,299.703087637856,332.0329398124406,258.3510168431279,269.928604336951,126.19057730611627
132.05007244828263,357.89839361420445,299.11247508567754,330.9441491862609,258.3877958113958,270.7014962338992,126.19293789035675
131.8756016641034,358.2295550115826,298.56525350517876,329.8863239584238,258.4552423232253,271.43572192015546,126.19534469022692
131.7432020732091,358.63952187894347,298.06297105530217,328.86039605185573,258.553705629257,272.1317890324899,126.19775427920477
131.6531980830517,359.1263515928325,297.60686873617317,327.86741345209754,258.68343747415634,272.79074738019415,126.20007801982284
131.60575231930795,359.68756757605615,297.1978631758357,326.9084970655553,258.8446832773891,273.4140433659699,126.20223214222395
131.60086005642506,360.3201103252011,296.8366510053065,325.98471863556273,259.03773196242224,274.0033801412526,126.20416089077202
131.63839509096346,361.0202456327484,296.52378094849064,325.09707707043333,259.2628398379017,274.56068085964836,126.20579597048174
131.71812541030474,361.78354962378216,296.2595877964459,324.24659082974193,259.520175423744,275.0880531880272,126.20701267503628
131.8396571990672,362.60491164927873,296.0441263046595,323.43433098990783,259.8098745910898,275.58770189123663,126.20764913050874
132.00238840205924,363.4784890427017,295.87722233934477,322.6613568524173,260.13207266480174,276.0619072234398,126.20756104260423
132.2055607410902,364.39772230171747,295.75852615563616,321.92870101523823,260.4868313122304,276.51309608393876,126.20663241301695
132.44837154118588,365.3554891372602,295.6874590329964,321.2374145119224,260.8740894918784,276.94385280556753,126.20473129634341
132.73002912662614,366.3442511401873,295.66317898316026,320.5885201103669,261.2937154223181,277.35683311980455,126.20168338403492
133.04972610498336,367.35605667063055,295.68468581595494,319.98287955818245,261.7455307492456,277.75475138681117,126.19730735923663
133.40662112694505,368.38249700540825,295.75092384186183,319.4211793368522,262.2292302870332,278.1404893771481,126.19145929709688
133.7998723239135,369.41475363262424,295.8607269837377,318.90408847644335,262.74432382783175,278.51713306668114,126.18402013664371
134.22864545973562,370.4436932513963,296.01272723749224,318.43237468044185,263.290178413193,278.8878416717875,126.17485138640836
134.69204581320102,371.45988936211944,296.2054164798777,318.0068708707247,263.8660408846065,279.255710381354,126.16379611386687
135.18904530055246,372.45357931785577,296.43729850493276,317.6284453146914,264.47097004998767,279.6237467552176,126.15073218934445
135.71848623421374,373.4146999708693,296.7069346644879,317.29803626615626,265.1038071217892,279.9948547359097,126.13560018259973
136.27913215265175,374.33307287756463,297.0128914098124,317.016610975338,265.7632566838916,280.37172107859664,126.11836480418901
136.86967343169198,375.1986169128404,297.35373962802424,316.7850358667033,266.4479405897672,280.7566998503852,126.09897110892115
137.48866948617172,376.00147855307154,297.72808261278647,316.6040367121389,267.15634339951725,281.1518174794484,126.07736504626484
138.13450474684632,376.732175404578,298.134480354206,316.47428541489796,267.88678296507715,281.55882289415774,126.05355017828056
138.80540171528204,377.38183109720774,298.57130949480205,316.3964213843936,268.6374862172381,281.9791438538427,126.0275971683772
139.4994335007683,377.9423552079279,299.0367305640885,316.37093385524,269.40663726020836,282.4137893308024,125.99959269490355
140.21448911649196,378.40646188868647,299.5287884385379,316.39808738664595,270.19231576959396,282.8633280645617,125.96960344795343
140.9482512125012,378.7676561873141,300.0454819813838,316.47798604559557,270.9924527432974,283.3279283591275,125.93770561590517
141.69825613421062,379.02028535903355,300.5847353947111,316.6106031562809,271.80488604242544,283.8073344268447,125.90402977666504
