HandOpen,HandClose,Wrist Flexion,Wrist Extension,Supination,Pronation,Rest
2.706619171457774e-07,6.766547928644435e-07,1.7593024614475535e-06,2.706619171457774e-07,1.353309585728887e-07,0.0,1.353309585728887e-07
2.9222505406192265e-06,8.252943061558287e-06,1.8047311804014755e-05,2.786919582046338e-06,1.4611252703096133e-06,2.706619171457774e-07,1.596456228882502e-06
1.572031524113719e-05,5.0543647184306926e-05,9.242783053022955e-05,1.4394520929400463e-05,8.333815975573704e-06,3.057581499192115e-06,9.253617411591763e-06
5.71174533531693e-05,0.00020870551077493906,0.0003208826235426989,5.065075552362387e-05,3.380799608124119e-05,1.7452102428592577e-05,3.575598714128489e-05
0.00016014331136125895,0.0006581854900015605,0.0008632478866397812,0.00013878184514937451,0.00010928016180043172,6.769686507649779e-05,0.00010526170248386855
0.0003740564837897438,0.0017023788094671674,0.0019422622929888922,0.00031931020587092627,0.0002974009121065286,0.00020236599633208926,0.00025543169755425473
0.0007639842959680251,0.003785224912690739,0.003835013515116675,0.0006465499730856999,0.0007044046980504011,0.0005009503144026425,0.0005394423555792824
0.0014090416384641875,0.007481608382209445,0.006861510625333447,0.001188963946800389,0.0014874914945600568,0.001076543198147425,0.0010329642919876631
0.002400305946783251,0.01347411427731299,0.011373490643905538,0.0020322237352132367,0.0028551303793253025,0.002075388138209975,0.0018507218797270137
0.003840452941124916,0.02252500615607224,0.017744513554767267,0.00328777996746011,0.005061243722511065,0.0036739647227018147,0.003172550852705468
0.0058462247013154325,0.035447799816364756,0.026360974654865227,0.005105738877001865,0.008395793455296667,0.006073941010467179,0.00527205073159555
0.008556119858300244,0.053080413525557646,0.037617783949092216,0.007686638051368239,0.013173900852721038,0.009496114949089557,0.008536837487425484
0.01214731680377934,0.07626178160407282,0.05193305965460644,0.011287172105344363,0.019725276502958616,0.014175232336391638,0.013473037692832278
0.01686220780885818,0.10581275721954134,0.06979358613955375,0.016218636876158328,0.02838555089856418,0.02035748128730741,0.020694790252475233
0.023037201969529728,0.14252178686565314,0.09182120100057227,0.022839924970569924,0.03948983088543294,0.02830370951108886,0.03090453093769617
0.031122855985386444,0.1871387932808944,0.11884066333126735,0.03154816106828076,0.053367766709737786,0.03830250120156563,0.04486990424764263
0.041688699417363424,0.24038223095857034,0.1519326148912766,0.042768871694781656,0.0703396595082645,0.05069115158340477,0.06340026058436185
0.05541329177741672,0.3029583823925816,0.19245548243384558,0.056945358777296375,0.09071307595039817,0.0658747844188141,0.08732315392638611
0.07306401258916455,0.37558363580810694,0.24203719938788876,0.07452703240330748,0.1147795298042082,0.08433809751854332,0.11746147444466927
0.09547127348734867,0.45899872549668885,0.3025576293244716,0.09595788789001755,0.1428130394952567,0.10665279574447202,0.1546133715282137
0.12350096987322322,0.5539682367198131,0.37613457571065695,0.12166664575779564,0.17507322396266042,0.13348097273463394,0.19953778118390697
0.15802861847379326,0.661265182820475,0.465113003332887,0.15206045170179597,0.21181136993033767,0.16556876494676895,0.25294858178649937
0.19991799040926617,0.7816467390028744,0.57205020567272,0.18752457506670792,0.25327447756800137,0.20372839654877078,0.31552023861364653
0.2500055274561174,0.9158289918634509,0.6996809183034399,0.22842876988299632,0.2997048663539478,0.24881353214029134,0.3879040805251204
0.3090915055093114,1.0644648644201333,0.8508543165000994,0.2751365175075614,0.3513362907928784,0.3016938552674011,0.4707478033046495
0.3779414624122763,1.2281249265757122,1.0284543495528475,0.32801021372854083,0.4083879500099089,0.36323211894403684,0.5647085574462373
0.45730219730811505,1.4072797442168399,1.2353243770602835,0.38740833111570677,0.47105797192365706,0.43426426772475274,0.6704542889827834
0.5479286722248652,1.6022842880352524,1.4742226940074545,0.45367728553014647,0.5395180854470883,0.5155821404710577,0.7886536592519284
0.6506066837464738,1.8133665716634122,1.7478225521599726,0.5271430455193808,0.6139101877037781,0.6079187333047497,0.9199578691874514
0.7661565703060366,2.0406231783976256,2.05872894829281,0.6081041748779862,0.6943442712326143,0.7119358428976733,1.0649784871380212
0.8954168251320164,2.284025762343666,2.40946920159248,0.6968252344850111,0.7808965769704339,0.8282129694209326,1.224265400235473
1.0392176297128957,2.543442333940739,2.8024462858420094,0.7935299400270237,0.873607858931679,0.957236557549278,1.3982877347440787
1.1983533685050767,2.818668031606792,3.23987222112378,0.8983944090030783,0.9724823456244462,1.0993900512104555,1.5874181434791665
1.373556832031316,3.109449349876305,3.7237012309453825,1.0115411830109193,1.0774865124340154,1.254946910245391,1.7919208811371934
1.5654769119722003,3.415490191116327,4.255579239786861,1.133035392028405,1.1885469487209714,1.424068436010566,2.011948020263104
1.7746646082842816,3.7364437004106676,4.8368262569787435,1.262884549894392,1.3055489211286582,1.6068048559177046,2.2475480331616247
2.001568579130313,4.071902721773071,5.468452134795906,1.4010424564681943,1.4283373368145194,1.8030961814446775,2.498680755775945
2.246533224962342,4.421397630821319,6.151180182272661,1.5474156234118723,1.5567202361676717,2.0127732515716974,2.765226008298257
2.509792330433834,4.78439949268942,6.885464692479471,1.7018687157530712,1.6904741961001877,2.2355647114725454,3.0469823644182865
2.791459159877012,5.160320684568292,7.671518310227243,1.86422710788813,1.8293502877757029,2.4711120715653463,3.343664487501961
3.09151882517923,5.5485106770878225,8.509349181078061,2.0342780311517834,1.9730782487945444,2.7189848295272636,3.6549067477620403
3.409827105901553,5.948254256097138,9.398778933102417,2.211772356342515,2.1213673952841536,2.9786873393100795,3.980271045707667
3.7461136093283556,6.358780117674777,10.339428896599923,2.396427990218556,2.2739052951961383,3.249658771162422,4.319250571610612
4.099982869216033,6.77927637103818,11.330688838623576,2.587934164804882,2.4303562974529114,3.5312719892103472,4.671266344137722
4.470911585258824,7.208900914380445,12.371680901482948,2.7859542522812593,2.5903612257302164,3.8228342306675924,5.035663699194177
4.85824846453103,7.646783307199741,13.46122382633234,2.9901266874680266,2.753538473431518,4.123589609491346,5.411718107788348
5.261223385059623,8.092029341784194,14.597805582239282,3.2000680221091873,2.9194859909282695,4.43272261869278,5.798649007416695
5.678962801171059,8.543736184756593,15.779575251977422,3.4153825718144257,3.0877835973120717,4.749362615442039,6.19563013073897
6.110501444091128,9.001008334645348,17.004360946482365,3.6356759409291817,3.2579956873921194,5.072592774969293,6.601790372401222
6.554786997083008,9.46296153215878,18.26971419671911,3.860563358372671,3.4296749238277893,5.401466404855995,7.016211737184492
7.010685041467219,9.928716656276759,19.57296998247817,4.089668758483397,3.6023666979721622,5.735025792339947,7.437933555921685
7.476992251279814,10.397397227832842,20.911296026282788,4.322619848351391,3.775613081938101,6.072316331811391,7.865964124286583
7.95245660744362,10.868143738960926,22.281712282996356,4.559046223642036,3.9489559114483996,6.412394009236774,8.299291900412657
8.435795361893017,11.340142416784058,23.68108873375919,4.798581641223733,4.121939665361577,6.754328440394626,8.736888894269315
8.925703887538386,11.812646145505715,25.106137031595896,5.040864779320995,4.294114009288469,7.097205227517967,9.17770836126068
9.420857819587276,12.284971651799797,26.553400831207647,5.285534291836719,4.46503549250325,7.440129768638422,9.620686074544311
9.919916932814175,12.756484638779174,28.01924594948815,5.532221475678918,4.634268536188386,7.782230441189581,10.064750784642714
10.421535175465772,13.226593734158337,29.49985537752006,5.780546288654106,4.80138583741269,8.122658388758111,10.508837574634969
10.924371143030054,13.69475523780436,30.991235876695608,6.030118502318391,4.965968029830125,8.460584688637855,10.951893496907033
11.427092143002026,14.160473304829166,32.48923698070483,6.280540480341155,5.127603567868414,8.795197885873492,11.392875761074269
11.928374900316413,14.623287574425955,33.98957390644978,6.531406656878683,5.285892190656106,9.125702972824998,11.830752709730325
12.42691194862367,15.08275888162913,35.48784613563285,6.782300493542451,5.440454094060886,9.451320775019246,12.264511959098225
12.921426512350097,15.538466924593543,36.979554349116775,7.032795960805191,5.5909406139473905,9.771288783252654,12.693168175385297
13.410687170936828,15.990017594877978,38.460127665494845,7.282467856919277,5.737040113616186,10.084866012624722,13.115763393366452
13.893512479083558,16.43704424747957,39.92497018437707,7.530905245086769,5.878478744498122,10.391339990924429,13.53136329067289
14.368767715172673,16.87919614286031,41.36951700035233,7.777718127570802,6.0150209079292924,10.690031303598527,13.939058234939155
14.835364472079334,17.316124752794916,42.78927627399632,8.022535227487749,6.1464718721684175,10.980296603558845,14.33797228584613
15.29226799151311,17.74747833268355,44.179849828617016,8.264998882523493,6.272679225640725,11.261534098278233,14.727272849669312
15.738505805899576,18.172901060983687,45.5369467926103,8.504763225689917,6.393529663889866,11.533189728600151,15.106172432551816
16.173169694211115,18.5920283679847,46.856400891646665,8.741497792199395,6.508942804738442,11.794758636539406,15.473924719883431
16.59541171860679,19.00447791811634,48.13418642289317,8.97489305253192,6.61886618039872,12.045782196805765,15.829824348558569
17.00444224997762,19.40984252987223,49.366432244116695,9.204661320095042,6.723272880317184,12.28584768487159,16.17321361674316
17.39953545221095,19.807691624001695,50.54945652696346,9.430530882211592,6.8221598882367465,12.514594815132922,16.50348930603957
17.78003734237761,20.197580062481904,51.67984718322326,9.652237953235417,6.915545369917585,12.731723537921408,16.820102411324697
18.14536629431635,20.579053834070827,52.75458016017921,9.86952201004776,7.003465539901541,12.93699618207699,17.12255206348881
18.495004482597196,20.951646470090814,53.77114350200954,10.082124660446139,7.085971765734289,13.130235436695049,17.41038170607296
18.828489903042644,21.314873146421387,54.72763070233971,10.289787774045262,7.163127497831049,13.311321766587056,17.68318406531094
19.145417911855294,21.66823090406858,55.62276751525901,10.492249436815463,7.2350056423079225,13.480188603990152,17.940611151041946
19.445449524294954,22.01120350386697,56.45586362241136,10.689241336160046,7.3016876869428256,13.636813466188993,18.18237812905194
19.72831542593069,22.34326447305621,57.22672994630497,10.880490497232309,7.36326399412565,13.781207901733938,18.408257205707717
19.99381094796462,22.66387609452251,57.935627796289864,11.065723884090513,7.41983340726107,13.913410424146488,18.618069929282647
20.241788989833047,22.972487450953246,58.58328680387768,11.244672565992637,7.4715016179198575,14.033484019987602,18.811688455063216
20.472159877932217,23.26853787310083,59.1709754498502,11.417073706900538,7.51837935528874,14.141516738309937,18.989046229905227
20.68489805929806,23.55146884209705,59.70059596960433,11.582671294604808,7.560581810386775,14.2376216496114,19.150147050177164
20.880046481613956,23.820737059765282,60.17478138973776,11.74121922112997,7.598229342917963,14.321933832397944,19.295064172539128
21.057712446363993,24.07581999894025,60.5969557896035,11.892488938489128,7.631447726142511,14.394607133849021,19.42393450475192
21.21805922407295,24.31621793594281,60.97132403016246,12.036277322553364,7.66036732592855,14.455816877043201,19.536957755263266
21.361301345539943,24.541465806240478,61.30278644431255,12.17240873191635,7.685122500490341,14.505769244147686,19.634401067343546
21.487704820301893,24.751158945532605,61.5967907134044,12.300731464235048,7.705851454969414,14.544708189130775,19.716599850451175
21.59758590338941,24.944977342939243,61.85915505241557,12.42111253379841,7.722696733554428,14.57291353443004,19.783950001857747
21.691303636496713,25.1226913921984,62.09592047647988,12.533433601629515,7.7358074331052205,14.590695654287536,19.836898584401922
21.769249695085776,25.284155341049704,62.313259832986326,12.637589404253106,7.74534195869014,14.598392031452619,19.875942009743454
21.831843082809495,25.429315919009433,62.51740530015436,12.733488382243971,7.751469397716271,14.59636401495869,19.901630313437295
21.879531412834588,25.55825069937824,62.71455607350583,12.821054411591087,7.754370131419486,14.584994037034702,19.91456664172281
21.91279141187262,25.671209998041725,62.91078797346778,12.900229667541053,7.754236201082162,14.564686335224753,19.915396810509872
21.932123055707155,25.768625656205042,63.111996714389335,12.970978620610286,7.751270230511239,14.53586953965697,19.904797247179125
21.938042502967143,25.851086071074214,63.32386635845031,13.033290702570065,7.745682900901869,14.498997042412928,19.883471791372497
21.931080642967157,25.91930127079802,63.55184046436728,13.087178841316895,7.737690627436586,14.45454388556261,19.852156541833267
21.911784733427638,25.97407198084515,63.801081899685805,13.132674361084977,7.727513969988759,14.403000420128329,19.81162137678773
21.880716002102954,26.01626400578698,64.07641066751555,13.169821836489412,7.7153761177973825,14.344863412373844,19.76266095451196
21.838441532347147,26.04678825913412,64.3822238529062,13.198679405834822,7.701501450841148,14.280626422898486,19.706081567914232
21.78552553433719,26.066590013343983,64.72242352682075,13.219327447425703,7.686114044790564,14.210771648489994,19.642695097338628
21.722527704062973,26.076648503505094,65.10038108979619,13.2318793000121,7.6694349307928755,14.135764590480772,19.573321805970632
21.650012256663064,26.07797679360034,65.51895650125226,13.236484219359475,7.651678113015301,14.056051670207681,19.498791733601067
21.5685604771846,26.07160933365511,65.98056479682305,13.233321875995669,7.633047809421155,13.972060163068472,19.41993635233976
21.47877518580034,26.058578552598384,66.48723730857728,13.22259637557901,7.613738638090881,13.884200844174922,19.337575776170112
21.381274691591116,26.03989128164449,67.04062971466035,13.20453524605433,7.593936988510634,13.792874832503571,19.25251270374301
21.27668311267003,26.016514387776933,67.64199633992453,13.179390841936774,7.573820900438057,13.698482650471316,19.165534116906667
21.16562383336871,25.989374955811883,68.29217590249202,13.14743960259454,7.5535585936754,13.601429093504565,19.077410194380384
21.048717107340703,25.959369503727448,68.9915894125996,13.108978862810055,7.533308769377738,13.50212051209686,18.98888419207258
20.92657741437969,25.92736754286466,69.74022069224546,13.064324128802117,7.513225738419586,13.400957422768412,18.90065987019674
20.799807806163262,25.894206528332546,70.53758473576394,13.013809325687502,7.493468122916667,13.298326815178342,18.81339622680935
20.66899500040179,25.860691243469514,71.38274082117105,12.957788622693709,7.474205431586777,13.194596380107196,18.727710339139296
20.53470990719549,25.827601416375327,72.27438071229822,12.896635283770106,7.455618294899951,13.09011082189858,18.644179209294588
20.3975118974023,25.795693864544695,73.21093284904194,12.830736183632686,7.4378941779958465,12.985189949959183,18.563334015378018
20.2579502186659,25.765690789175846,74.19061130470347,12.760486511904901,7.421224065711888,12.880128135524508,18.48565316753897
20.11655898761733,25.738263481363738,75.21141149195789,12.686290658223752,7.405802694149708,12.775193960799994,18.411565918124683
19.973849191479573,25.71402667966269,76.27108864232788,12.60856958866471,7.3918292220118715,12.670630183888683,18.34146671694478
19.830305300891553,25.693547709553908,77.3671396012011,12.527766855135939,7.379504444249589,12.566655333430854,18.275726589356417
19.686391264561752,25.677357258944372,78.49679926112653,12.44434589478416,7.369024545948978,12.463466080002052,18.214691464549457
19.542560399677903,25.665947368369654,79.65705169346613,12.358780636512073,7.3605741711620345,12.361238589671501,18.158673277925036
19.399257988652067,25.65975836608645,80.84463871059053,12.27154674008679,7.354321362030527,12.26012849568498,18.107946320478074
19.256914212302636,25.659166526648463,82.05606981800793,12.18311741323123,7.350414937080085,12.160270164387418,18.06275161538724
19.115936901537864,25.664479360739517,83.28768575395611,12.093962075592199,7.348982973055466,12.06177744549175,18.023300073453996
18.976712804106608,25.675935787471687,84.53580648519961,12.004543970760617,7.350131688971471,11.964747937495245,17.989767306648584
18.83961415765429,25.693704259105445,85.79690230132356,11.915315190587611,7.3539459142630434,11.86926883884441,17.962284868311126
18.7049999983494,25.717875932250443,87.06769591443292,11.826711429864174,7.360491129746333,11.775423046205201,17.940937977405305
18.57320827504121,25.74845778772316,88.34517094082777,11.73915080996229,7.369815012209045,11.683302380813947,17.925771865919174
18.444546023429968,25.785373500814195,89.62652234747978,11.65303834500494,7.381947614207605,11.593031112417725,17.916797236032625
18.31928667969917,25.828471253138574,90.90908752463177,11.568770866936692,7.396900443056629,11.504784829970573,17.91398680517949
18.197674509268964,25.87752849245042,92.19027858843154,11.486735865280489,7.414664405553291,11.418790084168695,17.917267792912178
18.07992760743441,25.932249463716705,93.46751870466085,11.407305103195986,7.435207697579135,11.335310442429188,17.926520754902064
17.96623374223968,25.992263473105346,94.73818011061084,11.330829905024087,7.45847520020624,11.254631803530538,17.94158651184596
17.856742484428153,26.057132809697922,95.99953957648324,11.257642363947607,7.484389142383695,11.177052882454932,17.96227256765042
17.751561385020864,26.12636768294196,97.24877999624627,11.18805879126053,7.512849864488123,11.102881409266764,17.988353081199865
17.650759759073694,26.199435999624054,98.48303944027697,11.122378436975367,7.543736812556099,11.032432325937036,18.01956700467619
17.554375530967558,26.275762595584407,99.69946413413129,11.060876753725239,7.576910676841676,10.966022207486654,18.055622249549014
17.46241866443558,26.35472712045123,100.89522037270048,11.00380002506234,7.612215638710911,10.9039589246052,18.0962062278687
17.374870688236573,26.435671628928603,102.06746850126896,10.951367312424122,7.649479388258662,10.846532204338914,18.140993859102547
17.291684050876277,26.517915618712266,103.21333458234541,10.90377727296917,7.688511076431157,10.7940099700953,18.189646622065112
17.212783137923232,26.600766641506375,104.32989657532426,10.861211936469843,7.729099811985974,10.746637983533496,18.241807997721118
17.138065305472526,26.683523769871318,105.41417320993047,10.823834014099177,7.771016096820959,10.704637866201814,18.29710447313451
17.06739963880676,26.76548536230394,106.463104660424,10.791781153475807,7.814016610259468,10.668203712298943,18.355152992587
17.000623234853744,26.845967535329077,107.47354148026322,10.765161071468178,7.857849364117986,10.637501149375789,18.415567063841767
16.93753733069016,26.924321981909184,108.44228784762865,10.744048327637492,7.902255568521971,10.612670192566037,18.477955585400682
16.877907211884256,26.999939661566557,109.36621712942527,10.728481576827305,7.946968798597253,10.593827912114826,18.54191861824197
16.821468096656528,27.072242339004305,110.24239384767972,10.71846089045053,7.991714835941603,10.58106631440273,18.607050375741924
16.767934073109217,27.140674910270818,111.06812310178981,10.713946574349324,8.036213302472495,10.574446103878913,18.672952132759832
16.717005204443165,27.20470906829209,111.84092896670697,10.714860895016347,8.08017979948528,10.573989930797005,18.739243665777003
16.66837195471837,27.263856016337154,112.55851191244047,10.72109191863393,8.123327625814603,10.579677949542347,18.805561914905912
16.62172048317599,27.317675353553174,113.21871878935374,10.73249647215217,8.165369002113788,10.59144931087067,18.87155086412681
16.576740868985237,27.365774420321547,113.81953157609543,10.74889993540541,8.20601615555983,10.609211895939302,18.93685595040946
16.533134067326145,27.407805929333993,114.35906296946723,10.770094572673683,8.24498282631106,10.632854708563507,19.001129186154685
16.490612290729967,27.44347002951521,114.83554382352723,10.795841887638943,8.281986373928072,10.662253436490314,19.06403766162648
16.44889415307193,27.47251544905998,115.24730863213142,10.825883131857863,8.316750480681597,10.697267511476577,19.12526558305821
16.407700639767153,27.494732655911662,115.59281744939297,10.859953599812108,8.349008570663466,10.737735042059263,19.184510183243304
16.366756841609412,27.5099410027643,115.87074569982113,10.8977900257419,8.378508024705145,10.783470594659448,19.24147987930943
16.325799044162007,27.51797983927452,116.08011450562083,10.939127623107426,8.405015236809708,10.834265233875898,19.295899171733538
16.28458050916963,27.5187142458206,116.220398106671,10.983695367882003,8.428321121803744,10.889887760159983,19.34751421499032
16.242870798003633,27.512053254241376,116.29156650291728,11.031218476359038,8.448245793123263,10.950090857809684,19.396091652021486
16.20045213067121,27.497962190035587,116.2940592185289,11.081426587083854,8.46464056203097,11.014623869986282,19.44141304578917
16.157120154411142,27.47645654092794,116.22871570584367,11.134059145687699,8.47738674211115,11.083245212210743,19.48327244597639
16.112691809779058,27.447585683616357,116.09669542487478,11.188863942172171,8.486394143831845,11.155727631544117,19.52148007467456
16.067015582665128,27.411422264389795,115.89940385515649,11.245592658365334,8.491603107870416,11.231856305190934,19.555867954326732
16.019976452378994,27.36806326443464,115.63842481258268,11.30399771526166,8.492989631324262,11.311422205582186,19.586290914830652
15.971493409984355,27.31763541228458,115.31546108752671,11.363829840815956,8.490569370320955,11.394213752872494,19.61262149544677
15.921516474113934,27.260294268580434,114.93230282267025,11.424834386738127,8.48439993449189,11.480010072612151,19.634745359892268
15.870030491841893,27.196217454177276,114.49084373972543,11.486747384210062,8.47458711268558,11.568578003623331,19.65256559774711
15.817062339831796,27.12560185642994,113.99312256871609,11.549293374089197,8.461296438412447,11.659673053909986,19.666013916699104
15.76268179034413,27.04866776144698,113.44133645049796,11.61218501965033,8.444760305225923,11.753041281512921,19.67505680883261
15.706994299978456,26.965661765757236,112.83780745129403,11.675123394706107,8.425272442564491,11.84841947996802,19.679691650981123
15.650135143597007,26.876851296110203,112.18492949605063,11.737798031904362,8.403174128405615,11.945537651277712,19.679941668515866
15.592273645385356,26.78251329809603,111.48512626098547,11.799886260158246,8.37884087987498,12.044128461294168,19.675859645136647
15.533623091241013,26.682926473359558,110.74082679205999,11.861052814613773,8.352674052286282,12.143938168851227,19.66753718144343
15.474443129844868,26.578372768595155,109.95444418117478,11.920952006587473,8.325097226888373,12.244729351699974,19.65510717212783
15.41503052452177,26.46914231511687,109.12834448644296,11.979233189247703,8.296553551640933,12.346274580017539,19.638735242696313
15.355707820202662,26.355532280046994,108.26481067451847,12.035547076768776,8.267499671691189,12.448346876029873,19.618608922996813
15.29681832022167,26.237840617783924,107.36601698408853,12.08955008978172,8.238395598777844,12.550711251732576,19.59493380166594
15.238723963148036,26.116364694815715,106.43403775732308,12.14090634575203,8.209693185633125,12.65311878749141,19.567935420165533
15.18179866478609,25.991408102095274,105.47090553368515,12.189288241457088,8.181826231079043,12.755303865279723,19.537857801758687
15.126417237390116,25.863286293574753,104.47869149177008,12.234376425211183,8.15520399010514,12.856987304928277,19.50495476645096
15.072947648343133,25.732321802337314,103.45956520803036,12.275860091368878,8.13020799442085,12.957888483655605,19.469481586910742
15.02175371230974,25.598831966529726,102.41582165657378,12.313438081092656,8.107190426890508,13.057740926952617,19.431695318335997
14.973204745998903,25.463120639087272,101.34988347432827,12.346820085644753,8.08647191452551,13.156299619772673,19.39186070009211
14.9276797425837,25.32547993332343,100.26428060513302,12.375727239196328,8.068338229779059,13.253337357030906,19.35025100508777
14.885560066372456,25.18619471471579,99.16160636066019,12.399892476806404,8.053038079874561,13.348638297749902,19.307140535801906
14.847215867341655,25.04554004665458,98.0444577048408,12.419061644313775,8.040783611649632,13.441994495083856,19.262796924050242
14.812993429554899,24.90377239185259,96.9153754145718,12.432996014745095,8.031751934277043,13.533203566172853,19.217481797432292
14.783207849422833,24.7611254970909,95.77679384646989,12.44147590459345,8.02608693251448,13.622064902918128,19.171457580119505
14.758140618998086,24.617823452548294,94.63100042030804,12.444304438433074,8.02390374829626,13.708378288409738,19.124989284836364
14.738036404854634,24.47410807144023,93.48010437760077,12.441310812994951,8.025295382707181,13.791955879865016,19.078335945808426
14.723095872042773,24.33025861720272,92.32602664342048,12.432352941608327,8.030336324981867,13.872653403809771,19.031739568894153
14.713470048446236,24.186591747331107,91.17053875425215,12.417319388924033,8.039080726966263,13.950405325321928,18.985422278981204
14.709262182758822,24.043455273550197,90.01535162923822,12.396130125836114,8.051559154458232,14.025239397713033,18.939591844194215
14.710533292056247,23.90122803539262,88.86219711315638,12.368736146222867,8.067779806732391,14.097265628937084,18.894445145357828
14.717303216415752,23.76031753929045,87.71285399908737,12.335120299821916,8.087734599467206,14.166654085770897,18.85016314239371
14.729546675736918,23.621145480406234,86.5691349076198,12.295302049917701,8.111403843407764,14.233613933520097,18.806904957390568
14.747192675038606,23.4841298283883,85.43287733821127,12.249344092668027,8.138754695848089,14.298376654360897,18.76481259330031
14.770133740019986,23.34968471740877,84.30595332805163,12.197355186789311,8.169735654638046,14.361181727944423,18.724024798893478
14.798239664540745,23.21824567626334,83.19027017074605,12.139486810919019,8.20427213815571,14.422263074073795,18.68468623286318
14.831364297000379,23.09029676239381,82.08774731768881,12.075926825281982,8.24226562900717,14.481836766317436,18.6469440858704
14.86934221309913,22.966372288902964,81.00031191055129,12.006896307983938,8.283595363507883,14.540092588523283,18.61093925556106
14.911983175772743,22.84703621610693,79.92994548790283,11.932653191844398,8.32811979474553,14.597191203135385,18.576803656658953
14.959073718736265,22.732860139143533,78.87874017660788,11.853497817367284,8.375675976662636,14.653264352756436,18.54466597180214
15.010386846411793,22.624409422195605,77.84891021470986,11.769771771900775,8.426077156273761,14.708413636261334,18.514656738601456
15.065691435918968,22.52223160708669,76.84275979555251,11.681849183880484,8.47911006268377,14.762707091677871,18.486904943934476
15.124753252424993,22.42684065285105,75.86263173345327,11.590128735282793,8.534532982213364,14.81617638764306,18.461529909388002
15.18732992533966,22.338700368845366,74.91084340524773,11.49503394136123,8.592074821229412,14.868816903373334,18.438638552127355
15.253171119035176,22.25821618087215,73.98961134102072,11.397019315417523,8.651435576543534,14.920589935417329,18.41833087796588
15.322029858155185,22.185737947188457,73.10097575714636,11.296572916167515,8.712289749465748,14.97142461084689,18.4007039734135
15.393675581519176,22.121564336917185,72.24673555683864,11.194210561966216,8.77429335982143,15.021218077911364,18.385846171362513
15.467895908732107,22.065938968077408,71.42840038474517,11.090465598343258,8.837092181481406,15.069834193959407,18.37382669120639
15.54448725656695,22.019041288770318,70.64717014456053,10.985879510952213,8.900328415989758,15.117102814924042,18.364690586448514
15.62324423789823,21.980982052128393,69.9039418914407,10.88099431333751,8.963645448959017,15.162822748295632,18.35846111467958
15.703954087766276,21.951805663809647,69.19932188307499,10.77634487253802,9.026691376239413,15.206769311235599,18.355143540853945
15.786394767167646,21.931491934679798,68.53362835607956,10.672450495217884,9.089121878855394,15.248703923509746,18.354724104138327
15.870333549633008,21.919951833824747,67.90689359215783,10.569807004091622,9.150602657014417,15.288383049713975,18.35716480594161
15.955524830434477,21.917022150801913,67.31886903764399,10.468881932743715,9.210810381905883,15.325568361518153,18.362401134321242
16.041707636152523,21.922470951105588,66.76902621384724,10.370115068402887,9.26943161187368,15.360040560107134,18.370347804539296
16.128605534200062,21.936019534136896,66.25655326410832,10.27392214066226,9.326161559963714,15.39161118882754,18.380907307495523
16.21593015533985,21.957367908447377,65.78035563392126,10.180696280277445,9.380704527229735,15.420123906736523,18.393971949054396
16.303383566440615,21.98620551877347,65.33906924341642,10.090805742821253,9.432775692175417,15.445446706776446,18.40941920188653
16.390655084692618,22.02220786891871,64.93108448990805,10.004592829891239,9.4821034355401,15.467464445701829,18.427109553971206
16.47741702550901,22.0650322767577,64.5545699045553,9.92237923117877,9.528431518009848,15.486076489309765,18.44689444120682
16.56332862340288,22.114316681604674,64.20749283070008,9.844474890533418,9.57152014777418,15.5011961294349,18.46862970833894
16.64804888202386,22.169675176822928,63.88764489635489,9.771181598066663,9.611145847127162,15.512747523832408,18.49218102151017
16.731247291248785,22.230687471300286,63.5926726978592,9.702788145567148,9.647101283387375,15.520660799822299,18.517416383465946
16.812604358594342,22.296887429696202,63.32010565921219,9.639562472378362,9.679195879948953,15.524868860515644,18.544196111364812
16.891808424312956,22.367757091040747,63.06737467272329,9.581747865547772,9.707257451754703,15.525307535932313,18.57237135972174
16.968560605773533,22.442731568497717,62.831821598536884,9.529565661912153,9.73113572010964,15.521917110299825,18.60178952312093
17.042588181165282,22.52122079803765,62.61070702006294,9.48322010403942,9.750707418249906,15.514642238995535,18.632296368154407
17.113654046101864,22.602643474819818,62.40122259065036,9.442899322200187,9.76588000988966,15.503429471287761,18.663730864306743
17.181554918142293,22.68645382240003,62.2005057415176,9.408771382704774,9.776591745933409,15.48822435671081,18.695919442911634
17.246115779247646,22.77215280804362,62.00565284689638,9.380978015820709,9.782808433435578,15.468970571832795,18.728677222512385
17.307191748450872,22.85929455068075,61.81373403880934,9.359628611758838,9.784517960738816,15.445610584306758,18.76181464624345
17.364677718236436,22.947491219770995,61.62181697013704,9.34479605881063,9.78172388248373,15.418085266202084,18.795141391154868
17.418514370389243,23.03640830949319,61.4270001526489,9.336514192284069,9.774440505167568,15.386333883070174,18.82846392986603
17.46868242151942,23.125751016348673,61.22644629223313,9.334775422874717,9.762692254645954,15.350301841250587,18.86158148765167
17.51519125202628,23.215252368540522,61.0174073621638,9.339528460429504,9.746517352489912,15.30995854920897,18.89428687065066
17.5580736843869,23.304668122679587,60.79724264418313,9.35067782665288,9.725971951015662,15.265314389585601,18.926372217899967
17.5973888263279,23.39377171159307,60.56343598807732,9.368085426180727,9.701131436170709,15.216426194647093,18.957631910828194
17.63322342955781,23.4823418725191,60.313620358810915,9.39157178751564,9.67208923925653,15.1633934609997,18.98785729865569
17.665685349407422,23.570146155098804,60.045611625177294,9.4209157080848,9.638955105292158,15.10635135800646,19.016828914854088
17.69489511780138,23.65693032167382,59.7574401161148,9.455854279251126,9.601854147701763,15.045462827869969,19.04431641895572
17.720984503194206,23.742418603644268,59.44736773739288,9.496085981324104,9.560926271704119,14.98091059382532,19.07008797953552
17.744101323359914,23.82631905989149,59.11388877059259,9.541276685811013,9.516324130184792,14.912889616967043,19.093919219893465
17.764411672578376,23.90832532001239,58.75571865630529,9.591064720444702,9.46820949524971,14.84160125442771,19.115593392860042
17.782093747932606,23.988113753632714,58.37177895948376,9.64506227878933,9.416751636348724,14.767250928391016,19.134896834452576
17.79732694327421,24.0653434904827,57.961189885511935,9.702855894497812,9.36213060004115,14.690048961786616,19.151619316827034
17.810285933390297,24.139666922961595,57.523276103819576,9.764011465596512,9.304542923970102,14.610211399167497,19.16556164820433
17.821144756095578,24.210747514793418,57.05757827585031,9.828086052615625,9.244205690245527,14.527957674313203,19.17654295737168
17.830083695394585,24.27827175072583,56.56385773258566,9.894642039968392,9.18135817267182,14.443504923706175,19.184401082860024
17.83728883902035,24.341948501422454,56.042089715058474,9.963256619692789,9.116263216620784,14.357061691050898,19.188989212093198
17.84294551785975,24.40150258789129,55.49244854262812,10.033524715388788,9.049210234101281,14.268825987791528,19.19017628010956
17.847236339206056,24.456672794480266,54.91529085659041,10.105060827561656,8.980517662123425,14.178992090459115,19.187852585106413
17.85034854887384,24.507217878075387,54.311142812797655,10.17750564315499,8.910530427216672,14.087762581626642,19.18193358830929
17.852481145691215,24.552924654755444,53.68069107909315,10.250534503678901,8.8396117130042,13.99535482572382,19.172356052049178
17.85384095265312,24.593610038568595,53.02477001020534,10.323859632644137,8.768132493119563,13.901997077302036,19.159070143249895
17.85463013683794,24.62911808699599,52.34434210077398,10.397224629904635,8.69646305956292,13.807920509160455,19.14203609208589
17.855035229856313,24.65932031422836,51.64048139720402,10.470396791546502,8.624968753293148,13.713354538613942,19.121228952403914
17.855223941947905,24.684121351219506,50.91436813279409,10.543161702945609,8.554008513711262,13.618526545884261,19.096645002522866
17.855348677930014,24.703462341736415,50.16728745825166,10.615320044511474,8.483933309480681,13.523662331976814,19.06830095757527
17.85555005534926,24.71731535848591,49.40062014761995,10.686684087830061,8.415083546313992,13.428984862852516,19.036227039349765
17.855956172441193,24.725671782153366,48.615823930966826,10.757072374622798,8.347788254018019,13.334716503088849,19.000464078125432
17.856682218851514,24.72853528616978,47.81441401276936,10.826304093810528,8.282368443623136,13.241093790705564,18.961071254381004
17.85783552487001,24.72592708810061,46.997953446694865,10.894196705702873,8.219140551608135,13.148391744512411,18.918138437380005
17.859520765357164,24.717897445309173,46.16805581269711,10.96056830000481,8.158414198093078,13.056940025121643,18.87179064780918
17.861837344296674,24.70453212811088,45.32638829420084,11.025241481847255,8.100485337755341,12.967119628016187,18.82218055750519
17.864870717967758,24.68595815679828,44.47466394021721,11.088044649227747,8.045630241194603,12.879346516791198,18.76947809507136
17.868685707283,24.662360424898967,43.61462850732863,11.148809768158722,7.994103247541819,12.794053633224635,18.713868951175172
17.873326852075667,24.63400169243705,42.748052889655604,11.207368282875812,7.946137374938169,12.711676875553428,18.655561973379044
17.87882357792318,24.601227278349768,41.87672973862961,11.263547212388085,7.90194577387641,12.632645355546147,18.59479336245506
17.885192715390215,24.56445207085332,41.00246453118859,11.317166161233981,7.86172371629145,12.557373685243544,18.531820429702343
17.89243422471581,24.524145702071092,40.127058794740904,11.36803460768357,7.825653294424134,12.486255106995293,18.46691232935234
17.900524314007477,24.480828728986268,39.252292981116426,11.415949760445388,7.79391214343074,12.419656657114729,18.400349970194362
17.90941389030328,24.43507291467041,38.379916210691306,11.460697650174726,7.766681899276963,12.357916221227889,18.332435830534937
17.91903493884938,24.38748974740135,37.51164217005428,11.502060925565235,7.744149368931113,12.3013388995934,18.263500136500504
17.9293080018544,24.338704898617227,36.649144787740724,11.539832266064867,7.726498872531582,12.25019167620593,18.193893901403566
17.940143262201826,24.289329476644095,35.794051742923635,11.573825775063023,7.713900759116038,12.204699668796117,18.123976744975096
17.951437351819155,24.239937702497897,34.94793954501045,11.603880957551679,7.706501477846844,12.1650474230053,18.054112557557975
17.963074327313162,24.19105376532644,34.11233443016603,11.629862451350101,7.704417279598336,12.131382707551703,17.984673788478915
17.97493343062937,24.143144544625294,33.28872811777304,11.651660880672583,7.707731154550069,12.103817980482743,17.916043870788748
17.98689670752925,24.09661242276357,32.47861010561954,11.669195265884733,7.716491276913019,12.082429822691477,17.84861142006207
17.99885150205136,24.051786866616624,31.68349195872643,11.682413386751719,7.730708980691518,12.067258649330627,17.78276226793467
18.010690347677905,24.008920366203352,30.904901784284757,11.691288006893263,7.750356155078232,12.058308010115443,17.7188794663433
18.02230981789357,23.96819254209096,30.144360332820135,11.695811525627724,7.775363472451393,12.055543602824562,17.657351403999733
18.033607601355502,23.929716856434762,29.40335829852636,11.695993620782248,7.805619508078234,12.058894951400598,17.598576355378572
18.044479132259365,23.89354249275434,28.683337395991472,11.691863794630843,7.840969974566045,12.068259672453872,17.542955073200872
18.054814603024838,23.85965246317574,27.985671450878822,11.683476230685017,7.88121779121101,12.083506157847598,17.490876306860184
18.064495813011696,23.8279656470293,27.311650276630747,11.670912226311648,7.926124698064543,12.104472378576597,17.44270573603857
18.07339444447936,23.79834654041264,26.662473035367583,11.654277460061149,7.975413748155799,12.13096279983812,17.398782634549192
18.08137331149174,23.770616179415207,26.039250297237945,11.63369601245708,8.028772387864846,12.162747776992665,17.359418718095522
18.088287863659367,23.74455575858197,25.443002496935286,11.609306424496786,8.085856553180289,12.1995686847666,17.324892041672168
18.09398504428888,23.71990441184478,24.87464603791351,11.581262177819644,8.14629556820337,12.241146724117984,17.29543766624808
18.09830151658858,23.696361530698006,24.334973410694143,11.549732911764663,8.209696976356637,12.28718905276041,17.271243741240543
18.10106589235623,23.673601055069497,23.82463942235236,11.514902543045242,8.275651268500278,12.337389939026957,17.252456041732266
18.102108128873844,23.651291121917428,23.344158987870145,11.476965547409153,8.3437371530465,12.391432865649728,17.23918286308221
18.101273123514726,23.629104352658608,22.89391152721655,11.436125851038474,8.413526526261613,12.448998129909349,17.231492572592792
18.09842895305349,23.606717347734417,22.474142391822348,11.39260029034607,8.484588050364296,12.509770610355089,17.2294079576203
18.093465026749257,23.583816686015446,22.084957894912932,11.346622331702715,8.556490364397972,12.573440497437762,17.232908122075862
18.086287574016733,23.56012108816423,21.726318585990875,11.298440495667341,8.628805902976543,12.63969786878111,17.241939936470462
18.076821822573347,23.535403623548163,21.39803703770002,11.2483119213845,8.701114208810424,12.708227494256906,17.256427501317898
18.065019309606004,23.509495906829734,21.099787487882956,11.196497069931846,8.773003158772566,12.77870772991893,17.276270504418793
18.050860291534892,23.482278547534225,20.831138251675736,11.143261799761609,8.84406847445502,12.850811028852899,17.30133695612656
18.03434707395535,23.453674174951413,20.59160413328904,11.088885538708748,8.913914016847384,12.92420172194397,17.331461384978823
18.01549584982686,23.423649008583073,20.380689768590333,11.03366613602533,8.98215461956532,12.998531769406094,17.36645148682332
17.994336115168288,23.392211988776605,20.197902054520206,10.977916470980713,9.048420812892742,13.073438886638542,17.40609536060797
17.970916264120405,23.35940308836327,20.042741047823938,10.921958426027032,9.112363652154919,13.14854937968322,17.450161269964862
17.945305442173503,23.32528109229111,19.91469051725577,10.866120884370188,9.173657508094577,13.223485478141463,17.498392692398674
17.917586468769763,23.289922645030114,19.813230054417602,10.810741160395835,9.231999645517973,13.29787460255809,17.550508445162986
17.887845237656666,23.25342656240599,19.737877281807183,10.756164443852107,9.287107991026058,13.371355046235138,17.606211318774797
17.856165955600677,23.21591055874545,19.68823878820107,10.702738766529087,9.338719214850551,13.44357606160241,17.665196892994892
17.822637050466962,23.177498570795777,19.664041714296214,10.650808010931806,9.38658777399238,13.514197037478244,17.72715369948693
17.78736269387009,23.138307393348605,19.6651404399154,10.600706007370484,9.430485615866337,13.582888255105145,17.791757287061678
17.75046893170906,23.098443419465482,19.69152378542493,10.552752433071612,9.4702016081482,13.649330080787681,17.85866797165362
17.712099726347486,23.05801148179198,19.743349935981954,10.507249037952501,9.50553966683537,13.71321063155893,17.92753626518515
17.672409955916205,23.01712325567208,19.82098662287775,10.464474315418274,9.53631652821905,13.774229687702363,17.998009083432862
17.631566595347394,22.975894449017865,19.92500884871763,10.424676741757684,9.562361704301843,13.832114265539845,18.0697289167985
17.589759238690853,22.93443667324171,20.056146570523374,10.38806969693806,9.583520029960718,13.88663731674937,18.142327970383242
17.547207870114946,22.892854865076494,20.215211618589027,10.354831260062394,9.599654107355825,13.937625609393093,18.21542618163923
17.50416008581415,22.85125023482733,20.40303266150316,10.325106932501773,9.610644988695618,13.984954393417691,18.288637610779812
17.460885400623976,22.809719956521946,20.62040730707006,10.29901012658997,9.616392616131646,14.028537152485773,18.361578699087538
17.417675227020894,22.768348792092546,20.868060907386635,10.276619632247371,9.616818073208309,14.068318533237127,18.433869119765934
17.37484406206193,22.727197543756585,21.146601994988142,10.257978620506863,9.611868205347458,14.104271995962822,18.50512563551565
17.33272280161239,22.686296865570682,21.45647815580545,10.24309969075865,9.601520985053074,14.13639713717036,18.574957690112342
17.291644229322152,22.645649652487133,21.797941853551368,10.231974653384611,9.58578851621613,14.164712842222457,18.64297034083027
17.251929267405938,22.605236626900922,22.171029776016013,10.224581388400464,9.564715993255815,14.189249305533492,18.70877030979781
17.21388153935742,22.565017421528584,22.575550014015548,10.220882523417629,9.538377343711078,14.210044673789604,18.771967315633933
17.17778881814924,22.524925692590863,23.011069471592766,10.220819776554594,9.506869565805,14.227148356866023,18.832170057340857
17.143922762143465,22.484865707806815,23.47690263387259,10.22431165408402,9.470307837266668,14.240627001175108,18.888984424356916
17.112532526214764,22.44472255215414,23.972111002085057,10.23125679581661,9.42882186227451,14.250567230138557,18.942020345717747
17.083837021755357,22.404387211909267,24.49551709287879,10.241537967561259,9.382553006418787,14.257072831831652,18.990903685847314
17.058023003079153,22.363778185752494,25.045722380695548,10.255022334148995,9.331654006021264,14.260257986989998,19.035283383793455
17.035249592179984,22.32284468614586,25.621116511243812,10.271560337176803,9.276294827759033,14.260239810856708,19.074830109411327
17.015651771296294,22.28156081852717,26.2198792430787,10.290987672640524,9.21667422956063,14.257132765245453,19.109232617496883
16.999337575183056,22.239925875188426,26.83998632581624,10.313130866191917,9.153029907338428,14.25104645787812,19.138200407336132
16.986383599389466,22.19796809651845,27.47922541645428,10.33781272130317,9.085640486438205,14.242088143438181,19.16147363867776
16.97683574085963,22.155740468567192,28.135216537724265,10.364853650210495,9.014820090569454,14.230368068930542,19.17883173380642
16.97071408886412,22.11330830921928,28.805429385311804,10.394069088425608,8.940910690838669,14.216002571332126,19.19009327908771
16.96801450789115,22.070740647516114,29.4871996434726,10.425268373501892,8.864275444788008,14.199114057367114,19.195110151373107
16.968703051166777,22.028114455676057,30.17774986826702,10.458260401059883,8.785292926351028,14.179831542104461,19.193765132800447
16.972707499492053,21.985525625665076,30.874213421161883,10.492863633136889,8.704350937249403,14.158292164047594,19.185976992432842
16.97991419442224,21.9430927741639,31.57365743251863,10.528912164512072,8.621839657137544,14.134641291018923,19.171705718005683
16.99017376381968,21.90094981775678,32.27310272949781,10.566254526318064,8.538145713034663,14.109030242404675,19.150948939798838
17.00330903663726,21.85923734514627,32.96953921551968,10.60474995765462,8.453648447584285,14.081611148673755,19.123731601609894
17.019116246827913,21.818105465078776,33.659938242523594,10.644267949733997,8.368717635272345,14.052529562073596,19.090099484953587
17.037360911553943,21.777727437300797,34.34126787891662,10.684691815198507,8.283711063034344,14.021919293290352,19.050122876742577
17.057777601219538,21.738308964285007,35.01051487562957,10.725921812023923,8.198971229823902,13.989906745230662,19.00390449758112
17.080079700645985,21.700086554726646,35.6647087100881,10.76787377200153,8.114822606922125,13.956626710983128,18.951580848138846
17.103976098219825,21.663327102999805,36.30093981412677,10.810474612732355,8.03157292951758,13.922239647161433,18.89331500902673
17.12918458107274,21.628336270182157,36.91637090713173,10.85365970869319,7.949519382756728,13.886937893886152,18.829290279278744
17.155434045831868,21.59546436302303,37.50824810885373,10.89737412031627,7.8689550132352295,13.850939606436071,18.759713791038042
17.182458759590673,21.56509727582627,38.07391862157486,10.94157355659546,7.790171138713776,13.814478415561373,18.68482627328283
17.20999693419909,21.537636025297548,38.61085280217892,10.986220761725574,7.713457112941505,13.777796122977877,18.60490537972556
17.237801107827856,21.513478543401018,39.11666034753251,11.031278632633326,7.639100224765802,13.741140151409134,18.52025891879187
17.265652554178935,21.49301066275959,39.589096216645295,11.07670471940875,7.567385154841056,13.704762061152866,18.431217636960803
17.293366649791725,21.476599617037298,40.02606439643073,11.122451021327485,7.4985907685637985,13.668912617134062,18.338136122278428
17.320787352609546,21.464581727887513,40.42562899807182,11.16846838642243,7.4329843791810575,13.63383384928356,18.24139784235665
17.34777923107718,21.457248294141003,40.786030936585945,11.214709719045853,7.3708159435923,13.599754485773706,18.14141435118375
17.37422425327592,21.454843024673124,41.10569930362714,11.26112823162432,7.312314479189677,13.566895262397972,18.038616186508726
17.400022639707515,21.457574524330322,41.38325281920063,11.307672768484117,7.25768785684421,13.535481245300879,17.933442121094956
17.425091181610075,21.465627464654,41.617500083183,11.354283809657439,7.207124687093087,13.505749081192045,17.826334952773298
17.44935544736374,21.479157336088385,41.80745130537244,11.400891873277525,7.1607951833365275,13.477942644204724,17.717744713806947
17.47274119696479,21.498273949343073,41.952349329689035,11.447417512456125,7.118849695508922,13.452304280140343,17.60813054142507
17.495172888257606,21.523028547524508,42.051711725844434,11.493770733493266,7.081415652038924,13.429071673185302,17.4979547610764
17.51657840859809,21.553415795460847,42.10535586423671,11.53984902118608,7.0485938159990384,13.408479891141091,17.38767475900514
17.536891357611257,21.58938969088471,42.11339055011216,11.585537124223965,7.020454612386474,13.390760030811332,17.27774279214863
17.556046415876217,21.630877463137047,42.076190378653095,11.630713713737835,6.997035012992376,13.376130368864423,17.168614699561918
17.57397227111955,21.677781185980077,41.99437201239579,11.675263542220742,6.97833650599239,13.364783725059787,17.060756491974367
17.59058972779893,21.729977889991137,41.86877178985949,11.719085884563846,6.964325241250003,13.356876988386736,16.954640260779396
17.605817071320416,21.787328627481635,41.700419437165614,11.762094097231696,6.954936692203357,13.352529530350358,16.85073480001332
17.61957557846301,21.849686983981773,41.49051304521124,11.804211039297664,6.950086794070262,13.351832857252862,16.749501673689814
17.63178774079176,21.916894679271078,41.240403311011974,11.845366606535661,6.949685885897818,13.354861839319199,16.651398895647386
17.642370660310014,21.988768624241033,40.95158407403885,11.88549743639993,6.953647250998636,13.361676344046586,16.556883968753663
17.651233756504812,22.065092910911304,40.62567835854319,11.924544596576391,6.961887031762449,13.372315020970118,16.466408338897477
17.658284377742408,22.145621511506672,40.264419057528144,11.962447503329717,6.974320352339281,13.386788768219514,16.38040587472847
17.663434490891007,22.23008415959696,39.86963868733447,11.999137856496464,6.9908588844076,13.405075844583804,16.29928493316118
17.66660163401377,22.318185013195254,39.443276173781975,12.034539394676974,7.011409774080805,13.427117499981465,16.223427154898356
17.667706658354135,22.409594543781587,38.987386137459396,12.06857431215619,7.0358734039590205,13.452814013865959,16.153185421377255
17.666675253519244,22.503944620380512,38.504135509395574,12.101169859188744,7.064139577169686,13.482021321073974,16.088874680474156
17.66344456171098,22.600832031012843,37.99579021266234,12.132258745868054,7.096084526360929,13.514549043503594,16.03076025578222
17.65796799721358,22.699823602370635,37.464700014616014,12.161774616024722,7.1315717801991045,13.550160845038668,15.979053149711957
17.650212815853234,22.800455003468553,36.91328739550793,12.189649267576016,7.170456720379335,13.588576194084276,15.933914703443627
17.640153965774235,22.90222487754811,36.34404283724809,12.215815956119352,7.212590967420352,13.629473031947018,15.895462219330387
17.627772452945297,23.004590473875837,35.75952188163608,12.240216116631334,7.257824389925881,13.672492814960071,15.863766914869503
17.613063370816043,23.106970066082777,35.16234148263216,12.26280346947414,7.306005956109992,13.717247728040396,15.838846105398039
17.596048679279715,23.20875567070763,34.5551839298045,12.283543200814355,7.356983900963102,13.763327287451922,15.820658857861982
17.576782906975797,23.309331967153746,33.94081549133261,12.302408888257268,7.410604389723185,13.810302338181438,15.80911192517431
17.555348608073125,23.408093205085574,33.32210609852917,12.319381154293998,7.466708850064447,13.857726892251828,15.804073071788443
17.531850815749813,23.504461834818233,32.702024517595746,12.334449101890653,7.5251308178298615,13.905139834321396,15.805380895166152
17.506416568519516,23.597915239094466,32.08360362127206,12.347611280198004,7.5856936751959365,13.952068014248292,15.812845825252307
17.47919368378135,23.688007186892875,31.46989345755923,12.358872992490431,7.648212288034132,13.998030314997754,15.82625030261347
17.450342415024334,23.7743680178632,30.863921157267157,12.368241609365944,7.712500653293772,14.042541526542509,15.845357386323217
17.420023869687306,23.856689566582286,30.268670837086404,12.375725480803709,7.778381612882346,14.085115612668659,15.869923811056669
17.388394512710796,23.93471125356012,29.687086991506074,12.38133891732497,7.845691307637115,14.125268312056592,15.899705489312108
17.35561087752105,24.00821492044994,29.122088366007926,12.385107561509404,7.914276542975864,14.16251917060203,15.93445242585866
17.32183831942921,24.07702293505849,28.576576212714773,12.387067607841647,7.983989253935828,14.196394039682515,15.973903488824911
17.287254231338828,24.140990709833392,28.053431732094847,12.387260411147556,8.054681816052026,14.226429414864183,16.017791869682842
17.252044361194297,24.199994500146357,27.555499469744714,12.38572937839069,8.126203948547152,14.252178344983738,16.06585782717329
17.21640031677683,24.253923678289116,27.085553898211913,12.382522972505273,8.198400305192363,14.273215625806493,16.11785482853639
17.180526054367274,24.302682207360384,26.64625944644431,12.377699800754584,8.271108005296034,14.289140419611874,16.17354382377607
17.14464966304637,24.346193257103796,26.240137389208822,12.37132920929522,8.344155258497402,14.29957685701636,16.23268457058906
17.10902785141474,24.384398031031292,25.86953597743154,12.363487509650138,8.417364848968969,14.304174598720149,16.29503324467872
17.073938670531323,24.41724798364358,25.53659434111327,12.354255841929948,8.49056491875653,14.302610564201732,16.360345098770015
17.039671228732036,24.444700982969497,25.243204779643612,12.343723599764484,8.563602265272943,14.294591028942367,16.42837416511219
17.006520014118095,24.466737407040167,24.990984864710704,12.331994830628558,8.636349585988658,14.279852210624359,16.498866500863365
16.974781029599654,24.483396389816427,24.781261099740153,12.319191379373292,8.708703975601502,14.258159866219124,16.57155263567712
16.94474404766537,24.494805594195245,24.615055635811576,12.305450044835307,8.780580861298754,14.22931226771148,16.646147381883452
16.916681425987626,24.501181379841466,24.49307097503869,12.290916910623677,8.851907556905859,14.193148430623198,16.722358255798014
16.890839467850867,24.50280646482904,24.415680636953436,12.275742975177186,8.922616883796788,14.149555845929076,16.799894702786
16.867437716103833,24.50000591930356,24.382938437705725,12.260081450832098,8.992639876524104,14.098471668891023,16.87847010666105
16.8466736691728,24.493132865940193,24.394604055273767,12.244084299555082,9.061898150120436,14.03987823000358,16.957797476190784
16.828723459193707,24.482561233662597,24.450165213626462,12.227897120917852,9.130297903730636,13.973797333935066,17.03758655878458
16.81373477096036,24.4686761059861,24.54884400528551,12.211654277718267,9.197727826394349,13.900287152487097,17.117548141722192
16.801819806064792,24.45185927751924,24.689594377545156,12.195476475927752,9.26406282169797,13.81944233608442,17.19740279848086
16.79305778163203,24.432478730091,24.871102103794055,12.179471348504242,9.329172841073095,13.731395627940879,17.276885391224383
16.787506548052317,24.410886506719002,25.091791168110202,12.163734730256012,9.39293221940442,13.636323068552398,17.355741152850033
16.78521265930428,24.38741617304572,25.3498347860789,12.148349099057485,9.455224922566849,13.534455774290421,17.433719705852415
16.786211344783187,24.362372282056324,25.643168310089667,12.133378661597076,9.51594554767877,13.426093958494274,17.51057725679464
16.79052027978311,24.33601826182625,25.96950336136315,12.118864243574693,9.574999404885695,13.311615946840671,17.586087456437497
16.798137762655976,24.308575857704575,26.326345197032147,12.104822061723674,9.632303871745133,13.191478379300689,17.660049246408164
16.80904846437755,24.280238922900242,26.71101623744346,12.091247742189635,9.687789941074222,13.066207353917308,17.732283695959342
16.823228499444657,24.25118718772544,27.12068422354935,12.078122134082422,9.741402940581265,12.936384949199551,17.802626903921762
16.84064214507099,24.221587049438632,27.552388100921654,12.065414710381196,9.793104716835261,12.802637142052168,17.870930772328958
16.861233305768003,24.1915873136347,28.003058318228753,12.053084275728583,9.842880613185475,12.665624227501828,17.937070856293552
16.884920446163385,24.161326605409418,28.469537449186873,12.041078966066303,9.89074926148635,12.526032982315705,18.00094886459941
16.911598399843292,24.130951798059087,28.948609997062363,12.029336361152351,9.93676701245088,12.384574530804255,18.06248436634924
16.9411415895361,24.100628707131722,29.437040566691305,12.017782754288017,9.981022860260023,12.241989551418895,18.121604456961553
16.973402412085598,24.070534476825202,29.931608315503798,12.006331222103544,10.02362918202266,12.099052682512704,18.178241551663916
17.008207360252438,24.040841099443938,30.42913150426099,11.994880392856802,10.064714207369535,11.95656922056436,18.232338526654722
17.0453600639687,24.011703634579217,30.92648903188921,11.983316534451026,10.104416014009708,11.81536619501398,18.283851906399782
17.084654556293376,23.98325749563924,31.42064527896473,11.971520227164271,10.14287542526675,11.676280442597603,18.332747433100536
17.12588948762789,23.955621575905763,31.9086756175582,11.95937504443382,10.180227590792677,11.540143858096236,18.378991794524495
17.168872572954278,23.928901629620093,32.387785922252824,11.946772439045697,10.21659467671413,11.40776806313048,18.422549218994483
17.21341671492817,23.9031890726646,32.85532505764595,11.933610463515103,10.252082039591999,11.279931432810105,18.4633865762306
17.259338608462226,23.878556484721813,33.30879584061174,11.919790457333972,10.286777462853577,11.15736855114144,18.501479102010666
17.306466029264094,23.855058097058816,33.74586748579914,11.90521687308056,10.320750622006022,11.040760227604942,18.536808131678235
17.35464692767438,23.832739499523846,34.16438680039305,11.889800480286691,10.354051140258722,10.930723636530518,18.569354651137225
17.40374966399334,23.811654295016293,34.562382112074005,11.873460881710491,10.386706226889984,10.82780439804971,18.599098758078092
17.4536542338596,23.791886649954833,34.93805798410433,11.856125575402668,10.418719666594557,10.732471790493921,18.62602734321977
17.504243870714017,23.773575230419937,35.28978944610857,11.837726887045672,10.450073309685502,10.64511598681092,18.650141433229344
17.55540455223142,23.756926804440184,35.61612354869311,11.818199925177053,10.480730466767891,10.566045839644646,18.67145526180704
17.60702947795284,23.742211740216774,35.91578378122644,11.797483438808783,10.51063851846412,10.495486819097023,18.689990218881995
17.65901899247592,23.729744592564145,36.18767134878849,11.77552262145514,10.53972896370699,10.433579459771313,18.705772708065236
17.71127354179503,23.719858626853203,36.43086671293341,11.752271283529417,10.567916481435663,10.380379280892011,18.71883834019054
17.7636886550804,23.712883939404062,36.64463997996159,11.727691704132534,10.59509925779777,10.335859349042241,18.729234986172184
17.816161153305927,23.70913782718534,36.828469923780204,11.70175285590794,10.62116077006971,10.299916932056458,18.737018334282304
17.868603461964682,23.70892654268911,36.982055990484845,11.674430442151818,10.645972479008304,10.272386295157068,18.742243974018947
17.920953030989274,23.71254601767253,37.10531142837824,11.645710436671951,10.669397369381088,10.253056618870197,18.74496450297578
17.973169446300087,23.72027550233814,37.198343366421845,11.615591753986216,10.691294135307452,10.24168800528664,18.74523430666312
18.025223151221734,23.73237217298869,37.26142957945294,11.58408462957768,10.711520881053682,10.238018904291698,18.743115773826137
18.077083063875747,23.74907069725003,37.294996716956554,11.551209035599113,10.729936337856593,10.241765486029488,18.738678711588626
18.128707716622504,23.770579149523773,37.29960131295498,11.516998421447475,10.746397685679124,10.252617867496193,18.731993265676383
18.180039714408036,23.797066625651045,37.2759109629914,11.481506633357018,10.760756871927864,10.270237666677689,18.723126058246606
18.23099990985775,23.828652190078532,37.22468314195822,11.444811053097519,10.772858626713337,10.294260650034726,18.712146467357826
18.281481345867586,23.86540584846892,37.1467449413417,11.407008505800011,10.782541133422335,10.324305693025067,18.699136597760525
18.331348568055336,23.907357468276164,37.04298411739942,11.368207211071846,10.789637111215594,10.359984835577196,18.684193375686068
18.38044407670611,23.954499611997424,36.91436297913079,11.328521453827175,10.793973605933637,10.400907572837873,18.6674215884326
18.42859483613045,24.006779164620045,36.761951503836855,11.28807221371377,10.795371288720567,10.446680785805293,18.64892641588763
18.47561251374583,24.064086379061226,36.58695455297606,11.246989249691696,10.793644195399681,10.49691243940592,18.628811633800684
18.52129024902335,24.12625087414246,36.39071126550838,11.205408635205465,10.788600660701304,10.55122114184607,18.607180852082326
18.565404259245945,24.193046562538083,36.17467048489062,11.163466071767045,10.780046581710957,10.609243142124585,18.584135655548106
18.607723859229967,24.264199649658064,35.94035786660998,11.121290256984677,10.76779026657166,10.670630066030618,18.559770031882955
18.64802250078908,24.3393906650387,35.6893434216451,11.078999261559934,10.751646332608312,10.735040755034596,18.534166883865602
18.686081331539807,24.41825083777363,35.4232146354939,11.036700110714651,10.731437815378941,10.802133182021953,18.507402134677964
18.721688347464344,24.50036508840484,35.14355887775608,10.994489371715705,10.706997593582724,10.871558213942674,18.479554148171005
18.754641818459177,24.58528625252157,34.851951217188564,10.952452664531261,10.678169635928125,10.942954745285117,18.45070932551892
18.784758356127128,24.672547709184045,34.54994086845837,10.9106643937225,10.6448102137325,11.015946336726438,18.420959190552296
18.81187717005473,24.76166396364884,34.23903646712737,10.869191193475459,10.606789872055618,11.090139716785542,18.390394498425852
18.835855166545155,24.852125491635018,33.920693484175814,10.828099022246084,10.563996248462553,11.165125272153723,18.359104462922158
18.856557224238035,24.94340014022326,33.596304157901,10.787458367768696,10.516337251590977,11.240480676396167,18.327181526186642
18.873851371452194,25.034944638424797,33.26719224878628,10.747343070626957,10.46374594984484,11.315778399786172,18.294724061462034
18.887614822462105,25.126217282933897,32.934614825036704,10.707825172493035,10.406188369811185,11.39059438020408,18.261831781071546
18.897744973955003,25.216682308221674,32.59976436211639,10.668972296152212,10.343670789688346,11.464513981005595,18.228598111670106
18.904163543439758,25.305810793070115,32.26376282743807,10.630850523561557,10.276241845890066,11.53713644765908,18.195108220811118
18.906810956012176,25.39308902652683,31.92765003994314,10.59352872890997,10.203989917504305,11.60808564040841,18.161444538349052
18.905638409135875,25.478031733541712,31.59237681840279,10.55707914158127,10.127039908392348,11.677030420467,18.127690985128172
18.90060548777489,25.560187649977735,31.258811556878424,10.521574138188186,10.045552124743951,11.74370357762849,18.093928215704857
18.891683565412325,25.639133324665746,30.927757419757054,10.487083259479476,9.959723245735804,11.807906580585477,18.060224051016952
18.87885736010047,25.714463778044937,30.599966693954382,10.453674117953522,9.869787585261754,11.869502335567763,18.02662910280959
18.862119668017606,25.78579199786114,30.276144327442776,10.421416191314865,9.77601567710443,11.928407026755222,17.993180790730563
18.841464274053813,25.852758767838367,29.956948959246944,10.3903817531922,9.678708757602132,11.984586443781104,17.95990900539648
18.816886031836823,25.915040317608067,29.643003812038742,10.360640789684291,9.578192662469128,12.03805273709276,17.92683625239352
18.788391531483693,25.972344561499135,29.334914495443424,10.332253534890752,9.47481618870769,12.088856523476185,17.893973703402555
18.756013060730943,26.024403895043406,29.033279527831507,10.30526607791176,9.368952955430249,12.137075838459861,17.861320893189
18.71981374091792,26.070980594428832,28.7386913184167,10.279710192365963,9.261000901030847,12.182808909114842,17.828873958573748
18.679880597965667,26.11188684937792,28.451736223688766,10.255604192012585,9.151376975587583,12.226177458082393,17.796637318722425
18.636314923808843,26.146999955470484,28.172991520980826,10.232952591291443,9.040509865031858,12.267337428482262,17.764628739577063
18.589231410647123,26.176257790688194,27.9030113728935,10.211746164264394,8.928834051932677,12.306484158340716,17.73287523813136
18.53876647216407,26.199645804345693,27.642306357271416,10.191964913513335,8.816785861458518,12.343845978944872,17.701406852481774
18.485084544895113,26.217193507911965,27.39132896262323,10.17358391281255,8.70479982445987,12.379674121488105,17.670256221496555
18.428375689294217,26.228979684148964,27.150470476216263,10.15657882300619,8.593304400626462,12.414236389840875,17.639463719934696
18.36885232556894,26.235131975979805,26.920062666304368,10.14092752187049,8.482718868396383,12.447812908934472,17.60907998557856
18.306755034309898,26.235814397737677,26.700374051220578,10.126607583503823,8.373452973561202,12.480691859082446,17.57916179239797
18.242363172528663,26.231210587391757,26.491599839178512,10.11359352947107,8.265907608743072,12.51316633752503,17.549767160404162
18.175996586668546,26.221512657878268,26.29385439351475,10.101858548187028,8.16047374115986,12.545530148489062,17.520956558046976
18.108004964511704,26.206916294258992,26.107173414856376,10.091379830683248,8.057528839841064,12.578071157541975,17.492798642243
18.03875617774481,26.187615479238758,25.93152233070622,10.082141478042107,7.957431594180407,12.611068591920555,17.465372682245956
17.96863223162903,26.163793354571425,25.766801008076257,10.074132389202656,7.8605160134199235,12.644797666517455,17.4387640222811
17.89802767390608,26.135614433766516,25.612842201288622,10.067342656411128,7.767085950160868,12.679533870080558,17.413057724091683
17.827342564794392,26.10322700799408,25.46941135018639,10.061762730867814,7.677410898612388,12.715551334514442,17.388337601834927
17.75697178912739,26.06677587125714,25.33621351556869,10.057385945501423,7.591723880000161,12.753118423900403,17.364690347975493
17.6872990087127,26.026412274593223,25.212903107685293,10.054210479398746,7.510221908699413,12.792491940042177,17.34220655796951
17.618698430253385,25.9822904665214,25.099089420728042,10.052236629324169,7.433068854635845,12.833908680241429,17.320974459830524
17.551537227807387,25.934556050597703,24.994340193323435,10.051460568566496,7.360399694124752,12.877577298455998,17.30107253891226
17.486170596650666,25.883339115873362,24.89818923572837,10.051870769622695,7.292324080003475,12.923675318628568,17.282569385732575
17.422931286365948,25.828757355820315,24.810147559172744,10.053451816067437,7.228927416678244,12.972352055308095,17.265530800598174
17.36212145872174,25.770921473637795,24.729717336764057,10.056192284159037,7.170269763892375,13.02373267059506,17.250024705285366
17.30401012768661,25.709933699942418,24.65640848851822,10.060088895528171,7.11638558170572,13.077918096886952,17.236116320370616
17.248832381913,25.645881131012615,24.589749264540238,10.06514483520949,7.067288384926766,13.134980390050156,17.2238587336365
17.196786311809262,25.578832285265182,24.529284966812657,10.071366714011047,7.022979744017967,13.19495622431069,17.213290579643083
17.1480280142075,25.508840293336288,24.474572153489515,10.078763722484835,6.983455588810719,13.257841595756581,17.20444309561535
17.102668133803885,25.435947265601694,24.425174677106412,10.087347636843743,6.948705327549525,13.323590764176727,17.1973459092675
17.06077341860902,25.360183735242664,24.380658184767327,10.097130538164533,6.918707152946268,13.392119260417639,17.192023566138094
17.02237238209016,25.281564648756905,24.340580633933673,10.108120028417499,6.893424661994782,13.463306412376028,17.188488085193917
16.98745965125963,25.20008763863933,24.304483271830552,10.120314659601226,6.8728076002362695,13.53699476970453,17.18673735236649
16.955995680560008,25.115737813008238,24.271886793530356,10.133701929437356,6.8567967837193,13.612988678639802,17.18676048658801
16.92790475679535,25.028498470125708,24.242291972007102,10.148258690283413,6.845329507351145,13.691054539580541,17.188541498932654
16.903078047523785,24.9383603687952,24.21518017848745,10.163951637146884,6.838341736256646,13.770923973099464,17.192054731039704
16.881383320188956,24.84532355706335,24.19001100459479,10.18073596871043,6.835767632807593,13.852299892702327,17.197256520754298
16.862672649949594,24.74939701220546,24.166219639492727,10.198553272498282,6.837539355190738,13.934862177018006,17.20408275757441
16.846781331090593,24.650605425212127,24.14321996523302,10.217331944941085,6.8435880299298955,14.018269297564872,17.212454831442958
16.833525202809923,24.549003029089096,24.120415559207036,10.236991042777584,6.853843229173913,14.10215638476477,17.222285439132836
16.822709072547084,24.444684635699915,24.097211844549133,10.257443494640423,6.8682288025709,14.186132765423007,17.233476467748027
16.814146226254433,24.337787921997222,24.07302113248066,10.278595088512565,6.8866567635915334,14.2697817312197,17.245913038327114
16.807673366085798,24.228497008146473,24.047262469051816,10.30034126033855,6.909022013421852,14.352663127322996,17.2594636142098
16.80315042807939,24.117058063607608,24.019366061194393,10.32256622234783,6.935199488366355,14.43431729459412,17.273988192413302
16.800453727702017,24.003794351378858,23.98878786959262,10.345146334332902,6.96504430850024,14.514271441646533,17.289345919818427
16.799475273776274,23.88910122440261,23.955030065097557,10.367955401382613,6.998394127468317,14.592050898708422,17.305394935926397
16.8001281962764,23.77342394440296,23.917658699104784,10.390867395905172,7.035072041626564,14.667191469452902,17.32198804763181
16.80234824657533,23.657236967995132,23.876315076721834,10.413754597952302,7.074889112225126,14.739246376099002,17.338973213310705
16.80608622239016,23.541036931639205,23.83072523847462,10.436484609560377,7.117648304624306,14.80778812842178,17.35620133756365
16.811298386499324,23.42534459397929,23.780710894931897,10.458921522949806,7.163153993583924,14.872410683103436,17.37353312655207
16.81794543098778,23.310701415461413,23.726195974573947,10.480931549899449,7.211225842739183,14.932735316701503,17.390836927727843
16.82599964665653,23.19765622720785,23.667200568895208,10.502388268641708,7.2617077350649515,14.988418735487269,17.407981414701645
16.835448900792198,23.086752546319534,23.603822703475288,10.523173942751418,7.314466390766123,15.039158241606664,17.424834218496816
16.846291289042995,22.97852542504388,23.53621894298985,10.543177606972314,7.369384415429907,15.084690586317604,17.441270044268645
16.858527269033146,22.87350206001298,23.464596912645675,10.56229244221716,7.426353245302681,15.124787017827222,17.457179070920905
16.872158132940715,22.772195291435928,23.389219645301463,10.580414242922116,7.4852670767885385,15.15925029696939,17.47246635003338
16.887189948625007,22.67509005535717,23.31040711327019,10.597440806051384,7.54601879154109,15.18791659874217,17.487043994614663
16.903634035448146,22.582633134103407,23.228526833830315,10.613270733143608,7.608500700964294,15.21065985214177,17.500824389154555
16.921499724266376,22.49523229877981,23.143983105302624,10.627801103108787,7.672610160945555,15.227395117183294,17.513718961601388
16.940785554500557,22.413258280612336,23.057216902111502,10.640925897154851,7.738254454997331,15.238079995069588,17.525638679830692
16.96147653894883,22.337039832950335,22.968714680899282,10.652537782034678,7.805350111570606,15.242714096422066,17.536490538350762
16.98354725598262,22.266853001985353,22.879012588434318,10.662532608870626,7.873818225444078,15.241337433817217,17.546172064329433
17.00696396851069,22.20291497547946,22.788687424589874,10.670812936143399,7.943580389697009,15.234028600277345,17.554571631127367
17.03168131885508,22.145386972415476,22.69834081520188,10.677288796208732,8.014558313992994,15.220901410994088,17.561577310627285
17.05763629554263,22.09437774132519,22.608585790330704,10.681877819819665,8.08667632465187,15.202098417630548,17.567086584585873
17.084745247579782,22.049939420717667,22.5200343099448,10.684508349881288,8.159862787003185,15.177782766481664,17.571007644349336
17.112906036790992,22.01206027526925,22.433281566495264,10.685126013383057,8.234047778286337,15.148131263144744,17.57325271404624
17.1420009848983,21.980665095684408,22.348890098231553,10.683698785445205,8.309157743530154,15.113330964767949,17.573730941488364
17.171895430383163,21.955626921223093,22.26737945907659,10.680216107935564,8.38510955229463,15.073583839742364,17.57234675811478
17.20243261829304,21.93678189273453,22.189222121343416,10.674683692087969,8.461805676616974,15.029120746348573,17.569003554462462
17.23343113498398,21.923935878608404,22.114840643240374,10.667118936657584,8.539130526466268,14.980213926962021,17.563606761658082
17.264692079970345,21.91686173374668,22.04460419476234,10.657550031803437,8.616947956397986,14.927177589236939,17.556061388856964
17.296015028718838,21.915296856402524,21.978831023833834,10.646017263027186,8.69510142584582,14.870360592981003,17.546266982707415
17.327210198796173,21.918948522348302,21.91780090692305,10.632572960358894,8.773418516785455,14.810138595958318,17.534118842384682
17.35809795624885,21.927503210250833,21.861768646129914,10.617279516800798,8.851719221140492,14.746904909300321,17.519519065111567
17.388502734199744,21.940630792647383,21.810966684969493,10.600207884708606,8.92982392265847,14.681058536362041,17.502388915922282
17.418253873550345,21.957981107484894,21.765596236905974,10.581437966809059,9.007556797274589,14.612993220899167,17.482672970736598
17.447194399946003,21.97917928081512,21.725815448091254,10.561059451318496,9.084744875961851,14.543090620357747,17.460336991309937
17.475186501219326,22.003827870190367,21.691732563812863,10.53917081540833,9.161216161459166,14.471716019922237,17.435367741161773
17.502106755342805,22.03151998803171,21.66340632548685,10.515876162534912,9.236799044230809,14.399215930384438,17.407777345108254
17.527838214243193,22.0618590072988,21.64084892535933,10.491281828481418,9.311323338424915,14.325920792157328,17.37760637849544
17.552270620250056,22.09447232291559,21.6240250870697,10.465495154719973,9.384621951154044,14.25215261299564,17.344919471715148
17.575309283102847,22.129015399569482,21.612846427801802,10.43862545364262,9.456531825317942,14.178230128236988,17.30979526519894
17.596881648256016,22.165178763718714,21.607166732637335,10.410784573412256,9.526894005800827,14.104465339803323,17.27231895661181
17.616934669283882,22.20270319853348,21.606786380997487,10.382085224286314,9.595553263602767,14.031153482826987,17.232583179063408
17.635428359852053,22.241388318633543,21.61146733785482,10.352638044800516,9.66235696424826,13.958563094549719,17.190693891519192
17.65233350608413,22.281082943125902,21.620947070192997,10.322551209576943,9.727153480851706,13.886931777492993,17.146772791272905
17.667634294339184,22.32166547772351,21.634941354883278,10.291935905970803,9.789792301709312,13.816468333337314,17.100952898821173
17.68132974664162,22.363030274921613,21.653142064356018,10.260914462490552,9.850127149925186,13.747356018808691,17.05337282983989
17.69342899930291,22.405086007137268,21.675220810478034,10.229623844853476,9.908019884023343,13.67975194105924,17.00417766729281
17.70394298617758,22.447757227664898,21.700838013211907,10.198212444477592,9.963342663611527,13.613784011821036,16.953526002976496
17.71288064564753,22.490977798241026,21.72964800080382,10.166834409859996,10.015979062420742,13.549549644569158,16.90159320341171
17.720254168755986,22.534677790973067,21.76129457351301,10.135645986962144,10.065825244218793,13.487116873466142,16.84856528490514
17.726086519537223,22.578776271602656,21.79540119198198,10.104804367739245,10.11279048491366,13.426526103417444,16.79463063083783
17.73041105281555,22.623186471437496,21.831565114559663,10.074466432488354,10.156796466806155,13.367792506508303,16.73998037328454
17.73326346079105,22.667824488702784,21.86936086328768,10.044785661999041,10.197776658456783,13.310909469959457,16.684817856638
17.734675993626585,22.712608532635425,21.908348710848273,10.015908420704317,10.235677256602518,13.255850562256297,16.629365438946316
17.73468189921545,22.757448976841886,21.948080514013473,9.98797250139639,10.270458429018507,13.202569735134269,16.573859764068896
17.733325683801834,22.80224342135357,21.98810195158438,9.961108897752428,10.302093874535094,13.15100687157628,16.518542286639587
17.73066655507362,22.846886370628965,22.027956280692067,9.935443608199975,10.330569412524941,13.101102349116976,16.463658799935995
17.726771620593738,22.891283768884428,22.067192264375123,9.911096589718895,10.3558818784027,13.052811388277402,16.40946927957458
17.721709229790953,22.935356475893887,22.105371719549517,9.888179758668722,10.378038685328928,13.006109288278667,16.356254029034048
17.715550670198294,22.979030988494216,22.14207080482211,9.86679777170058,10.39706036393884,12.96099059776009,16.30430637480419
17.708375125716515,23.022227769448435,22.176875368723728,9.847052010525436,10.412987367733132,12.917468065305972,16.253919497127786
17.700268263399476,23.06485799603686,22.20937587534013,9.829044129227928,10.425885748356867,12.875571812772378,16.205380744406
17.691313877274556,23.106829959410828,22.239167505262593,9.812875520063717,10.435846228167517,12.835346923689686,16.158974855966047
17.681588001963757,23.148054434178814,22.265855304636702,9.798642234711277,10.442979361306332,12.79684881440672,16.11498518138856
17.67116273288232,23.18844369899826,22.289058091230135,9.786427778013271,10.447411896558465,12.760138352863388,16.07368632798048
17.660114380826922,23.227912705081202,22.308407896617364,9.776297823589612,10.449284165235255,12.725281044704582,16.03533508494988
17.64852526414282,23.266385496341886,22.323549570098557,9.768298909421198,10.448745762204322,12.69235089652488,16.00016958517642
17.63647742492593,23.30379686055904,22.334145939983905,9.762458798329103,10.44594989747459,12.661433003706037,15.9684167002028
17.624045956267747,23.34008314905073,22.339886873361547,9.75878617854038,10.441049463085648,12.632621919969278,15.940297357811811
17.611298769113198,23.375169839745904,22.340494844379293,9.757270391772046,10.434197408316791,12.606019439660297,15.916021941978247
17.598300675985712,23.408968594074693,22.335723066739654,9.757882833083908,10.425550889137918,12.581732197040475,15.895781066085146
17.585114157481105,23.441386059182793,22.325350144865887,9.760580791792545,10.415274081451404,12.559866711561934,15.879743845478709
17.571794972165893,23.472331685097153,22.309177109969024,9.765311606642937,10.403536050018094,12.540525274122121,15.868065852286039
17.558388244857696,23.501714448792324,22.28702739177939,9.772013495281257,10.39050799311046,12.523806381356893,15.860894681314814
17.544930710127364,23.529434516455535,22.2587449787775,9.780613666298336,10.376365296759122,12.509805622814595,15.858363720448484
17.531458892878536,23.555382445501312,22.22418841611996,9.791028322031622,10.361291976140386,12.49861218165305,15.860580204363467
17.5180157586175,23.57944835984441,22.18322638327522,9.803166789956386,10.345481418693392,12.49030263226725,15.867619802435957
17.504649218769565,23.601529360055476,22.13574289603186,9.81693706366904,10.329131776943735,12.484935088918117,15.87953113041826
17.491405768512728,23.621525884216066,22.081652291063744,9.832248608529852,10.312438418723607,12.482543627140316,15.896342347456354
17.478328928755904,23.639333993145055,22.020916212804938,9.849011532164578,10.295586408523727,12.483133051826254,15.918061503482397
17.465466644949,23.65484503710284,21.953555655277814,9.86713497107162,10.278747755323733,12.486677997802984,15.944671257451574
17.452879627854728,23.66795217580311,21.879655711291168,9.886527712690715,10.262089779286729,12.493131027744932,15.976125348368056
17.4406400092963,23.67855452804183,21.799364485243416,9.907100498262567,10.245792938631018,12.502436190122515,16.012351733494558
17.42882142645029,23.686554439998055,21.712890980452574,9.92876613754203,10.230065203127799,12.514538405789034,16.05325802543794
17.417491218215606,23.691851491641803,21.620503874734634,9.951435535886452,10.215145323954406,12.529386843764826,16.098730744943904
17.406710038659963,23.694340320641228,21.52252636763432,9.975012357769064,10.201299779869654,12.546937250793361,16.14862753583626
17.39653266209742,23.69391702666759,21.41932378470438,9.999389527937987,10.188816739969925,12.567152835799106,16.202770309189624
17.38700325371592,23.690489489306604,21.31128868512327,10.024447852940332,10.177995768334727,12.590001108040438,16.260946757658154
17.378148790662813,23.683981212685627,21.19883241326795,10.050055333510432,10.169135160411615,12.61544854776173,16.322918581369663
17.369979501301955,23.67432682957272,21.082386221229058,10.076066260986888,10.162520404858222,12.643454417114175,16.388426822611002
17.36249734166228,23.661467911586914,20.962403917373656,10.102320987443969,10.158415125947961,12.673962771416361,16.457188686467738
17.355703441898537,23.645354651266146,20.839357008506266,10.128649249606001,10.157054360314431,12.70689451744059,16.528891703641637
17.3495974051066,23.625947834383698,20.71372390217648,10.15487878776041,10.158639067755768,12.742143606080452,16.603195077578825
17.344171730991302,23.60321383350933,20.585981333047638,10.180845297111421,10.16333326409404,12.779578459963941,16.679739079502927
17.339410084190565,23.577114401905796,20.456601801976838,10.206397330014898,10.171271767757775,12.81904605554895,16.758152755587293
17.335293477827115,23.547599727323252,20.32605229910173,10.2313957639923,10.18258244524457,12.860376231815634,16.838053242790707
17.331808611658776,23.514613086470916,20.19478785913969,10.255713303837538,10.197409327625907,12.903387484337191,16.919041932984378
17.32894982632048,23.478106247735877,20.06324073999585,10.27923780271209,10.21591988678614,12.947899163665678,17.000706424530243
17.32671390946554,23.43805158698906,19.931813270225028,10.301877274514018,10.238296781408174,12.993749225481345,17.0826293594654
17.32509470873287,23.39444032108551,19.800881414217102,10.323561305630685,10.264724630061485,13.04080670102105,17.16439638234829
17.32408458962912,23.347275382554926,19.67080567757491,10.344236911398744,10.295378500785732,13.088974325128962,17.245596622066323
17.32368172441931,23.29657533292331,19.541937249232923,10.363862624827334,10.33041441514983,13.138187922700904,17.325819243882922
17.32389415069556,23.2423901743256,19.41461391424736,10.382405435018656,10.369959784234503,13.188414343685027,17.404655537571678
17.32473515392845,23.18481179761771,19.289156353747643,10.399840640544578,10.414103714387846,13.239644292081948,17.48170902056616
17.32621530112205,23.123968989814905,19.165880529704786,10.416151099423747,10.462889718257307,13.291880414428688,17.556604866221
17.32833987276293,23.060018278794793,19.045124448164792,10.431323828250223,10.516313543295118,13.34512348077427,17.62899089072153
17.33111223999255,22.99314518011181,18.927266910916465,10.445345714780204,10.574325536050015,13.399359290735052,17.69853352104135
17.334535131302857,22.923573329402373,18.81272335563997,10.45820264648491,10.636833060198684,13.454549537736524,17.76491785674068
17.33860541762429,22.851566164763614,18.701928968007625,10.469884557642327,10.703699986006734,13.510630021265598,17.827854720711137
17.34330749851758,22.777415949240083,18.59532560819128,10.480392098667467,10.774744662680543,13.567516407269078,17.88708718188719
17.348612853502967,22.701433038925007,18.493354627196382,10.489737865990685,10.84973836927332,13.625112956436544,17.94238892860268
17.354488166056672,22.62394566320299,18.396447423709375,10.497941534189474,10.928404514616338,13.683321367248864,17.993557759958165
17.36090610662375,22.54530486996811,18.305010391420552,10.505024288112626,11.010418796669901,13.742050506457346,18.04041426409166
17.367849828713542,22.46588936017014,18.219410845172234,10.511006842983353,11.095411695785222,13.801223705563055,18.082810287384245
17.375309264703542,22.38611293907723,18.13997376736141,10.515910428673646,11.182975057307292,13.86077824175673,18.120639530678666
17.383275526432357,22.306430120769136,18.066989364974496,10.519757196991202,11.272672357143165,13.920657896328777,18.15383841808841
17.391739272657812,22.227331938096896,18.000718234485518,10.52256879638214,11.364048588077155,13.980803648090056,18.182376670753932
17.400691260803793,22.149342298786852,17.94138597134674,10.524365913598759,11.456635637097497,14.041148297093981,18.206249362567057
17.41011912233385,22.073030084288845,17.88917537748267,10.525171591043414,11.549953379196166,14.101620630075685,18.22547828933776
17.419999494809325,21.999037857544202,17.84422676310864,10.525016614745107,11.64350999689679,14.162156627150793,18.240116013751216
17.430292339963703,21.92813891703271,17.80664488321276,10.523941883780035,11.736804538934422,14.222705649787924,18.250242649559464
17.44094515324546,21.86133304325113,17.776502123901807,10.52199555464636,11.82933251038318,14.283224965402152,18.255956613423677
17.45190531971069,21.799937675207982,17.75383345517824,10.519227994273534,11.920593050120921,14.343670395676149,18.257369126804104
17.463129286939985,21.745627677255936,17.738631828079882,10.515689227640777,12.01009499204141,14.403995342844066,18.254608628396774
17.474581928753583,21.700452116340518,17.730853261482572,10.511431713985258,12.097360429319258,14.464159246033548,18.2478297886761
17.486232103470453,21.666862851491533,17.730427073739968,10.506516333625466,12.181926996794246,14.524133559712842,18.23721566289619
17.49805330405003,21.647712017933607,17.737258785968606,10.501015325893283,12.263351101290782,14.583896793249265,18.22296956819451
17.510029123752346,21.646175541740075,17.75122201034909,10.49500969321231,12.341212680107088,14.643424226248221,18.205306137518505
17.52215536874892,21.66563813732534,17.772147081337696,10.488585912946364,12.415118679452819,14.702683349926188,18.184452129855565
17.53443424012204,21.709594297194705,17.79981513460473,10.481836870925877,12.484702438485614,14.761637592478019,18.160654489128262
17.54686525524898,21.781586966202013,17.83396045171458,10.47486553512936,12.549620410482188,14.820249299762876,18.134183720187277
17.5594413898899,21.885189478693466,17.874277265304446,10.467786452355943,12.609548929120601,14.878474614327907,18.105328203687066
17.572153211662737,22.024014513340816,17.92042445003005,10.460722852043197,12.664181337127946,14.936254687700348,18.074387008695254
17.584993778521568,22.201710592453637,17.97202534061834,10.453801420796133,12.7132257323613,14.99351071110024,18.041669029455722
17.597955950221046,22.421935523674282,18.02866633566748,10.44714918591309,12.7564048837243,15.050143396421705,18.007496462964166
17.611024234758418,22.688337552467637,18.089899734098797,10.440895147306888,12.79345805537569,15.106032878075744,17.972203752995515
17.62417099443736,23.0045591959821,18.155250163568407,10.435173310183025,12.824142188051077,15.161036417949544,17.936127954426965
17.63736130014904,23.374234009022157,18.224218323445978,10.430121515781842,12.848231312859498,15.214985880932261,17.899596043406007
17.650559080280956,23.800939821215902,18.29628048469418,10.42587617693915,12.865515747966741,15.267690519281466,17.8629182178384
17.663725556292444,24.288122570241192,18.37089135113869,10.422568904900986,12.875802618233458,15.318947592127003,17.82639054316922
17.67681128220992,24.839041312299447,18.447497642490575,10.420329340496998,12.878917170032409,15.368555014386647,17.790299900574603
17.68975124348573,25.456744375889834,18.525557640408802,10.41929055620509,12.874703622064587,15.416318810887239,17.75492273695964
17.702469463510948,26.14404271359239,18.604553346604316,10.419589410072433,12.863025884766481,15.462057550957011,17.72051986158392
17.71488899999942,26.903465563302632,18.683990838982773,10.42136113856132,12.843769097167733,15.5056110010037,17.68733583022901
17.72693750182618,27.737237535523516,18.76339937601467,10.424735430901283,12.816841520080597,15.54685367114296,17.655603849604226
17.7385444397029,28.647357142594917,18.84233855778028,10.429837707149902,12.782176264489975,15.58570910086525,17.625547925933514
17.74963484247948,29.63580549760667,18.9204077216993,10.436790421676807,12.739734459869842,15.622160514398555,17.59737731167416
17.76012734162348,30.704813597671457,18.99724654460108,10.44570894682175,12.68951276493899,15.656251489651552,17.5712781573199
17.76993916114116,31.857084555826628,19.072526670640933,10.45669351583174,12.631554523216524,15.688074473734535,17.54740968112375
17.778991141688238,33.0958691661915,19.145944132558714,10.469822708342411,12.565957823473745,15.71775399830396,17.525905875441886
17.787206070417177,34.424867752140514,19.21722052970386,10.485153203579328,12.492875415938132,15.745431382937262,17.50687698379517
17.794504287306946,35.84809062529248,19.286110368060783,10.502726161264377,12.412509681920431,15.771251583089336,17.49040577658389
17.800804328425983,37.36980794566319,19.35240460995277,10.522574578082525,12.325109148294974,15.795352152745076,17.4765407578606
17.806029027399024,38.99454580350186,19.41592684172565,10.544725358063785,12.230969516742803,15.817859414313896,17.465292844495824
17.810110681689228,40.72704263910234,19.476529956619135,10.56919608846175,12.130436403235512,15.838895729949245,17.45663890316583
17.812989942259218,42.57216610058027,19.53409911335284,10.595992027474576,12.023904079459543,15.858589745409382,17.450528284975174
17.814610002025507,44.53478310210936,19.588554320026024,10.625107796963812,11.911808606985467,15.877078171068735,17.446886170174057
17.814914226845573,46.6195558379012,19.6398450538616,10.656531811219768,11.794619436147254,15.894501287726952,17.445613330494915
17.813853137823266,48.830738641603226,19.68793926361361,10.69024731493779,11.672833233668367,15.911001388659109,17.44658868642549
17.811395103602113,51.17211484309896,19.732813654923707,10.726227933513778,11.546969998061664,15.926724179366742,17.44968048735655
17.807529834161414,53.64706833491151,19.77445087645844,10.764432490113442,11.417569577773365,15.94182039046532,17.45476217592657
17.802262802480236,56.25861886991298,19.812843738143417,10.804804748175075,11.285186507885062,15.956455778651348,17.46172109392589
17.795609114374706,59.009353526227095,19.84799845148639,10.84727787185426,11.150382311871299,15.97083832283415,17.47045468106614
17.787593660032456,61.90138496379456,19.879930098808234,10.891778202525506,11.013716791093184,15.985257277664939,17.480862347892863
17.778253670951603,64.93645928565464,19.90865508365243,10.938224764008796,10.87574133156481,16.000117827674917,17.492844793386606
17.767636141674682,68.1161742142292,19.934192081805943,10.986526519607665,10.736997482901367,16.015952563370153,17.506311847126074
17.755790284069793,71.44213010272188,19.956573564754493,11.036581918063021,10.598021206111252,16.033402571118728,17.521188456375608
17.742762421975293,74.91590871175549,19.975854765155663,11.088281954229517,10.4593477282452,16.053180956078542,17.537411592781307
17.728599738440646,78.53897160261818,19.992109811375247,11.141512670740386,10.321511909200172,16.076036109962313,17.554923041689037
17.713359417220975,82.31258403788812,20.005421500302724,11.196153513550469,10.18504464522127,16.10272199167557,17.573667213624752
17.697111722182676,86.23776530200267,20.01587660943318,11.252073969651935,10.050468248657902,16.133974084417666,17.593594580443437
17.67993318547624,90.31523045239982,20.02356878527969,11.309134428474554,9.9182922789541,16.17048688595333,17.614662054576993
17.66189914635168,94.54528774143984,20.028600920879803,11.367193737498713,9.789010348413768,16.212891580035784,17.63682504144137
17.64308401393826,98.92769581092848,20.031080294140125,11.426118165791063,9.663098316152102,16.261736463887445,17.660026497990927
17.62356593165114,103.46157058553707,20.03110936848564,11.485784042851533,9.541014049486789,16.317476674078197,17.684191746815806
17.60342709245052,108.14539986100709,20.0287818849984,11.546073558329452,9.423197653315414,16.38048326795228,17.709231080253346
17.582746973315466,112.97707942996381,20.02419052342973,11.606870603893153,9.310069232043828,16.45106976558452,17.735043416052612
17.561594245173325,117.95390491201508,20.01743966816442,11.66806200551959,9.202022377895247,16.52951301491194,17.761514536257433
17.540025336744055,123.0725888850519,20.00865004799683,11.729541373957488,9.099415516032726,16.616054182426,17.788511904664528
17.518090224848905,128.3293482903308,19.99795352643691,11.791208793355974,9.002564654032906,16.710897470374366,17.81588263171599
17.495836849282256,133.7200285776443,19.985489947241046,11.852964951225994,8.911738926120792,16.81422259050912,17.84345718654648
17.473308777251106,139.2402220969391,19.97141260235421,11.914704631930684,8.827159616943943,16.926196204564523,17.871054644826312
17.450542412438903,144.8853093735018,19.955893849358873,11.97631482731837,8.74900492292754,17.046964179655106,17.898483566980246
17.42757228027646,150.65038169288147,19.939121248067117,12.037678016304403,8.677420156160627,17.176631180618585,17.92553863883324
17.404441996226563,156.53010386399248,19.921286412584053,12.098675147368196,8.612530063959513,17.31524481382935,17.952000571682913
17.381210051970655,162.51860002038558,19.90257582310831,12.159183460003922,8.554454828610522,17.46279032253071,17.97764505037826
17.357945159078685,168.60940274601433,19.883169897527,12.219071497723256,8.503329856577478,17.61918877336355,18.002255399951537
17.33471666024845,174.7954455083879,19.86324760112832,12.278197078567432,8.45931758073947,17.784291426091833,18.025628450364348
17.31158961158137,181.06903801631358,19.842987230743535,12.336410170698931,8.42260328505611,17.957872792632603,18.047571762360572
17.288629045204004,187.42181444294783,19.822559996332732,12.393557028019258,8.393383069654268,18.13964287051609,18.06790088932987
17.265906770682623,193.84474311383843,19.802126503508017,12.449480960359539,8.371853442409305,18.329313583682413,18.086445109260552
17.243500234582598,200.3282585828675,19.781848798866076,12.504019272306499,8.358203086987697,18.52671488607659,18.103059010545476
17.221483827598906,206.86241812753602,19.761913398362367,12.556999717699068,8.352604519532576,18.73188947149866,18.117628338863504
17.19992379490736,213.43696910902545,19.74255727553599,12.608239890910133,8.355206350480083,18.94511609430144,18.13006398975056
17.178884304606402,220.04134653109043,19.724129423390664,12.657549452596918,8.366129170804612,19.166888815885404,18.140290880533815
17.15843885604623,226.6646300444735,19.70723269362192,12.704731940464468,8.385465707173086,19.397888269230517,18.14824271419149
17.138674321205478,233.29545543282237,19.69291715815604,12.749584466798419,8.413280958928441,19.638943028007823,18.153864888737093
17.119683874772882,239.9219695091612,19.68284067584329,12.791897610073873,8.449607737442472,19.890980952573454,18.15711736049702
17.10155746973355,246.53192937960614,19.679371824517396,12.831460222379727,8.494438426772996,20.1549991948436,18.157971315416987
17.084377518828617,253.11285997220816,19.685696887477015,12.868070745949357,8.54771885600934,20.432071221137008,18.156403545516202
17.068217688189744,259.65210078758804,19.705951495706515,12.901548494044642,8.609351225785288,20.72336184462552,18.152395953415045
17.053139521426004,266.13672757242193,19.74529037864323,12.931736971677408,8.679207122588181,21.030108566365872,18.14594114205284
17.039187364592944,272.55349918141934,19.809865383292664,12.958500217375875,8.757142201081432,21.353566274572284,18.137046904337833
17.026388103040667,278.88901466399057,19.90683493697658,12.981719186335754,8.84300358815249,21.694952188590573,18.12573403457044
17.01476026016205,285.1300922620414,20.044450833441342,13.001291876117149,8.936629599305009,22.055439609426255,18.11203142340095
17.00432678868255,291.2641029862856,20.232084323938636,13.017134868418838,9.037846986744192,22.436209588264283,18.09597632465865
16.99512075695811,297.27903118766915,20.480150278041826,13.029182330471,9.146468943875325,22.838501608933388,18.07762072309279
16.987181196150996,303.16334585515125,20.800017682990468,13.037381730065357,9.262292426896966,23.263623026109336,18.057035781477392
16.980545585827628,308.9058556186362,21.20385497533507,13.041689779295982,9.385093094013808,23.712975543110343,18.034308256542957
16.975246362904247,314.4956065057738,21.704315218674484,13.042073911252773,9.514618826191777,24.188147702759018,18.009533654985454
16.97131375716631,319.9218729522626,22.314146130488105,13.038519590834847,9.650583327124396,24.691001747453946,17.98281550234998
16.968779948420817,325.1743234092152,23.045894761600888,13.031035876804575,9.792660896704248,25.22366958334164,17.95427203716113
16.967677455326296,330.24329729912796,23.911790544532114,13.01965334264324,9.940482986929728,25.788479501125458,17.924041243808443
16.96803121953829,335.1199674891861,24.92372062448331,13.004416995816383,10.093637552260448,26.38787947271444,17.892276562579678
16.969851514212248,339.7962797613788,26.093134105180187,12.98537928920731,10.251674543878234,27.024373926520493,17.859136941936093
16.973135111681195,344.26478280055596,27.43087038654198,12.962595221659868,10.414118812169102,27.700464474573852,17.82478056225792
16.977872912704594,348.5184867927242,28.947030502034078,12.936119365303432,10.580487106536832,28.418613335911882,17.7893650473651
16.984054054530812,352.5508040717746,30.65090125986008,12.906003708303244,10.750310302875894,29.181244380899354,17.753048224080974
16.991661523939616,356.3555732526791,32.55090456460934,12.872295393924361,10.923162202302626,29.99075566931748,17.715984436887315
17.00066566106038,359.9271453594527,34.654660794512246,12.835036452491368,11.098682040603281,30.84951625575043,17.67831973613394
17.01102541202364,363.2604973390848,36.969178993804015,12.794268825357744,11.276577729165776,31.75983710777205,17.64019354559109
17.02269792523433,366.3513212027943,39.50097108944206,12.750042399369244,11.456615142410074,32.72391106017903,17.601748430447604
17.035645176226495,369.196047685831,42.2559489298324,12.702419660212922,11.638604547114145,33.74373236937211,17.56313884530241
17.049830058440804,371.79181585951034,45.239240656367926,12.651475323249906,11.822386796656366,34.82101442866772,17.524529127383417
17.065209226694158,374.13644136853907,48.45511000415312,12.597295241873997,12.007817524542286,35.957125934149964,17.486082732043815
17.08173290167604,376.2284187278491,51.906948777963,12.539978927871076,12.19475079203398,37.15308197306089,17.447953442671743
17.09935104313678,378.066925045006,55.59722803062406,12.479645362352409,12.383028142126543,38.409603667580555,17.41028606865238
17.118017572251603,379.6517645120547,59.52739955459316,12.41643676058144,12.572478237853153,39.7271957079103,17.37322325205548
17.13768710305306,380.98325345900696,63.6977986004695,12.350515832424277,12.762926112125493,41.10619015054875,17.336908469975256
17.158306568320658,382.0621124835223,68.10761183328536,12.28205856905274,12.954204825812152,42.54675227819215,17.301480863001903
17.179809607941312,382.8894376345527,72.75495002513625,12.211249037899195,13.146160757367053,44.04885552314762,17.267067139602634
17.202118472814988,383.4667532909008,77.6369403461061,12.138279820020887,13.338651967289893,45.61224015558181,17.233778556613185
17.225148659091857,383.7960812877497,82.74972546964152,12.063354185430239,13.531550407230057,47.236378504435216,17.201714002595253
17.248808253854214,383.880035555881,88.08842968798955,11.986684214564734,13.724753711704619,48.92045493711767,17.170961653071604
17.27299136522843,383.7220236676561,93.64725348944548,11.908485222147487,13.91819536808281,50.6633718155466,17.141594159580066
17.2975732251503,383.32647902886777,99.41970997109395,11.828970771695623,14.111840484783256,52.46379201246696,17.11366204601603
17.322413809421846,382.69892461476826,105.39882633660015,11.748350556633193,14.305668902957443,54.32020819722602,17.08719336184491
17.34736687664914,381.8458583912852,111.57717115347563,11.666829978290755,14.499655443401817,56.23102940013547,17.06220090586512
17.37228488795404,380.7746412270684,117.94679685594228,11.584608541432567,14.693758194951423,58.19467508135667,17.03868888060358
17.397016153787863,379.4934759973337,124.49928270800214,11.501875959123723,14.887928077819351,60.209640609412055,17.016651255889705
17.421400167436094,378.0114220496079,131.22586836782688,11.418808627459939,15.082139392984978,62.27448565113801,16.996064760794525
17.445270628014573,376.33837075890125,138.11749420343577,11.335570533431792,15.276416211198741,64.38774574209123,16.976886299831246
17.468468892759528,374.4849363291919,145.16466537260717,11.252318582564623,15.470833584728371,66.54783398068878,16.959058921039652
17.490857710063718,372.4622941234767,152.35722161895433,11.169206700933174,15.665500974001962,68.75299656359076,16.942519257805138
17.51232341224878,370.28205093696016,159.684128215852,11.086384799260529,15.860551447377901,71.00132857866986,16.927197927417645
17.53276808990454,367.95616014634635,167.13340163690128,11.003995320310414,16.05615497144867,73.2908245523327,16.913014454724117
17.552103058499267,365.49683524729926,174.69226425041873,10.92217193853835,16.25254876750842,75.61946337214945,16.89987609064486
17.570249582222836,362.916419485616,182.34744196105538,10.841041531622178,16.45005700278429,77.98533156640785,16.887684854509416
17.587141169157377,360.2272045218726,190.0853510022562,10.76072635153257,16.64908561031859,80.38671860399714,16.876345078745665
17.602720466033915,357.4412754988798,197.892102318047,10.681343205559722,16.85010180382719,82.82210720045374,16.865762701785172
17.616933149333914,354.57044763918304,205.75353520514682,10.603001024511153,17.053611668684027,85.29008633643078,16.855839736832195
17.629725160267565,351.6262326574609,213.65543290271603,10.525801763347028,17.260142339821616,87.78926765986945,16.846474521165025
17.64104366905109,348.6197726275036,221.58381708555714,10.449847660974973,17.47022995488926,90.3182700484557,16.837570339796457
17.65083700706049,345.56180165553604,229.52514515276832,10.375250844850106,17.684410065154097,92.8758537446158,16.829043010574207
17.659050512410897,342.46275033035215,237.46635976208947,10.302137620294433,17.90320478569821,95.46118886395314,16.8208194891069
17.665620476777473,339.33299203748777,245.39482816530995,10.230645886065721,18.127103987158968,98.0740583926381,16.812832139021374
17.670472756949092,336.1830256233183,253.29821609124915,10.160921839210387,18.356542788509692,100.71486841886393,16.805019309562002
17.673529971031368,333.02344375089115,261.16433563858266,10.09312169085136,18.591879995687588,103.384558332078,16.79733469911778
17.674720976550187,329.8648269429018,268.98097228305494,10.02741606644621,18.833382775043606,106.08450735913567,16.78975598892543
17.6739832400309,326.71771973684713,276.7357121251884,9.96398958920164,19.08122273277025,108.8164252812056,16.782283631436304
17.671258410686754,323.59261388569394,284.4158577409457,9.903034755293008,19.335487151018103,111.58220522044049,16.774931871897614
17.66648905986179,320.49983352387085,292.0084760488877,9.844749768553408,19.596204097586472,114.38375472491975,16.76772061599983
17.659621576674006,317.44935795724564,299.50051673290756,9.789348018161188,19.863372506502575,117.22284983113268,16.760673270430452
17.650611869130046,314.45065432787584,306.878928968721,9.737071848599255,20.136984023111065,120.1010506146218,16.75381746120861
17.639426342352504,311.5125340676765,314.1307433923184,9.688196273846637,20.41702582712822,123.01965491556429,16.747181991152523
17.626036154923106,308.64301839873946,321.2431027569966,9.643020577630354,20.703464093652524,125.97965028760112,16.740789156926695
17.610410287522406,305.8492097987044,328.20322664340284,9.601860557724287,20.996231056113565,128.98166942694823,16.734649379540787
17.592513457744378,303.1371760553538,334.9983152214612,9.565056692508897,21.295263320967805,132.02595594513758,16.728764869807286
17.572309794753917,300.5118513115926,341.615468011218,9.533003901436574,21.60060457759414,135.11233174422205,16.723138714013086
17.549767497617616,297.9769630903797,348.0417620013752,9.506188559323972,21.912502159878454,138.24015076865197,16.717778066548103
17.524859609509317,295.53502031021003,354.26453033546153,9.485205457836196,22.231432447513598,141.4082335262191,16.712687328372933
17.497562959658584,293.18740105157116,360.27164388671116,9.470743868596342,22.558078552953933,144.6148507868965,16.707860182327785
17.467861988813155,290.9345342521409,366.0515939787946,9.463557164626877,22.893300199055293,147.85781968795104,16.703282084596367
17.43575824374013,288.776142324775,371.59345628725845,9.464431373139156,23.23809157057409,151.1346313911265,16.6989430120216
17.401277271014433,286.71150031533966,376.88695795382154,9.474155783272797,23.593520438782445,154.44249679296274,16.69484710962862
17.364467147739493,284.7396366496034,381.92268515859377,9.493495581406096,23.960665554394364,157.7783118256179,16.691010415064223
17.325394113903602,282.8594091999602,386.69224545041055,9.523170275525962,24.34056695380158,161.1385970826763,16.687453752851955
17.284144829278123,281.06946554331216,391.1882617853628,9.563842793437171,24.73418660645259,164.5194403394414,16.684202500654838
17.240835999878882,279.36817718939074,395.4043111897556,9.616117242267368,25.142378788194574,167.9164569243594,16.68129358460506
17.195621009587043,277.7536343180552,399.33497538201647,9.68053541487773,25.565879825002405,171.32477772666192,16.67877875847482
17.148685415495102,276.22370546846696,402.9759868749958,9.75756980143228,26.005317028016584,174.7390493569105,16.67671786985844
17.10023799615177,274.7761077337716,406.3243098247299,9.847636251681545,26.461232936920435,178.15343999276968,16.675169885042788
17.050512508895146,273.40845387053247,409.37811604615763,9.951161586993516,26.934137641455028,181.56170604221228,16.674193207388257
16.99978352950901,272.1183298073911,412.1367908784328,10.06869735301524,27.424581441002047,184.9573450521746,16.67385465341923
16.94838017589129,270.90343798143397,414.60100768958574,10.201038398252612,27.933202098322422,188.3337419743318,16.674234355918273
16.896682082465258,269.7616799112562,416.77277664668674,10.349382570613699,28.460729251683933,191.68424838700014,16.675419656943028
16.845101432259963,268.69108586204123,418.65548420258494,10.515574275417865,29.007966898862907,195.00227318986816,16.677495663379986
16.79406606261484,267.6897383617966,420.25396208946023,10.702305798366504,29.575755868000233,198.2814190301624,16.680542721475383
16.744013595109212,266.755838072815,421.5744443785729,10.913138948895481,30.16491255665266,201.51555312053884,16.684640260465873
16.695393688746684,265.88781766106104,422.6243350658141,11.152397346597763,30.776167658494995,204.69875829269083,16.689867234335445
16.648668726057313,265.08434541161273,423.411967167838,11.42504497234475,31.410127146735963,207.82528295562435,16.696294497849788
16.604313848188514,264.34422501646674,423.94649543101264,11.736637156131206,32.067251407433545,210.88960080292654,16.703976969469064
16.562823593133984,263.66626805752804,424.2378296105262,12.093365255860615,32.74783696325253,213.88654320240502,16.712955655986406
16.524717665436675,263.0491531400059,424.29651870524447,12.502079181825284,33.451993079456734,216.81141218715155,16.723267835499374
16.490534199737926,262.4912901026594,424.1336302561579,12.970204136436863,34.17961751026122,219.66004607915042,16.734952887775776
16.460815600152895,261.9907749225834,423.760633284899,13.505638366871626,34.93037870177609,222.4288510089711,16.7480468834787
16.43609747732834,261.5455136141886,423.1892235667397,14.116701563134834,35.703705463061134,225.11477926521889,16.762573242396083
16.416901917093153,261.15344793339995,422.43109886903693,14.812116079219047,36.4987823821737,227.71523473991698,16.778540109158506
16.40373831742105,260.8126811588466,421.4977950600896,15.601020722048904,37.31455436571771,230.22795357119426,16.795944897413577
16.397127965245136,260.5214216648338,420.40068037723967,16.492999892586198,38.149745877060155,232.6509432456713,16.814776898050347
16.39765304534467,260.27787335223263,419.151052700555,17.49805847718268,39.002894273324365,234.9825295069267,16.83501244962641
16.405997124094203,260.0801694615988,417.76019824838426,18.626504543224634,39.872384017664814,237.22148029767683,16.856607524949016
16.422971566370002,259.92630927364263,416.23939287401663,19.88880931288418,40.756464299237734,239.36708669339836,16.879495539923532
16.44957243686115,259.8140787554869,414.59990945052425,21.295539008738803,41.653254095037,241.41912005143357,16.903591926596754
16.487065043514164,259.74100978424093,412.85299532478456,22.8573125854542,42.560755517018265,243.37777103365184,16.92879956449867
16.537020386395213,259.70439292559183,411.00977531061164,24.584693800069026,43.476876189611595,245.24372043067936,16.955009418177042
16.60127879665259,259.7012824796967,409.0811504920581,26.488075360795907,44.39944348970913,247.01827474280893,16.982097945600675
16.681920195582432,259.72846653279163,407.07773683382595,28.57761512732031,45.32621315240386,248.7033749887985,17.009927758939043
16.781299733450247,259.7824787025488,405.00977437501956,30.863152932202205,46.254899418855544,250.30143419964423,17.03835406091287
16.902088739214754,259.8597162403506,402.88695495372156,33.35411595917059,47.183233053301336,251.81510462913295,17.06723014293306
17.047239869399423,259.9566080206011,400.71823594006304,36.05949905249954,48.10900784009193,253.2470846278898,17.096404718439775
17.219889754598462,260.0697319266013,398.51177672510966,38.98786582593869,49.03008777079313,254.60003287227792,17.125714548516726
17.42325656235039,260.19584074450466,396.2750542386165,42.14732955310529,49.94439733691753,255.87658202878995,17.15498244752389
17.660554087879014,260.33184020438125,394.0150318458264,45.54557171264375,50.84991637707009,257.07937793799186,17.184025151716288
17.93491571317613,260.4747825955633,391.73820771775723,49.18980993084091,51.744673219929666,258.21108268273673,17.212664642508905
18.249318783679115,260.6218576017128,389.45052931538993,53.0866044857803,52.6267351143669,259.27432518699413,17.240732883283307
18.606506374341247,260.7703347157301,387.1572706452426,57.241622480414044,53.49420858134513,260.27162192218486,17.268068386018854
19.008912643630758,260.9174899535328,384.8629404918593,61.65952668951356,54.34525697498698,261.2053444282101,17.29451375240243
19.45860092408337,261.0605711356169,382.5712822668253,66.34397033546345,55.17812787480673,262.0778253413081,17.319922312973983
19.957227958108874,261.19679474883435,380.28538707124966,71.29752607735303,55.991170679803,262.89164114941383,17.34416868177492
20.506057524531435,261.3233455215874,378.00783272509307,76.52144411276157,56.78283138392887,263.6499857846812,17.367151064773203
21.106037875616213,261.43737500666515,375.7407549060533,82.01535098910556,57.55163205336419,264.35689573671937,17.388783528767892
21.757919552089042,261.53598913426634,373.4858285712285,87.77709061325139,58.29614685365059,265.01716817925256,17.40898886663456
22.462370728190944,261.6162106734898,371.2441934541464,93.80276697241129,59.01497788709887,265.6360907669173,17.42770100512419
23.22006478517378,261.67494311832917,369.0164240567568,100.08687191958737,59.70673285496657,266.21917658708924,17.444873523233824
24.031723389803805,261.70897903993796,366.80260570561353,106.62240529301489,60.370007263991134,266.77200306207453,17.46048351035891
24.898118832467762,261.71504919082537,364.6024266168198,113.40100502216947,61.00337238862063,267.30019676158895,17.474526385169728
25.82007027666012,261.68986523598795,362.4151957353465,120.41309175571577,61.60537516691904,267.8094985622822,17.48700828533273
26.798432533846086,261.6301381640268,360.2398238152134,127.64796841914388,62.17455932339473,268.30574165653707,17.497944992520036
27.834043087122925,261.5326040339786,358.07481173948776,135.09384172581105,62.709502038319336,268.79467567317965,17.507367146633168
28.927648524356393,261.39407271348233,355.9182360065121,142.73786631088865,63.20884483003917,269.28175920470284,17.515322360738573
30.079858827113807,261.211499731005,353.7677691279884,150.5663068987951,63.671307806858195,269.7720959128083,17.521869064850016
31.291117173091806,260.9821616310955,351.620827490344,158.5647028638738,64.09569618110847,270.2705636876771,17.527068029226363
32.56164408554933,260.7040030793775,349.47482094451624,166.71793915161064,64.48090656704805,270.7820209400164,17.53098053418641
33.8913558972009,260.37598985480395,347.32731319200985,175.0103207592557,64.82593526920357,271.3114469784324,17.53367375364198
35.27978229733881,259.99823751383326,345.17598705008936,183.42565473480062,65.12991088305476,271.8639398854367,17.535224746212695
36.726008172133255,259.57194164300444,343.0185626164598,191.9472121378848,65.39217597695844,272.4445782860844,17.53571726971037
38.22868255512407,259.0992610067596,340.85290874613145,200.55759629463145,65.61238795048533,273.05823076607794,17.535235358331462
39.78611245087276,258.5831866459599,338.67736417721886,209.23868282200988,65.79057535248663,273.70938407581906,17.533861002723786
41.39637252345019,258.02737540802957,336.49098148628224,217.97167810837493,65.92712749071572,274.402036529588,17.53167779069686
43.05736216739424,257.4359860938739,334.2934882641161,226.73717167665896,66.02274145376036,275.1396896365517,17.528773927679833
44.76684524546929,256.8135531454628,332.08512198839554,235.51509075649943,66.07835665305383,275.9253609942764,17.52523792130411
46.52251928995094,256.16485787680523,329.8665922838368,244.28465735574963,66.09509957542694,276.7615011260977,17.521150113880413
48.322084621233174,255.49475774907336,327.63918190039004,253.0245738463581,66.07424914467092,277.6498570747889,17.516579376962053
50.163288794084714,254.80799680789363,325.40479338754443,261.71348577271436,66.01721838437687,278.59145213596344,17.511588148209942
52.043957694507775,254.10902982998022,323.1658533429611,270.33041520373155,65.92554885584337,279.58674251436577,17.50623823442509
53.961995394834155,253.40187559880823,320.9252019002523,278.8548898018658,65.80091543813967,280.63580091265254,17.50058874237715
55.91532587553109,252.69002940880014,318.6860527819047,287.26688312323876,65.64512640849343,281.73834484587525,17.49468694763492
57.90181533666103,251.97644866035813,316.45193774049125,295.5468069365268,65.46010622078406,282.8935968331092,17.48855993848014
59.919287120542734,251.26356121252596,314.226592599826,303.6756000724179,65.24786848283713,284.100089788968,17.482213967368917
61.96569081257589,250.55325745800042,312.01385793250387,311.6348224104522,65.01049289850926,285.3555202602337,17.47564107409512
64.03930062790874,249.84689183964628,309.81761943474055,319.4066934278623,64.75010585359227,286.65672718838954,17.468824637209785
66.13875947918974,249.14531085521924,307.6417763934409,326.9740718950621,64.46885432109386,287.99985304338975,17.4617382771653
68.26295345194356,248.44892218812777,305.4902568533873,334.3204051859915,64.16887563558507,289.3806362057451,17.454343562187827
70.41082665643125,247.75784249366475,303.3670429156066,341.42969733604326,63.85228007570866,290.79465824725753,17.446595455545726
72.58121083022431,247.07207236251128,301.2761380814343,348.2865218208648,63.52115269113001,292.23740370927,17.43845426134169
74.77268592179122,246.39157538494672,299.2214840148984,354.8760929174085,63.17756303456375,293.70416770818696,17.429892638070257
76.98348220653504,245.71625388662898,297.20688043832126,361.1843967331965,62.82357271417928,295.1899537715876,17.420892087571637
79.21145289635989,245.04592868919934,295.2359273976455,367.19833403776596,62.46123838622764,296.6894761118694,17.41143713621775
81.45412110617379,244.3803782383982,293.3119683142012,372.9058828004521,62.092606293413084,298.19731502086427,17.40151775061407
83.70873541602217,243.71939046840788,291.43805578658373,378.29632419902924,61.719698035837624,299.7081418613589,17.39113882940444
85.9722686621047,243.06275996662143,289.6170380876461,383.3604197929713,61.34449547774627,301.2168380230982,17.380325401179185
88.24138101328059,242.41021592369705,287.85177782239117,388.0904230012273,60.96892856501694,302.71848960005957,17.36911743446481
90.5124148868974,241.7613208420445,286.14531985894064,392.48003883937207,60.59486178739764,304.20839050167115,17.35756057775191
92.78143946239702,241.115393977595,284.5008464859925,396.52444571861247,60.224080040893966,305.68207551523597,17.345701993381514
95.04430354072065,240.47147938851467,282.92149338158106,400.22028271127016,59.858283196663024,307.1353259936617,17.333592855817745
97.296682785009,239.82832573499223,281.41020189663175,403.56553500339874,59.49908694165465,308.5642058085063,17.321291228812747
99.53415074245339,239.1843508445576,279.96966877033594,406.55943087434724,59.14801290558916,309.9651874009508,17.308859234858033
101.75228251844472,238.5376234878757,278.60234062560943,409.2024465989777,58.80646836176641,311.3352665046935,17.2963554760131
103.94677530712877,237.88591400745452,277.310387968125,411.49636152872324,58.47573246234594,312.6719693015701,17.283830079305112
106.11355566505507,237.22682961243345,276.09562518821497,413.44423224524047,58.156950704813774,313.9732806882055,17.27132780010005
108.24884379073677,236.55798804930788,274.9593783263363,415.0502372176935,57.851135628177666,315.23750812603333,17.258893994486424
110.34918548080078,235.8771315766955,273.90233238663853,416.3194751103518,57.55918918410014,316.46308810214026,17.246573889893863
112.41147481175895,235.18213261866944,272.92439593741165,417.25781240422134,57.28195125810735,317.648437056387,17.234405045176082
114.43295630582676,234.47095500550014,272.02466522765064,417.8718147315098,57.02024701636282,318.79191734230926,17.222411975479815
116.41119397488816,233.74165505768886,271.20166429765317,418.16875481802253,56.774904389003474,319.8918502039266,17.210609691630577
118.3440609145278,232.9924324815788,270.45386897480483,418.15663323282735,56.546740724622914,320.9465233287709,17.199012700021957
120.22983292870845,232.22168100058823,269.7801438422192,417.8441463280639,56.3365373479268,321.9542298549248,17.18763922763955
122.0673571585015,231.428003620911,269.1797976287444,417.2406190182467,56.145024997500116,322.91332879410015,17.176506597224694
123.8561533947012,230.61020672877402,268.6523987786075,416.35595415216017,55.97289370598121,323.8222669317886,17.16562447224828
125.59636076319995,229.7672793021422,268.19758888224015,415.2006500373232,55.82081094075673,324.6795503705063,17.154994207968944
127.2885685559609,228.8983312528024,267.81494497731944,413.7858955015708,55.6894171736751,325.4836934072326,17.144615100408455
128.93362127761904,228.00249215503806,267.50386841589534,412.12362273865307,55.57929646622412,326.23318702674464,17.134490468868243
130.53247072484498,227.07881132868843,267.2635410253861,410.22642453782544,55.49094603092459,326.9265333740355,17.124626450275468
132.08610310468512,226.12620416588396,267.09297941897034,408.1074133603463,55.4247619407397,327.5623576318673,17.115024864713014
133.5955084967909,225.14347920634162,266.9910751994947,405.7800873257815,55.381037538922676,328.139530796944,17.10567882021833
135.06163763975863,224.129428510527,266.9565015265886,403.25816890659667,55.359957167029435,328.6571843233306,17.096575920231707
136.48533958946157,223.08289384799082,266.9875676578761,400.5554115429912,55.36157559007389,329.11457313480827,17.087703021808817
137.86732994375225,222.00275012978076,267.08221612195916,397.68541585178275,55.38579166078431,329.51087796725255,17.079044460357547
139.20824902261737,220.88784141464782,267.23819469754466,394.6614715990028,55.432328070717354,329.8450834887475,17.070575114062635
140.50880466850148,219.73692956546574,267.4531964444293,391.49642832944426,55.50072501704744,330.1160046877332,17.062257379445263
141.7698926581644,218.54869804977793,267.7248165565542,388.2026488867119,55.59035677860312,330.32240916559147,17.054048716624024
142.99260103884842,217.32185782206872,268.0504207818177,384.7920867435693,55.70046985856311,330.4631284811864,17.045915118559403
144.17812092807404,216.05535277832712,268.42706362129974,381.2763970876791,55.830217352489086,330.5371167648983,17.03783833538846
145.3276294298714,214.74856622850638,268.8514755912797,377.66696332788496,55.97866700359413,330.54345424886935,17.029811900547575
