HandOpen,HandClose,Wrist Flexion,Wrist Extension,Supination,Pronation,Rest
154.66865590535582,7.2421421826739785,136.77414194840412,138.3062716760737,33.3392632950294,23.202061221980916,16.81787780900566
153.5897934803047,6.601239120482602,136.52774868071103,137.96708133204834,33.27914839693623,22.477393231229744,16.84915593354327
152.36326656147804,6.1127915860527295,136.26851110092468,137.58095465173247,33.21846497673739,21.784643857559104,16.881905645254818
150.9932595595936,5.77290710149747,135.99669556910618,137.146727831738,33.15696181907463,21.124912944545784,16.91616774810193
149.48446781533792,5.577456454006799,135.7124322562859,136.66331164927107,33.09437602923354,20.499208179010562,16.95196676258423
147.84203184461606,5.5220549665230765,135.415804349513,136.12967528684874,33.03045562344848,19.908433171727776,16.989311105183948
146.0715027624378,5.602044689035523,135.10691171779195,135.5448265990416,32.964969503575865,19.353397737394104,17.028199370120372
144.17883385482568,5.8124919979093175,134.7858795519005,134.9077992170328,32.89770450903423,18.8348414042401,17.068622825228665
142.17035987376687,6.148229487100878,134.4528443891686,134.217652969461,32.82845589286669,18.35344294747302,17.110559773483825
140.0527506530214,6.603969621422352,134.10794791346083,133.4734841378788,32.75701977847878,17.909809284213157,17.153969212748414
137.83298084362445,7.174474473448189,133.75133382703686,132.67443764334692,32.68320091232742,17.504471838860667,17.198793127267837
135.51834107252438,7.854720179463605,133.3831383555689,131.81971696557954,32.606842908108796,17.137916976009603,17.244966478138462
133.11644515819603,8.639992143498274,133.00346884081088,130.9085911033064,32.52786516358326,16.81063379607213,17.29242396671086
130.63518544592912,9.525916361439805,132.61236762577823,129.94039778457417,32.4462833618262,16.52313416757136,17.341096736404737
128.08265360397712,10.508496100455869,132.20977631351036,128.91454369650057,32.36221515179206,16.27592800561909,17.390905666842077
125.46706933741868,11.584159527304863,131.7955193745571,127.83050471423287,32.275887047512064,16.06947568663897,17.44176203748642
122.7967346712669,12.749742059991206,131.3693050726857,126.68782869300574,32.1876411183265,15.904140532204766,17.493575289095954
120.08002006952452,14.00238343731189,130.9307340286514,125.48615125351064,32.09792838694748,15.780149169274107,17.54625710359166
117.32537691753129,15.33940955015578,130.47931685345836,124.22524878360126,32.007289058667546,15.697561038041592,17.599715504641257
114.54133675443808,16.758256592448856,130.0144984560084,122.90512832915216,31.9163294120324,15.656245930776452,17.653844854394695
111.73646380892747,18.25644023730256,129.53566811478612,121.52610230711646,31.825699124834443,15.655867456214088,17.70852271684469
108.91927503633318,19.83155867789141,129.0421410720974,120.08881168674856,31.73607199470339,15.695871444241904,17.763616464871422
106.09815426136186,21.481312770564433,128.5331273663684,118.59422841303255,31.648140412123727,15.775479232632199,17.818989886007458
103.2812721872701,23.203513433501517,128.00771832017347,117.04366890164943,31.562625162018843,15.893685853377171,17.874501151445244
100.47652916221058,24.996059880217025,127.46491885943611,115.43879968597388,31.480280302308646,16.049262651138093,17.92999635824623
97.6915453749082,26.856892756393176,126.90373290563028,113.78161285985679,31.401876134842627,16.240762932759477,17.985307987392186
94.93368975536688,28.783926954833653,126.32326054505334,112.07438800694828,31.3281694247491,16.466529454257884,18.040259589248606
92.21009466717922,30.774971564388753,125.72274453252265,110.31967074866428,31.259879701087744,16.724704499686418,18.09466885255483
89.52763240667059,32.82766799708059,125.10155474229592,108.52026920068828,31.197679886381465,17.013243931608162,18.148343494744445
86.89289163624656,34.93948193062741,124.45915722046966,106.67924334302933,31.142195286819522,17.329934095942495,18.201073419502602
84.31217637167553,37.10774254474783,123.79510527052112,104.79987907932177,31.093997669223135,17.672409525548616,18.25262636140347
81.79149591350156,39.32970077792284,123.10904212342749,102.88566425125654,31.05358910439662,18.03817582943622,18.302751498462865
79.33652146622995,41.602587460270385,122.40068750364358,100.94027485711052,31.02138132104953,18.424649625820837,18.351188316221485
76.95252847857498,43.923632228856235,121.6698027178062,98.96756300267815,30.997676583698905,18.829216456814585,18.397672447777765
74.64435180468664,46.29001472430364,120.91614911979892,96.97153571830898,30.982653646610466,19.249283379487323,18.44193584562222
72.41635858111941,48.69879105822249,120.13945291620308,94.95631703707943,30.976360664059357,19.68230454852645,18.483709380447443
70.27242860093854,51.14684700287136,119.33937964460407,92.92609599178503,30.978713095601854,20.125786645806926,18.522734561111417
68.21593469860501,53.630861814187504,118.51552076517858,90.88507261517086,30.9894947884526,20.577290936050737,18.558777885494155
66.24972763418782,56.1472503386582,117.66740078740489,88.83741203230797,31.008362595460227,21.034434466082438,18.591636371670113
64.37613505015983,58.692096186017366,116.79450601391844,86.78721044992339,31.034852727884935,21.494888009790127,18.621133468906013
62.59697192979607,61.26111020067664,115.89631506274263,84.73847759355614,31.068386528726872,21.956376035684084,18.647115835035233
60.91354767440567,63.8496247222502,114.97230977144265,82.69514647122722,31.10827568244206,22.416682965898936,18.669459659370336
59.326667067746186,66.45260153046469,114.02196885533749,80.6611111202349,31.15372688376243,22.8736621862737,18.68808206403824
57.836643870937216,69.06463060021206,113.04476227403306,78.64026539056727,31.203847212014733,23.325246616775548,18.702945170853184
56.44333941260741,71.67992162606127,112.04015810897265,76.63651353863189,31.257654462258607,23.769463347354915,18.71404932733757
55.14621210433985,74.29230144535215,111.00763862770168,74.65375580310774,31.314093775592834,24.204446847499685,18.721424742280547
53.94435601527542,76.89523543458664,109.94671221702754,72.69586771577582,31.372054903961832,24.62844289290854,18.72512925118676
52.836521526373296,79.48190207729479,108.85691470928955,70.76667315604884,31.430384241683093,25.039805078751957,18.725248116264453
51.82112879132106,82.04531805722218,107.73781016461461,68.86990277316981,31.487891791818303,25.43698896319262,18.72188788005872
50.89628667750119,84.57844909856226,106.58900866617581,67.00914438147043,31.54335748641043,25.818544890480307,18.715164640710224
50.05981213058617,87.07425613784308,105.4102167484675,65.18780472692636,31.595541962027873,26.18311092028192,18.70519528276047
49.309237702289266,89.52570921784431,104.20132186072065,63.40910668617844,31.643202208385443,26.529414609286416,18.692099124520762
48.641810990871676,91.92584591014413,102.96247759209753,61.67612330475564,31.685106100992446,26.85629887158325,18.676006812021356
48.05450166667525,94.26791522803335,101.69414235739475,59.991805273058546,31.720042153296,27.162770068913574,18.6570646637596
47.54402603388342,96.54555375071497,100.39707947408327,58.35896340360341,31.746829287778255,27.44803590917372,18.635429519118016
47.1068831133255,98.7528933924591,99.07239061091663,56.78021943235739,31.764333372522394,27.711507508188486,18.611262140125262
46.73938559814281,100.88456965885422,97.72160942239779,55.257958303841434,31.77148898402026,27.95277577706635,18.58472888086868
46.4376769038273,102.93567332522133,96.34677358655571,53.79429888309144,31.767317981653935,28.171583226763875,18.556010331940797
46.197742144291944,104.90169286765017,94.95040135600664,52.391082148325395,31.75094103883272,28.36779917070537,18.52530546307597
46.01542873516026,106.7784868921827,93.53540717067867,51.04986443173768,31.721584915415054,28.541397761370924,18.492824952325122
45.886482075593065,108.56229911409075,92.10502318896297,49.7719069797573,31.678588485203058,28.69243891073329,18.45878106949802
45.80658191121214,110.24977457856687,90.66274403930214,48.55816833391726,31.621407823764503,28.82105643128167,18.42338507129037
45.77136595949071,111.83793672906975,89.21228593691274,47.40930913776511,31.549617634952543,28.927458304116055,18.38685293125258
45.7764485985075,113.32413611943724,87.75754892343255,46.325704674519415,31.46290631386806,29.01193554629913,18.349409091898043
45.81744498227322,114.70600923491882,86.30256869999141,45.30745114778985,31.361065805357487,29.074868779883634,18.311281208362566
45.889994165969355,115.98150099117517,84.85147566684735,44.35436104151286,31.243980959135495,29.116725805657392,18.27269236010348
45.98977248127175,117.14899546118616,83.40850278618724,43.4659568258135,31.111622099314445,29.138052051047232,18.233861347892173
46.11250168081697,118.20752463743312,81.97802484595557,42.64147305652094,30.96403851044529,29.139462184810466,18.1950106608409
46.25396320515385,119.1569688282372,80.56455352154715,41.8798661294999,30.801349598941574,29.121639785155264,18.156370664471044
46.41002270303394,119.99819729169852,79.17265873819929,41.17982431922475,30.623738171306904,29.08533862229135,18.1181731668605
46.576660518959436,120.73313254321943,77.80685769428243,40.53977587319393,30.431450366844487,29.03137390630393,18.080640617105576
46.75001005512871,121.36470781313673,76.47151669528405,39.957901367381,30.224796215462497,28.960603656392394,18.04398140887802
46.92640659256462,121.89672161572076,75.17077789100597,39.43215652540922,30.004143585049047,28.87390850072015,18.00839336918425
47.10242758921451,122.33368748583854,73.90849985065151,38.960301697903425,29.769908263978927,28.77217795448065,17.97406723385037
47.27490202999309,122.68079376129977,72.68820196029544,38.53992704120121,29.52254574575469,28.656308151129693,17.941183416426934
47.44089394329322,122.94397029856114,71.51302098614677,38.16846816474604,29.26254490401105,28.527206083656548,17.909905395585373
47.597678945970316,123.12993992848095,70.38569484494028,37.84321707504535,28.990421381826355,28.38578834918216,17.88037710478877
47.74272569968602,123.2461517392694,69.30856793771599,37.561335685200994,28.706710148710783,28.23297011270787,17.85272594980551
47.87369122375944,123.30059680662039,68.28359303143573,37.31987343728794,28.411958966688985,28.06965316296385,17.827064826528662
47.98843142760346,123.30157955617997,67.31233032867335,37.11578493537807,28.10672728890155,27.89672790874805,17.803487206239424
48.08501076402591,123.2575374548364,66.395989245683,36.94594449935492,27.79159567216684,27.715093462686667,17.78205924036823
48.16169529343076,123.17694568492895,65.53552839476792,36.807158817887114,27.467183151357332,27.52567786829777,17.762817992846145
48.216934098689016,123.06824148450427,64.73174500663978,36.696181935998965,27.13416247775358,27.32943825225702,17.745777711018132
48.249345486553956,122.93971024930597,63.98528938895007,36.60973760320217,26.79327244349498,27.127342358842945,17.730935392857862
48.25771535493259,122.7993987522364,63.29662331837705,36.544548327629,26.445335083212964,26.92034519209948,17.7182678475774
48.24099890666539,122.65514022191999,62.66597647898069,36.49736206016573,26.091270329540954,26.70936883224504,17.707724596833703
48.198315331671736,122.51463874226727,62.09333572305721,36.46496992932216,25.73209139854086,26.495286967106267,17.69922782692298
48.12894119049816,122.38548475595756,61.57847276495687,36.44421968053063,25.36888479507846,26.278913975911586,17.69268245838628
48.03231586315138,122.2750639144154,61.12099156763372,36.43203192806303,25.00279965635272,26.061000800418256,17.687986596844823
47.908055932578904,122.19044350453431,60.72036863060984,36.42541750665611,24.635060352200945,25.84224634808935,17.68503318426761
47.755959252237965,122.13833427935589,60.375961430208704,36.42148934169829,24.26698389256342,25.62332869887623,17.68370580241609
47.575990607430796,122.12512067488301,60.08697946514665,36.41746828845161,23.89997506648493,25.404938637013096,17.683877914791097
47.36826219891113,122.15685972043035,59.85244238306595,36.41069084746489,23.53550008838466,25.187791826678797,17.6854185976953
47.133023100096565,122.23918722565014,59.67114802147938,36.398629087356376,23.175059558097765,24.972618137445654,17.688198194049008
46.87065527431113,122.37718456286505,59.54164964504957,36.37892378495406,22.820172203868836,24.760141805627537,17.692087309053907
46.581664182882136,122.57532622137157,59.46223841651424,36.34941494955478,22.4723649192805,24.55106094519984,17.696951613588972
46.26666081611601,122.83756489098786,59.430934031109686,36.30815451712959,22.13315896612189,24.346028924798095,17.702651316163447
45.92634491244865,123.1674745323846,59.44548131569486,36.25341657333525,21.80404727556266,24.145639652832642,17.70904920207712
45.56149868020913,123.56833647618024,59.50334698374299,36.183741480972046,21.48646756061728,23.950418384888366,17.716018888881248
45.17298828497642,124.04314214036366,59.601718182287094,36.09801125141183,21.18178155358619,23.760819960083065,17.72344308710793
44.76176192579144,124.59458530612783,59.737510239765996,35.99550000327885,20.891265315554698,23.577237651581626,17.73120440822255
44.32884044702321,125.22510882082369,59.907386657645326,35.875867190615025,20.616104994467474,23.40002002311624,17.73918014201852
43.875312612708896,125.93694043273669,60.10778507254361,35.73911968366514,20.357392540156244,23.22948294506699,17.74724565678321
43.40234702074561,126.73202065968975,60.33494083305407,35.58557689246965,20.11612597128417,23.065907039661557,17.75527909754304
42.911210622988506,127.61187204507834,60.58490776255525,35.41586017058101,19.893218946730258,22.9095247928317,17.76315934680147
42.403274555881225,128.57753737015167,60.8535813458367,35.230909447053605,19.68951102776038,22.760506678086657,17.770758935240153
41.88000393435042,129.62960815176865,61.1367299073302,35.031999869059106,19.505765626310232,22.618951247553383,17.777941228425746
41.34293959481367,130.76825511154948,61.43004722065837,34.82074203042253,19.342655135173924,22.48487992793327,17.78456847826169
40.79367846535698,131.99322436524193,61.72924127059809,34.59907797167706,19.20074201302082,22.35823569407368,17.790514812508132
40.23385575474538,133.30385389587855,62.03013848923648,34.36926712581876,19.08046429975743,22.238890022432052,17.795671778569993
39.665126270700476,134.69911900912695,62.32875750351408,34.13383990967647,18.982136073200223,22.126668869852224,17.799944313837273
39.089142166045626,136.17763792963888,62.62134756251277,33.89552128265048,18.905972105035147,22.021394029289283,17.80324613974233
38.50753338747989,137.7375980676156,62.90441914715056,33.65714505651608,18.85212865114685,21.92291328356879,17.805500177041274
37.92189903230498,139.37663210608974,63.17476913810194,33.42157238309847,18.820734377883742,21.83110203256875,17.806639932110148
37.333807053342895,141.09169881443225,63.42950227022216,33.19161889252467,18.811892385018602,21.745847130875447,17.806606229182478
36.744791140546496,142.87901726050688,63.666062495481384,32.96999351543191,18.825658611963142,21.667029209838713,17.805340064259084
36.156338966404945,144.73407189757577,63.88225848171488,32.75925132401842,18.862016417055475,21.59450855579644,17.8027777053005
35.569878319582116,146.6516695944648,64.07627219958594,32.561759258998464,18.920863985234895,21.528113492876706,17.79885327200087
34.986772054463835,148.62604085147768,64.24668111097517,32.37966956953738,19.002019684897736,21.46763349422293,17.793506837207456
34.40832250111213,150.65099395680696,64.39251978706307,32.21489583104032,19.10524083426423,21.412826609452736,17.786689711722772
33.83577337152512,152.72009915703438,64.51336577118543,32.06909112917349,19.23024500984822,21.36344402899879,17.77836177724591
33.27030188044018,154.82686242233567,64.60940547447807,31.943631452983084,19.376720630763078,21.319253720183344,17.76848467316824
32.71300858948403,156.96485027739718,64.68145037849563,31.839606309449522,19.54432592166396,21.28004418860955,17.757019032625706
32.16491724671746,159.12771795628785,64.73091289306795,31.7578152510185,19.73268602077867,21.245611800539038,17.743929001619104
31.62699147955548,161.30913314895642,64.7597567237072,31.69876712738459,19.94138676773332,21.21574560819146,17.729187340211915
31.100162111448444,163.50266449776825,64.77041473815446,31.662681182810825,20.169959849555546,21.19021610991563,17.71277304999824
30.58534599261047,165.70172615392104,64.76566927050492,31.64949237253531,20.41786542387774,21.16876718141232,17.694663618188326
30.083447379902314,167.89960824802972,64.7485146723024,31.658863306543115,20.684477281310002,21.151108883838823,17.67483099825503
29.595354217463807,170.08953756356078,64.72202861868031,31.690201687300704,20.969070186641417,21.136910488774305,17.653246269948042
29.121937869274742,172.26472397093292,64.6892720205379,31.742677472603056,21.27081179130635,21.125794946836205,17.629888729561348
28.664047249868386,174.41842951421722,64.65323631072437,31.81523518847566,21.58875964776399,21.11733551279283,17.604750980469245
28.222490750561697,176.5440840846378,64.61683218503008,31.906604375100294,21.92185880350927,21.111054264166828,17.577837406662496
27.798015837985584,178.6353977567092,64.58287633793117,32.01531577505126,22.268937906742703,21.106423892747856,17.549162675936387
27.39130027063268,180.68641273707894,64.55404673824677,32.139727195314556,22.628708263736492,21.10287627186973,17.518757591562032
27.00295420556614,182.6914740310125,64.53282322789937,32.278054477153994,22.999773349379893,21.099820527554844,17.48667932741571
26.63351873569008,184.64513846027882,64.5214362746125,32.42839858587836,23.380649555218096,21.096670618534173,17.45301541510713
26.283453729049203,186.54206998856054,64.52182388684184,32.5887661342845,23.769786413287594,21.092876542175333,17.41787751662559
25.9531237093002,188.37695164930327,64.5355926851171,32.75709167010724,24.16557655413423,21.087946279364655,17.381392763380816
25.642791264262478,190.14443129059248,64.56399675942076,32.93126806671958,24.566362650535073,21.081449998412797,17.343701905686228
25.352616396455616,191.83915374922614,64.60796044255862,33.109176208548575,24.970454486993866,21.073011145376395,17.304963844372097
25.082654193650278,193.4559117195243,64.66814142433607,33.28870270537408,25.376157880678317,21.062293584876798,17.26535754747548
24.8328485623489,194.98984716128072,64.74498394436657,33.467747738519144,25.78180389504917,21.04899005306611,17.225075678763567
24.603028385719746,196.43661968348093,64.83872862270125,33.64423101604,26.18576413998255,21.032813633097497,17.18431466796499
24.39291275113424,197.79252025498906,64.9494073691606,33.81609993860888,26.58645216873878,21.01349252027781,17.143270570768657
24.202122925924325,199.05450475366607,65.07687284735111,33.98134219163718,26.982332071091594,20.99077081207703,17.102143103419497
24.030191748153594,200.220120094568,65.22087189912678,34.13800285307218,27.37195999936641,20.9644201509104,17.061139224370326
23.876565969898223,201.28736305777667,65.38112087529227,34.28420084530509,27.75405583991969,20.934258369801444,17.02046827945808
23.740607784925768,202.25454759605938,65.55734072539663,34.418140638343644,28.127562740916947,20.900160617192864,16.980332639445724
23.62160497380113,203.12022931381375,65.74924548195786,34.53812270175893,28.491661351282957,20.862056103076913,16.9409234887132
23.518789486003463,203.8832141145297,65.95649834411888,34.64255570274342,28.845758126473708,20.81992056023588,16.902424686268116
23.431352231995344,204.54266189243117,66.17865598147038,34.729968381313775,29.18948034352553,20.773773417665655,16.865018271029598
23.35844538072925,205.09823585528116,66.41511843622314,34.799023598110814,29.522675103984493,20.723674086997754,16.828884164859343
23.299177736634533,205.55019429470772,66.66509145866902,34.84853937298494,29.845393918999857,20.669710916926405,16.794194733773466
23.252614508925348,205.8993639861556,66.92756559699637,34.87751202844902,30.15785963064723,20.611987173819077,16.761112694926084
23.21778724439934,206.14702853409918,67.20131719243595,34.88513142534902,30.46042392634321,20.55060997427966,16.729798831069306
23.193709237325194,206.29479743862524,67.48492521617169,34.870783080839445,30.753525373470666,20.485683445095862,16.700423907458926
23.179386252228937,206.34448797759262,67.77678544177756,34.83404085854291,31.03765461961555,20.417309247754332,16.67317160157629
23.173820835755652,206.2980432762731,68.07511433753045,34.774664239353825,31.313327757044455,20.3455994646591,16.648229555906592
23.176018802489875,206.15752577057052,68.37795533148167,34.692607861599434,31.581067328869157,20.270696212317414,16.62578035986437
23.18500119988004,205.92518420977157,68.68319800373139,34.58802825103546,31.841388944104555,20.192781464379856,16.60600048192264
23.19981337477463,205.60353767642073,68.98860490241827,34.461270869122586,32.09478769631512,20.112070808542022,16.589060562430188
23.219524483109655,205.1954353627871,69.29184000643433,34.31284342771105,32.34172305150177,20.028802281792526,16.575119500050622
23.243222062255658,204.70407448930703,69.59050337539057,34.14339426345873,32.58261022958641,19.94323042555224,16.564315614630527
23.270010673603217,204.1329547273483,69.88216972626533,33.95370751423611,32.81782411485201,19.855624409306362,16.55676290684579
23.2990183745755,203.48578242883383,70.16441558294055,33.74470894547732,33.047708751595955,19.76626488013547,16.55255521795469
23.32940649482486,202.76636994929382,70.43483415187829,33.51746339614314,33.27257798701243,19.675437505228913,16.551772174878643
23.36037462188334,201.97854095749062,70.69105408571376,33.273154012193196,33.49270118956219,19.583427028549476,16.554478509312066
23.391159684582707,201.12603694634183,70.93076278083383,33.01305183170175,33.70828142118596,19.49051536281305,16.56071677542165
23.421038213303184,200.21245563403076,71.15172217664248,32.73849022179269,33.919438743967,19.39697934633994,16.570501058168496
23.44933722948682,199.24123834842683,71.3517827828719,32.450851740958434,34.126217192899745,19.303083524536525,16.583817180926225
23.475444510074365,198.21566899449766,71.52890806496163,32.151563378410614,34.32863253873726,19.209071305507692,16.600627024056717
23.498807560509956,197.13886213745502,71.6811996498884,31.842090762891043,34.52674208372972,19.11515875172769,16.62086992009386
23.518924705548244,196.01376254826192,71.8069110562741,31.52392815271141,34.720688631412,19.021530521072215,16.64445828006897
23.53533962132481,194.843171942924,71.9044598609541,31.198589810517724,34.91071233722892,18.92833928624596,16.67127160044275
23.547644295326116,193.62981320296495,71.97244951145164,30.867606640871006,35.0971774300751,18.83571682851553,16.701154439484057
23.55548363425467,192.37643322484223,72.009691996227,30.532521823581714,35.280629106486536,18.743798533570345,16.73391933689776
23.558552496433265,191.0858886235102,72.01521549127355,30.194877914282817,35.46183373020374,18.65274456488678,16.7693501021073
23.556587234551557,189.7611442201173,71.98825077495243,29.856197286192888,35.64177652090924,18.56274220810468,16.8072010528442
23.549363572636214,188.40519908510015,71.92820175166464,29.517966110318625,35.82164961414303,18.473994799007382,16.84719435844138
23.53670588540995,187.02104141155826,71.83461071083721,29.181631908383093,36.002847892590125,18.386711244214474,16.889023645337485
23.518496639381123,185.61171194729639,71.70712698576898,28.848610308358435,36.18694346999161,18.301101205804695,16.93236851048415
23.494672612224388,184.18044940915513,71.54548375114497,28.52028494734225,36.375624270373116,18.21737132927159,16.97691215248826
23.465211421130764,182.7308316035836,71.34948440060961,28.197997289360668,36.57062018225536,18.13571845915633,17.022349327048616
23.430124692545352,181.2668509569154,71.11899464748564,27.883036636556962,36.77363828184326,18.056322550107303,17.068383150147977
23.38946607877536,179.79289879701375,70.85393412678309,27.576631557155462,36.98631144503188,17.979342579590273,17.11472152355806
23.343343079263487,178.31365966963614,70.55426730973105,27.279936135536808,37.210164367052954,17.9049144571295,17.161080496733113
23.29191653435947,176.83394648265195,70.21999914613792,26.994011188204777,37.446596070826516,17.833150618335075,17.207189306472532
23.23538662335514,175.3585193634639,69.85117841748976,26.71980582117203,37.69686258709594,17.764142373519416,17.252789383728878
23.173979287718225,173.8919215556544,69.4479073000116,26.458144681140478,37.96204867908725,17.69796163686528,17.29762872453357
23.107948234241217,172.43836470822515,69.01035362201485,26.209723018605104,38.24303912151724,17.63465834575908,17.341459892441755
23.037593094839917,171.00170923154002,68.53876166311723,25.975104529146034,38.54050262423795,17.574257272177064,17.384047793648808
22.96327589900955,169.58554647517866,68.03346014764686,25.754716740274915,38.85488561746641,17.516760375101008,17.425183253098503
22.88542008956101,168.1933166152144,67.49486988893416,25.548848255317218,39.18640696958443,17.46215690271243,17.464690909512846
22.80449685089244,166.82840116752456,66.92351037572416,25.357656625667115,39.535051628501314,17.41044045942816,17.502426212852512
22.721012357376527,165.49417325414774,66.32000094000307,25.1811883995658,39.90056442628837,17.361626567714797,17.538268023109527
22.63549865054654,164.19400230467818,65.68505723515982,25.019401816428662,40.28244493822913,17.315759054918143,17.572115042470866
22.54850163705574,162.9312329557486,65.01948627460997,24.87217969878918,40.67995142931661,17.2729022973934,17.6038858299053
22.46056407425788,161.70916261349277,64.32418379248504,24.739330400334964,41.09212502176719,17.23312947953145,17.633516443767718
22.37221043836144,160.53099682056393,63.600150349715186,24.62058543124736,41.51782613933268,17.196514699737552,17.66095333464739
22.283942126554162,159.3997600423259,62.848539899817496,24.515600185429197,41.955759304466376,17.163126727391173,17.686144784511487
22.196241317464953,158.3182056897954,62.070721851943205,24.423957274679733,42.40448035581692,17.13302110759631,17.709036594902962
22.109571812035373,157.28878318211295,61.26832878837462,24.34517648446643,42.862404163776866,17.10623134106376,17.72957471091267
22.02437076332702,156.31366384063682,60.44328260272503,24.278743566304776,43.32782785565825,17.082761519590555,17.747709401423084
21.941038679780537,155.39479418929113,59.59779228527293,24.224154605582974,43.79896552998426,17.062583019438012,17.76339386638613
21.859937831294182,154.53393179453903,58.73431386402471,24.180946852560705,44.273977945340405,17.045634871748003,17.776578322860004
21.781398377849758,153.73261892705034,57.855485368273726,24.148697071909613,44.75098891238483,17.031823103072874,17.7872068773258
21.70572137004956,152.99210202678992,56.96407002358483,24.12700096097989,45.22809661654579,17.021016579539715,17.795222017768452
21.633172122639202,152.31325166463353,56.0629367129019,24.11545466773492,45.70338599010906,17.01304309577138,17.800572812643804
21.563969803129716,151.69651324569207,55.155074480787675,24.113645537790966,46.174937757870296,17.00769079315203,17.803217998667325
21.498283497979905,151.14186948020907,54.24360072900312,24.12114746683785,46.640832803020565,17.004715306179108,17.803121587408953
21.436238147490414,150.64879208737108,53.33173433384219,24.13751335442659,47.09916368697938,17.00384770947848,17.800247587658575
21.377923324328634,150.21619208921982,52.422754986452986,24.162262658326867,47.54807610017159,17.004798275343884,17.794561413842985
21.323395815482293,149.84239619572986,51.51997630658818,24.194869017481693,47.98584199964018,17.00725542608543,17.786038080329256
21.272676320349785,149.5251782044182,50.62671912395503,24.234755260531262,48.410920681521056,17.010882580888428,17.77466914592923
21.225748481252268,149.26184283783311,49.74626342852573,24.281298397013632,48.821970471187626,17.015316090512087,17.760462271742664
21.182564339863294,149.0493166714433,48.88178814133183,24.33383894794219,49.217825437655655,17.02016549634324,17.743437314942327
21.14305064207967,148.88423992850585,48.0363237859292,24.39168897667148,49.597464833411756,17.02501478126905,17.72362831577149
21.107108847643744,148.76309442395524,47.21273767231514,24.454138700957277,49.959989633463444,17.029426349116125,17.701093625471504
21.074609761917486,148.6823442314449,46.41375051796882,24.520460661552285,50.30462212615381,17.032956540409835,17.67592475200092
21.0453927105445,148.63852816177143,45.641967345837905,24.58990916359409,50.630730459572916,17.035184638223363,17.648245028197813
21.019279572866026,148.628275147557,44.89992406456839,24.661716598335435,50.937848626421065,17.03573841081356,17.61820036623038
20.996099221651363,148.6482480697027,44.190158255560235,24.73508950791565,51.22566771983892,17.03429995366885,17.585951406165552
20.97570376864975,148.69506263864392,43.515273791767235,24.80920552203964,51.49400944267501,17.03059598160627,17.551673147800305
20.957968604835404,148.7652519877277,42.87795477809326,24.883213566004066,51.74280403394218,17.024385857240365,17.51555796653856
20.94278920812603,148.85530868029167,42.280927900162,24.956241270434724,51.97207805193802,17.015454325863953,17.477813595536144
20.930085365444416,148.96177848043396,41.72690588880595,25.02740845740966,52.181940855690975,17.003608070237327,17.438655523255335
20.919804304894768,149.0813595548974,41.21852904315222,25.09583902929704,52.37256179752985,16.988672183181425,17.398301586046742
20.911912565900895,149.21095947696446,40.75830155237246,25.160665962196415,52.544145604437624,16.97048500273415,17.356974799120415
20.906382323253705,149.34768945485916,40.34853257650976,25.2210316964058,52.696916168597724,16.948894812474883,17.314910678391453
20.90318344075456,149.48882695597248,39.99130887643415,25.276089937713152,52.8311154629939,16.923765835938017,17.27235940902028
20.902282511240212,149.63177507254986,39.688511523713416,25.325011989980784,52.94702833675942,16.894994539258686,17.229579547201375
20.903640851317864,149.77400721518242,39.44185335496524,25.36699385072115,53.04502901629912,16.86252332993151,17.186830455269316
20.907205865944526,149.9129924788773,39.25289281635203,25.401258671969167,53.12561351807618,16.826340333433013,17.144372759717164
20.91289974680776,150.04612849891944,39.12300141551842,25.42705540532187,53.1893927680083,16.786469119231764,17.10247587551925
20.920614485169402,150.17071106755037,39.05330212601497,25.44365924143686,53.237063114242524,16.742956599309025,17.061420717209806
20.93021757787988,150.2839499672952,39.044607983714336,25.45037784700007,53.269376407728686,16.695861930178268,17.021490557967585
20.941562462644,150.383021377237,39.097373851060084,25.4465619513515,53.28711249050831,16.645246962880087,16.98295615644467
20.95449344148076,150.46514041608606,39.21166080666994,25.431614408027833,53.29105341726395,16.59116893845898,16.946065273134643
20.9688422440077,150.52764578366867,39.38711308780698,25.404993223851115,53.281961698661924,16.533675424463553,16.91104111459537
20.984421911618835,150.56808975908186,39.62294842658252,25.366209988824714,53.260562355805355,16.472801724992472,16.878085806355376
21.001024453926803,150.58430348880594,39.91795562260114,25.31482820745894,53.22752761880059,16.408573483923607,16.847381287991002
21.018423281786315,150.57439769622073,40.27049232489628,25.250463987709296,53.183466806915206,16.341015250540043,16.81908607132245
21.036375464221116,150.5367119632699,40.67848583427905,25.17278982824828,53.128928929206964,16.27015820965209,16.793334382963863
21.054618957579635,150.46979250229288,41.13944446307813,25.0815408278748,53.064422843274315,16.19604194136518,16.770241617814055
21.072866627279158,150.37244540190588,41.650482170955236,24.97651946391603,52.99044288154506,16.118720065453868,16.74990944387722
21.090804974303033,150.24381387535817,42.20835113893498,24.85759689591585,52.9074777718658,16.038285989512683,16.73242268943871
21.10810204559194,150.0834134278056,42.809471945108676,24.724714598794,52.81600047972652,15.954913736445297,16.717841082624748
21.12441785914302,149.89111530316103,43.44995767144808,24.577887930083545,52.71645836983729,15.868884662814967,16.706196030618013
21.13940792063148,149.6670952388686,44.12564054956601,24.41720721430715,52.609271536680225,15.780583779286754,16.697497010714734
21.152720790021476,149.4117664268034,44.83210946255266,24.242834404708848,52.494826888171374,15.690479186153722,16.691740973772387
21.16399911728669,149.1257078505734,45.56475349727766,24.05499842137037,52.37346240206283,15.599101117904839,16.688915385801774
21.172888115634667,148.80958387302226,46.318800036788424,23.853991991191364,52.245454927713865,15.507022985915876,16.688994002027783
21.17904373973478,148.46405533534053,47.08934483445438,23.640169967902466,52.111026456912256,15.414842020895632,16.69193275602891
21.182133172698258,148.08969860395035,47.87138184762583,23.413946379691822,51.97036500321545,15.323159886237466,16.697671926711205
21.181830927761474,147.6869591897894,48.65983915688537,23.175787981938367,51.82363973638121,15.232564669471659,16.706141782459305
21.1778183533272,147.25616718629556,49.44961827552242,22.92620649399872,51.671000618197965,15.143614989516529,16.717263664415032
21.16978904632663,146.7976131607098,50.235628459834786,22.665754170137824,51.51257353857162,15.056827072759377,16.730943685844117
21.15745493190614,146.31163578639067,51.01281234331315,22.395023734652483,51.34846001466512,14.972665456244517,16.747065276249472
21.140547088622274,145.79866626745405,51.77616909284021,22.11464762112809,51.17873794029013,14.891536448453598,16.765490149056742
21.118813483446218,145.25922780575002,52.520783683710555,21.825291450770692,51.003460906280246,14.813782921157378,16.786068995769533
21.092022883828726,144.69393103953942,53.241861721670986,21.527643545773483,50.82265829176936,14.739680741241663,16.808651278890355
21.059980361656315,144.10348160264664,53.93476013728635,21.222406626508217,50.636333713175794,14.66943815424979,16.833085457104463
21.02254694001468,143.48867323147408,54.59500819646374,20.910294783725295,50.44445840578638,14.603197651373302,16.85921343550222
20.979650438314792,142.8503454082973,55.218323914666826,20.592033012219574,50.246963339778226,14.541037998837623,16.886868266231126
20.93128359364483,142.18932102167514,55.80063482288919,20.26835460880398,50.04373442455129,14.482978051879781,16.9158780777344
20.877496231616277,141.50636417469022,56.33810567756515,19.939995890383845,49.83461119297146,14.428993928137057,16.946070155231418
20.81838861626986,140.80219733780072,56.8271645095234,19.60769352571298,49.61939057899615,14.379057372357398,16.977268311675253
20.754105690532406,140.07758194092028,57.26451741147666,19.27218807860063,49.39783552210285,14.333177593058183,17.009285789686114
20.684828576795972,139.3334178136819,57.6471549640317,18.934228190361427,49.16968226629978,14.291419144255743,17.041922920158843
20.610763680703112,138.57081339536904,57.97236173270147,18.594567589444438,48.934643261427816,14.253892830267803,17.07497387008874
20.532133927783125,137.79111038863155,58.237732403667614,18.253955588116554,48.69240876980459,14.220736340337888,17.108235557851717
20.449177017325145,136.99585695278296,58.44118459825461,17.91312768748858,48.4426504097844,14.192095745441678,17.141509926040733
20.362149951733972,136.18673301443232,58.58096054286724,17.572803055620295,48.18503221242005,14.168109231935595,17.174600214799995
20.271331131675403,135.36545415977776,58.65562398381793,17.233693870971987,47.919231563304216,14.148892953829698,17.207308504538325
20.177013627306653,134.53367903836127,58.66406264459422,16.8965221237084,47.64495998827258,14.134529697672564,17.23943854462709
20.079496352118753,133.69293091861613,58.60549612103776,16.562029161442936,47.36197813886755,14.125060348246175,17.27080028011238
19.97908598340388,132.84454489157744,58.47947926385092,16.230971100041398,47.07010993148456,14.120477564825896,17.301210135472036
19.87610989775513,131.98965566013155,58.285894616453284,15.9041094971342,46.76925148868338,14.120722102926276,17.330486750085292
19.770924968131016,131.1292348173089,58.024939949436046,15.582206676031845,46.45936708231638,14.125683854289903,17.358448634784086
19.663912356994963,130.26416960109,57.69712254114455,15.26602313066829,46.14047880713913,14.135207452818234,17.38492034965331
19.55546512948665,129.39534881924382,57.30326173100035,14.956310549061195,45.81266182325141,14.149096957336184,17.40974457796849
19.445980081935446,128.52370850607034,56.84448715547949,14.653800411605795,45.476045662059384,14.16711501028405,17.432789577910533
19.33585652046844,127.65021917146083,56.322222865005756,14.359192823122479,45.13081132972952,14.188978640428177,17.453948104895325
19.225495029010453,126.77584732969511,55.73816162770409,14.073147900737286,44.777177938240506,14.214356523807188,17.473136138947368
19.115290006753643,125.90152796215123,55.09423854024662,13.796278058355476,44.415384912736684,14.24286958034376,17.49029930448119
19.00561954688873,125.0281469363038,54.39260844032615,13.529139692535715,44.045679546513774,14.274093537444855,17.505422038020537
18.89684090900208,124.1565387846877,53.63562707924487,13.272226319892681,43.6683126508293,14.307562172290085,17.518528370218363
18.789292810031846,123.28753537560101,52.82583393292966,13.025968070625554,43.28353817381421,14.34277179186702,17.52967296521583
18.683296475803377,122.42206547736613,51.96593517012889,12.790740751378596,42.891614568116,14.379186704894394,17.53893137450776
18.579149170443056,121.56124219626255,51.05878868835275,12.566879474568887,42.49281147508049,14.416244109445419,17.54639710906726
18.47711401805553,120.70637736868184,50.10739234072231,12.354686044106579,42.087423584780964,14.453361176833338,17.552184711216288
18.37741499297594,119.85892835776163,49.11486958561149,12.154426254653526,41.67578424547918,14.489953185454192,17.556430601931634
18.280240039739553,119.02043264545492,48.0844470950283,11.966323764418494,41.258268689966165,14.525464430977003,17.559285842989166
18.185745387079088,118.19245919751448,47.019428417288765,11.790557941203568,40.83528758968168,14.559397220632091,17.56090592956379
18.09405510068354,117.3765549293571,45.92317322066981,11.627266644690586,40.40727886984118,14.591324526942097,17.561447265753717
18.005260576621986,116.57417049708988,44.7990868311707,11.476549361963885,39.974699155485546,14.620888072196385,17.5610707740528
17.919428281010852,115.78659238383135,43.65061358061228,11.338465865666212,39.5380124627855,14.647791536970288,17.559942858615994
17.83661572474431,115.0149261280368,42.481224954223194,11.213030597409764,39.09767871682615,14.671794324452964,17.558227953706236
17.756885482752132,114.26014162140682,41.29440706220754,11.100208440814738,38.65414557128968,14.692705435579866,17.556079072915786
17.680308149876915,113.5231388264899,40.09365791638984,10.999916623322756,38.20784333817184,14.710375876762068,17.553635836668786
17.606958095382808,112.80479393812286,38.88248935295073,10.912029871582654,37.759182956066304,14.72469064649599,17.55103040607821
17.536914369635443,112.105983173984,37.66441833974875,10.836382486926661,37.30855972838183,14.735562793847508,17.54839259085658
17.470270252606987,111.42758579382716,36.44294421053887,10.7727664236245,36.85636265116302,14.742930603722444,17.545847421105023
17.407140049171517,110.77046437072842,35.221521598217244,10.72092902866192,36.40298108695577,14.746755873215328,17.54350769622982
17.347653332964246,110.13543493964802,34.00354026096373,10.680573168719683,35.94880277501064,14.74702024580562,17.541468398197406
17.291942003929684,109.52323781440828,32.792316502388,10.651359897309879,35.49420912415287,14.743719602783587,17.53980612620784
17.24013266652076,108.93449922625385,31.591090077763933,10.632911304032575,35.03957418352402,14.736858717609449,17.538579814062018
17.192348627027773,108.3696805646089,30.403015552479264,10.624810940736575,34.58526486551271,14.726447161898937,17.53782722023013
17.148713337843816,107.82904603805655,29.231145310477434,10.62660272157127,34.131641636602154,14.712496304193241,17.53755805397257
17.10934737214328,107.31267632020173,28.078412518947086,10.637791631193922,33.679066740757925,14.695017390732025,17.537751143159067
17.07436246910371,106.82051924712621,26.94762274432119,10.657847171110385,33.22792340844803,14.674020411327687,17.538360941314856
17.04385965836511,106.35245778056007,25.841451832590376,10.686207274241346,32.778635655134536,14.649513089184763,17.539328859912576
17.01793061535832,105.90836963812488,24.762439337274582,10.722280553849915,32.331674196421226,14.621499724827205,17.540589688437432
16.99665581161138,105.48814127634833,23.712972902328328,10.765446799082529,31.88754855124162,14.58997994871188,17.542069298713475
16.98009616372035,105.09163325010682,22.695270459060612,10.81505797918722,31.446799181458022,14.554947700995799,17.54367813410164
16.968281844545537,104.71864524313534,21.711369011804955,10.870442811634017,31.009999620880002,14.516391507598668,17.54530870638141
16.961205777330626,104.36891061674417,20.76312084658211,10.930915018388685,30.5777643499499,14.474297442728174,17.54684116974745
16.95882530231996,104.04208936139686,19.852190953246318,10.99578204889812,30.150750718068448,14.428654236335575,17.54815066731278
16.96106686573397,103.73772855363785,18.980051123367986,11.064351217753796,29.729652237996753,14.379457333260612,17.549108694331938
16.967826357467008,103.45521297610902,18.14797304987564,11.135932972473226,29.315190298010084,14.326709583234356,17.549582135917262
16.978964573941614,103.19374885484599,17.35702709664017,11.20984394993897,28.90810574647926,14.270419299223596,17.549439774001588
16.99430613521922,102.95239299608508,16.608089514412658,11.28541226217154,28.509146132922464,14.2105979594881,17.54856599331735
17.013651029065063,102.730103881722,15.901851148047864,11.361983302755242,28.1190480995149,14.147260636880853,17.546869274915544
17.036794116974033,102.52579311592534,15.238819765285621,11.438922092205843,27.738518677687463,14.080432839382711,17.544278140238568
17.06353604395375,102.33837143937538,14.619319179349743,11.515611679674981,27.3682214371094,14.010163666256103,17.540732052528078
17.093679898183506,102.16677516619585,14.04349458735076,11.5914518814632,27.008770374333185,13.936537492873324,17.536178509393196
17.12702564421531,102.00996006703102,13.511325611840164,11.665862114879937,26.660726322161192,13.859678518732876,17.530578211327608
17.163372593689136,101.86687057025277,13.022637962371274,11.738286579982855,26.32458928081208,13.779755722523536,17.523910624217972
17.202525419388227,101.73639511272191,12.577107136221507,11.80819720168873,26.000786784371037,13.696995447391055,17.516172976654726
17.244295508507044,101.61731353522717,12.174258002646312,11.87509333207466,25.689662407536417,13.611692198046665,17.507374305361786
17.28850078737987,101.50824857956358,11.81346768499441,11.93850246226186,25.391467505450734,13.524205380226995,17.49753191566068
17.334971067200275,101.40764295255913,11.493975163397872,11.997986744670847,25.106356905564983,13.434944811884982,17.48667419809215
17.383554948029452,101.3137893293779,11.214894175164773,12.053153445279058,24.834387586934298,13.344356734555204,17.47484410167413
17.434119868310866,101.22491664725582,10.975222085972986,12.103661210987411,24.575520188149092,13.252918005127013,17.462094807348244
17.486544377920325,101.13928153197297,10.77384355889904,12.149218439260235,24.329625872290123,13.161136471611156,17.44848018490837
17.540706362291143,101.05520613656833,10.60953817475969,12.18957938930705,24.09650254122904,13.06954875235993,17.43405374967684
17.596470752000563,100.97106926632783,10.480999398318746,12.224545115778465,23.875898330034225,12.978710467129448,17.41888188030305
17.653680708342748,100.8852985304538,10.386857980988111,12.253969228647879,23.66753052250856,12.889181792608692,17.403057725839343
17.712155489138684,100.79637512811614,10.32569702209085,12.277762160894666,23.47109189840397,12.801512546053457,17.386701721035518
17.771693432029895,100.7028254544071,10.296056654880914,12.29588894344609,23.286249312170746,12.71622835783537,17.3699516705524
17.83207421916939,100.60318845362924,10.29643730417045,12.30836220872847,23.112640728924596,12.633818526330238,17.352953137138055
17.89305716132419,100.49597506293678,10.32530938260038,12.31523638557392,22.949872447273755,12.554726700431969,17.33585632690148
17.954380222740145,100.379638416129,10.3811271940828,12.316605768720123,22.797520493144898,12.479345961790665,17.318817373378156
18.015767282073327,100.25255824586777,10.46233782585669,12.312602357261111,22.655139630796395,12.408020464610084,17.301996407429343
18.076941604281654,100.11303488235518,10.56738110809117,12.303388763472974,22.5222738596476,12.341053921623146,17.285549373693662
18.137634405710514,99.95929894577961,10.694686536989112,12.289147461168128,22.39845943137004,12.278719626394603,17.26961854408586
18.19758412091005,99.78954520638902,10.842674874648312,12.27007127587768,22.283220106316662,12.22126628787155,17.254327967932277
18.256534189549953,99.60198013730705,11.00976535684574,12.246358292649575,22.176060386252153,12.168920489865425,17.23978494188869
18.314236584343632,99.3948648388992,11.194382393715161,12.21821031485289,22.076466728126213,12.121888527718601,17.22608177748253
18.370457932062173,99.16654478007881,11.394956641051856,12.185831532619272,21.983932065662273,12.080358118554113,17.21329237833845
18.424980462088282,98.91546499244089,11.609922725058967,12.149425889839842,21.898003244720503,12.044502015144749,17.201466420262275
18.477596139412007,98.64017255416103,11.837720554926195,12.109195055709304,21.81832094265149,12.014484871135158,17.19062874229683
18.528100485083414,98.33931350007099,12.076803515568807,12.065338817982935,21.744626246258548,11.990468436316085,17.180785868874864
18.576292756408286,98.01163495427633,12.325648515304485,12.018056223679311,21.676741421473142,11.972610278674564,17.171932162223598
18.621980778675727,97.65599902919404,12.582760766067825,11.96754446211818,21.614543957967484,11.96105967584708,17.164048672813635
18.66498299004054,97.2714126503484,12.84667339379988,11.913995651560397,21.557942842465387,11.955955599075121,17.157098097394194
18.705125331833276,96.85707150112947,13.115948684081536,11.857594679992623,21.5068596153321,11.957424816929363,17.151024252363893
18.742238727558387,96.41239437726466,13.389185131422819,11.798520789651354,21.461215146512707,11.965579186152578,17.14575770008984
18.776163723690267,95.93702521099048,13.665025595519774,11.736952188446375,21.420920640737084,11.98051544688083,17.14122022137821
18.806761836570402,95.43081130836279,13.94215972477487,11.67306938925356,21.385870778165987,12.002315312570065,17.13732272955833
18.833925384562484,94.89377577350281,14.219321256164712,11.60705460017148,21.355940499787724,12.031040663463976,17.13396099914079
18.857578165204362,94.32609079479928,14.495285926090922,11.539089790042656,21.33098741968514,12.066725115951009,17.131017017731555
18.877668891407634,93.7280522402859,14.768873308747246,11.469357355949455,21.310855558513456,12.1093657890514,17.1283676289452
18.894167747271755,93.10005321973026,15.038950612823902,11.398043977417082,21.295374015503157,12.158915957468466,17.125894242412567
18.907072298636283,92.4425588059023,15.304433811583444,11.325344553393938,21.28435006614538,12.215278335998706,17.12348620129351
18.91641508290987,91.7560887152223,15.564284814245212,11.251462464812283,21.277560030970736,12.278300138840047,17.12103660869608
18.922261432021653,91.04120863246804,15.817508705443803,11.176605733961173,21.274741780119253,12.34777177022954,17.11843667814208
18.924698516449013,90.29852409296797,16.06315596333392,11.100982192380387,21.2755948499162,12.423428975624082,17.115576567679373
18.9238264660374,89.52866961341994,16.300329780098167,11.024797302253571,21.279790881842377,12.504955274304296,17.112352578319936
18.919757961401576,88.73229112860201,16.528192529011516,10.948255529855276,21.28698624838033,12.591982209390908,17.10867088730719
18.912622156902927,87.9100307092954,16.745966118517924,10.871562013601197,21.296827467815092,12.68408788255076,17.104442425079185
18.902564872853528,87.06252410854405,16.952927869306144,10.79492091394686,21.308952555949155,12.780795678798066,17.099576707477787
18.889741928049926,86.19040733270813,17.148408069863525,10.718530671675435,21.322996640088125,12.881576631632596,17.093984677224146
18.874309551334672,85.29431813570284,17.331794068498326,10.642579262831418,21.33859961362641,12.98586007261669,17.08758844224018
18.856419480265842,84.37488805671192,17.502538786226054,10.567242517287601,21.355407477000274,13.093052541140244,17.080326577564406
18.836221898299204,83.43273649410406,17.660165471537503,10.492685379015024,21.373068104284847,13.202557186548932,17.07215068883205
18.81386970469453,82.46847846376369,17.804264789843256,10.41906230023576,21.391229587890336,13.313786076132718,17.0630209857922
18.789517290705138,81.48274378629347,17.93448972481891,10.346515031252489,21.409546686379326,13.426164611242235,17.052908970330613
18.76331809639023,80.47620089605232,18.050555781175426,10.275172121644193,21.427694587014116,13.539131327801337,17.041804923115173
18.735430279804234,79.44958379995808,18.152246411429523,10.205154977663284,21.445380935828165,13.65213651500616,17.029720353729214
18.706029027462105,78.40371426257961,18.239415921355235,10.136587807786832,21.462346874903684,13.764641394397511,17.016681536525457
18.675312802738244,77.33950739573282,18.311984656160565,10.069603107540793,21.478359471247085,13.876117647685295,17.002722233325475
18.643497598739504,76.25796618214024,18.369929946970643,10.004338787204192,21.493202924374952,13.986046302880043,16.98788507783776
18.610808380731847,75.16018426281215,18.413280207344297,9.940930819222007,21.50667055188835,14.09391558947615,16.97222958562468
18.57747946818741,74.04736218234267,18.442116127006294,9.879506958810197,21.51855796115652,14.19921854894968,16.955835525078665
18.543763131369037,72.92082035681307,18.456574743393567,9.820183891868284,21.528660703708887,14.301451320173896,16.938796326356705
18.509933742097857,71.78200110150345,18.456848152135283,9.76306642466485,21.536780647860436,14.400112298819947,16.921211634494245
18.476279252762705,70.63246935340929,18.443175507631913,9.708246331104634,21.542739894458816,14.494702047972357,16.903192685943033
18.443086115558994,69.47390873404316,18.415835461298524,9.655801356092757,21.546391379918692,14.584723846616937,16.884879792965894
18.410629125464695,68.30810366622929,18.375145815650914,9.605796945918193,21.547617219918653,14.669684771658137,16.86645446573373
18.379169389862245,67.13691403811177,18.32146875548287,9.558290857953399,21.546318813487467,14.749098300350676,16.848134028337167
18.348953285218983,65.96224827736356,18.255212766494164,9.513337468905751,21.542407695768446,14.822492050028009,16.83015605755291
18.320206288154246,64.78603196117575,18.17682742634832,9.470988780895537,21.53580406409943,14.889423098386544,16.812767757256534
18.29312450753212,63.61017433170684,18.08679864382611,9.43129217155457,21.526445783441797,14.949495685177531,16.796225484961496
18.2678711483167,62.436542168609385,17.985651199515125,9.394287694161592,21.514300216198272,15.002372251452732,16.78079578184352
18.244581693280608,61.26694659739899,17.87395429909168,9.360007634943285,21.499369587049735,15.047774738025712,16.766748925433397
18.223372609355657,60.10313674668511,17.752322110261044,9.32847778979088,21.481696216200206,15.085480164501346,16.754349457672777
18.204343719553627,58.94678962311872,17.62140742094104,9.299717147316816,21.46137562553743,15.115316312550593,16.74385618366704
18.18757280432098,57.799494377520276,17.481892712421946,9.273733845703168,21.43856602560825,15.137160101011604,16.735533410262846
18.173111693437267,56.66273920216519,17.33448586003034,9.250519389728545,21.41348269277415,15.150935843300314,16.729658817453082
18.160990707161293,55.53790971842839,17.179924777163983,9.230046306226665,21.38638505425408,15.156609878720674,16.726516365585578
18.15122646730217,54.42629816675389,17.018984881891047,9.212272051209016,21.357565440617662,15.154182709430836,16.72638034651081
18.14382380333176,53.329115191195235,16.852478104525808,9.197145121969351,21.327338136116868,15.143682461069297,16.72950331997391
18.13877038070709,52.247500982010486,16.681242231927772,9.1846075897974,21.296027615006455,15.12516195261134,16.736111373945235
18.13603010712874,51.18253746713537,16.506131294264172,9.174594808961311,21.263958061190987,15.098698741240057,16.7464001858931
18.13554110072917,50.135257758474744,16.328014773047055,9.16703838364788,21.231445329564032,15.064395674970216,16.76052668882662
18.13721866536449,49.106644790221345,16.14778044956927,9.161874992590828,21.1987934771433,15.022380064091772,16.778599771321034
18.140957588693148,48.097618588116575,15.966331046916498,9.159055903885392,21.166300363800953,14.97280171417709,16.800678929617735
18.14662832346315,47.10902357264565,15.784572835464292,9.158550638944147,21.134270951745993,14.915831529087672,16.826785301699108
18.154069902323744,46.14162914166953,15.603402444617698,9.16034442126696,21.103025797601386,14.851661391533051,16.856916553759923
18.163089153221073,45.19614286940106,15.423698645743544,9.164434370139363,21.072894744217628,14.780505197759737,16.891052889656848
18.173470256255083,44.2732199761867,15.246319538307086,9.17082946043144,21.044200248007584,14.702604847012006,16.92915342445066
18.184985697812504,43.37345903807345,15.072098495272071,9.179554487659338,21.017240122544525,14.61824554230682,16.971153038295068
18.19739844480533,42.49739495357932,14.901834421199599,9.190653013105575,20.99227662753187,14.52777429601416,17.016967013963818
18.21045855975083,41.64550566081896,14.736280388165468,9.204185338164812,20.969537320492982,14.431611162213875,17.06649952816549
18.223906327924837,40.81823647052622,14.576137528738318,9.220223112275884,20.949225247623755,14.330251392715429,17.11964648590848
18.23748567099989,40.016028719139975,14.4220556527099,9.238844250712706,20.931525489930664,14.224259504328822,17.176290179714478
18.25095719242362,39.239334068134504,14.274634896980082,9.260128861140428,20.916600371343357,14.114254724299204,17.236293346930076
18.264100798614006,38.488616100984416,14.1344227989685,9.28415362277044,20.904579036757802,14.000892149870538,17.299500988634335
18.276710702317164,37.76435378445913,14.00190812353582,9.310983108138807,20.895547932018186,13.884845016102542,17.365748106937293
18.288591872487384,37.06704321380317,13.877516791879998,9.34066080568398,20.88954250478385,13.766788412041342,17.434863350743427
18.29956313919583,36.39720435666841,13.761612892237627,9.373204546146484,20.88654051134483,13.647384037573422,17.50666426183526
18.30946363583326,35.75544554109325,13.654502105807449,9.408607660879062,20.88646060789846,13.527269185287057,17.580951049312286
18.31815425433664,35.14261244575341,13.556432078765008,9.44684197976082,20.889167512421245,13.407053429397061,17.657509046066025
18.32551119817703,34.55997107304017,13.46758885355829,9.487858238962048,20.89447857431517,13.287320585206889,17.736120665339776
18.331418336070723,34.00937154292706,13.38809507442481,9.531584120702515,20.902167643747173,13.168628711289841,17.81657515976657
18.335767780604336,33.49335041094856,13.318015820943964,9.5779238064109,20.91196970181732,13.051504999387719,17.898667749238122
18.338469059192228,33.01512605378936,13.257370072663349,9.626761237314085,20.923588923370044,12.936439572813606,17.982194421259063
18.339456319279048,32.578533545411354,13.206139025152753,9.677964742940237,20.936705922349656,12.823882449535015,18.066952368441086
18.33868660305435,32.18799028079677,13.164266714136163,9.731389204704225,20.95098180232037,12.7142427597507,18.152745565698222
18.33613463322294,31.848458945479067,13.13165790665461,9.786874564652733,20.966061592666126,12.60789241403142,18.239386185172755
18.33179267828253,31.56532027951977,13.108180471989781,9.844243295739552,20.98157674842941,12.505188922268662,18.326687850932053
18.325675359095534,31.344172833550026,13.09367235176608,9.90330156242265,20.99714551876563,12.406522354796767,18.414458859250136
18.317820662155757,31.190633476566468,13.087946099720337,9.963845562253775,21.01237579659912,12.312357817458308,18.502504845586678
18.30828212880741,31.110173876057452,13.090786513401362,10.02566820982837,21.026874030539464,12.223243749660165,18.590638852233315
18.29711897457478,31.108017976162184,13.101944464557832,10.088560848149777,21.040255423080485,12.13979152019665,18.678687643640718
18.284394705448438,31.189158615764743,13.121132653442784,10.152310881537893,21.052151077127604,12.062646891002133,18.766488206535268
18.270184716251254,31.35848889069141,13.148026847919166,10.216701279187456,21.062215499909527,11.992463544553981,18.853879954299693
18.254582133191366,31.620900077443334,13.18227135417378,10.28151595877426,21.070136959639182,11.92988089608422,18.9407012859898
18.237695463706128,31.981227996610542,13.223482878730787,10.34654744265675,21.07564752389609,11.875505785206165,19.026791529095227
18.21964526668866,32.444128542636626,13.2712496665298,10.411599733120923,21.078529778977416,11.829896449476903,19.111991698252332
18.200569132957266,33.01405117720801,13.325130769179212,10.476485200105543,21.078618644165367,11.793548131457817,19.196139678725206
18.18063143738345,33.69538128673494,13.384661705003566,10.541020833911135,21.07579801870629,11.76688140314546,19.279063395508725
18.160025267965914,34.49268477879106,13.44936459758011,10.605028110777285,21.069994443528667,11.750235412381409,19.360579113698332
18.13896302420959,35.41092925789077,13.51875450874768,10.668334729571702,21.06116921162067,11.743866959912133,19.44049641516569
18.117667517961053,36.455575879021794,13.592338381680765,10.730774191080355,21.049309049983805,11.747952258095802,19.518622460272134
18.096375939184835,37.63251519425832,13.66961219565344,10.792182543474517,21.034416050078445,11.762586589281964,19.594759376605733
18.075352461317205,38.94791754726432,13.75006418778219,10.852394909678962,21.016497152757015,11.787780845779194,19.668699351001212
18.05489246841432,40.408089901083976,13.833185431456542,10.911245021720898,20.995553321769695,11.823457838756124,19.740226755318623
18.03531102393148,42.01935131551967,13.918480829704649,10.968568986587513,20.971569480706613,11.869450609077612,19.80912815889693
18.016925825566656,43.787860918243844,14.005473350433485,11.02421027729046,20.94450663002234,11.925502501945456,19.87519994303814
18.000046507431634,45.7193645264612,14.093702940331648,11.078021438074002,20.914296729264183,11.991268377197006,19.938245566080752
17.98497079804344,47.8189171705988,14.182728153674638,11.129862263461503,20.880839966985885,12.066319808261749,19.998067684487534
17.97198038622589,50.09067299468628,14.272134024668215,11.17959905739535,20.84400420694548,12.150162613570462,20.05446746430072
17.96133216145757,52.537775086684135,14.36153973727636,11.22710884749351,20.80362816013099,12.24226841692278,20.107255334337584
17.953248153791137,55.16228557530379,14.450598525908509,11.272286478860241,20.75953218396237,12.342103740219871,20.156262491342066
17.947911118103747,57.96509479558271,14.538990809676195,11.315048502361998,20.7115374420192,12.449140744317479,20.20134156513475
17.945467679793996,60.945832116359576,14.626418951054342,11.355330974847394,20.65949019573824,12.562853623159036,20.242359224302827
17.946032482621693,64.10285139497147,14.712612220753739,11.393083803150573,20.603296862764864,12.68271162692377,20.27919194168823
17.949686746943105,67.43331846383413,14.797340118677779,11.428265336485813,20.542972307815862,12.808172732541859,20.31172942027692
17.9564734071545,70.9333224616575,14.880420464138721,11.460838472075384,20.47867533614457,12.93867880090022,20.33987865289484
17.966396757073905,74.59791341222471,14.961714635739792,11.490767658931263,20.410706275161466,13.073653426671026,20.363560564792962
17.97942961006913,78.42106381416838,15.041118866339934,11.518016555634949,20.33947809602854,13.212503149071168,20.38270187458015
17.995520811411097,82.3956303521442,15.118563811492917,11.542547893054873,20.265485948110406,13.354621695903479,20.397232539481696
18.0145954853379,86.5134170411629,15.19402165457582,11.56432785045479,20.189288694523487,13.49939490490766,20.40709281434432
18.036551948093045,90.7654093842044,15.26750890386116,11.583333764506094,20.111506570001797,13.646206683690155,20.412240985264752
18.061266138468802,95.14216925891017,15.339078537364953,11.599559131133072,20.03282639267301,13.794455751266673,20.412652296708515
18.088605243118057,99.63433185042814,15.408808698796445,11.613012096975892,19.953996771317357,13.94358656631415,20.408311780946967
18.11843871197226,104.2331510931537,15.476798091695779,11.62371081670923,19.875807283998107,14.093115815443486,20.399211573513025
18.150636930969053,108.93099550699888,15.543167708527182,11.631681605336754,19.7990661056439,14.242640934281189,20.385359377532293
18.185061609373427,113.72158055230854,15.608059413325615,11.63696169726111,19.724598505604636,14.391843077788666,20.36679193358613
18.22155960902924,118.59980668944797,15.671626270147536,11.639602184175068,19.653270463824562,14.540493682488156,20.343579578532953
18.259967835536678,123.56134835998202,15.734020894536238,11.639666022807747,19.586013727823918,14.68845373482522,20.315818000330115
18.300124512563794,128.6022071900478,15.795393765473946,11.63722217730988,19.52383401444501,14.835657804269063,20.28361927414815
18.34187436734166,133.71834100076936,15.855904699346318,11.632341984024615,19.467806665540245,14.98208950849845,20.247115852684917
18.3850632034142,138.90546400522575,15.91573401255173,11.625102669771161,19.41906106604203,15.127758497805894,20.206474894096363
18.429530412203004,144.1590567537555,15.975080205470407,11.615595958836808,19.3787503733238,15.272683803620836,20.161906106869626
18.47510874812199,149.47446178953467,16.034148420541825,11.60393348530404,19.348013783955473,15.41688253562198,20.113655853457562
18.52162950725091,154.8468965158378,16.09314225617511,11.590243926438127,19.327941065579896,15.560361255408209,20.061998895683086
18.568924180436703,160.2713379511913,16.1522650912845,11.574664898081407,19.31954566778259,15.703109296760328,20.00723779739272
18.616819416946317,165.7423823522251,16.211726160117117,11.557335715551664,19.323753065303247,15.845093274571514,19.949704484085327
18.66513096415097,171.25423595905394,16.27174117444464,11.538394774673423,19.341402871579767,15.986250931720978,19.889754286402866
18.713663803476393,176.80084252313833,16.33252481395891,11.517980611192565,19.373249612382306,16.126483916671106,19.827753377201446
18.762218578479917,182.37596855758713,16.394283745573883,11.496232012882825,19.419949991768092,16.265650677366978,19.764068326804324
18.810596017178533,187.97313241634964,16.457216831046086,11.473284780102055,19.482040788397295,16.4035608527947,19.69906175597078
18.858593827255163,193.5854628541072,16.521516864711664,11.44926851530253,19.559917995549668,16.539972676874143,19.633089108202547
18.90600049555761,199.2056639758411,16.58736513485934,11.42430755647929,19.653822082725974,16.67459349881778,19.566490838541974
18.95259305479033,204.826165325856,16.65492036683461,11.398524735014284,19.763828670220907,16.80708142041439,19.499581953599403
18.998139775318467,210.4393436978435,16.724312095579627,11.372043171798753,19.88984260483041,16.93704775236363,19.432646767394903
19.04240211147736,216.03765802525547,16.795644158746445,11.344983998972003,20.031594695108858,17.06406273802313,19.365943849542642
19.08513196378255,221.61365553634238,16.869001264800506,11.317462149043847,20.188644118439335,17.187664854930023,19.29971624063029
19.126069793024577,227.1599225338744,16.94444768213937,11.289583758284408,20.360392378956803,17.30737170852774,19.23419671958432
19.16495282749693,232.6690672483334,17.022018323311077,11.261446699223978,20.5461081180178,17.42269451205045,19.169605420175234
19.201531915702557,238.1337377637047,17.10171261161327,11.233142308704675,20.744951027461795,17.533159864255886,19.106147747387443
19.235583487421774,243.54664771590836,17.18349766930232,11.20475603368344,20.955986626261506,17.638333441369003,19.044020296628865
19.266909305296448,248.9005999071966,17.267315571735598,11.176368538494465,21.17819818770684,17.73783356898446,18.983421436577032
19.295333548710968,254.18847856025727,17.353084884988903,11.148060418362085,21.410504102600832,17.831332463514023,18.924555749707668
19.32070926189666,259.4032242543272,17.440694832876922,11.119918683910416,21.651778799090064,17.918556145243855,18.867627949517534
19.342931490799565,264.53783217288054,17.53000049373449,11.092039148777456,21.900870322558948,17.999290263156492,18.812833452841105
19.36194355531958,269.58532289982514,17.620829117804846,11.064523115947182,22.156610479638076,18.07338517271304,18.760356408081634
19.37772970814424,274.538633781066,17.712997066020613,11.03747216762231,22.417817712436147,18.14075226694536,18.710377364148417
19.390300970960368,279.39051166898076,17.806323083451318,11.01098474475559,22.68329526928535,18.20135344853057,18.66307945837361
19.399684834842294,284.13352114849647,17.900626977914005,10.985156142203214,22.951827937708668,18.255188935726096,18.61864284992977
19.40592247861105,288.7601558665977,17.995719532007037,10.960080748459845,23.222179494665024,18.302285651737353,18.57723344483455
19.40906877431402,293.2629313979916,18.09139615364088,10.935852824568338,23.493091271147115,18.342687493129834,18.539000029841333
19.40918940909427,297.6343888350319,18.18743831931379,10.912564042169953,23.763283627314824,18.376448916621577,18.50408144226645
19.406354340498204,301.86705849831304,18.283616232449045,10.890300179035224,24.031463104773692,18.40363201800279,18.472610298009396
19.400630944530338,305.9534550237723,18.379685816599373,10.869140707552264,24.296334697675373,18.424304342633995,18.444704639180788
19.392080287590197,309.88612731032634,18.475382926859147,10.849161971860717,24.556617193020294,18.438533810585675,18.420455432404502
19.3807554805819,313.6577597920816,18.57042531014898,10.830440122160768,24.81106200059642,18.446381110965582,18.39992229901842
19.36669811700883,317.26129647568445,18.66452711164002,10.813050004178136,25.05847451279654,18.447893563388295,18.383138234453764
19.34993254912232,320.69005454326856,18.757415524042703,10.797060629901603,25.297731049977628,18.443104095717203,18.370112670509958
19.330464343719363,323.9378190214235,18.84883575504929,10.782531597018368,25.52778497166255,18.43203592411273,18.36082692762851
19.308290319644495,326.99889772723947,18.938545552900187,10.769514684637496,25.747662721419555,18.414709110112458,18.355229523821553
19.283416512921196,329.86812043840376,19.02631118805915,10.758059513697106,25.95645508237484,18.391143937477565,18.353240960872036
19.25586914972095,332.54083202777787,19.11190862289758,10.748217142439835,26.153310615137546,18.361359742598037,18.354765918349653
19.225691844261828,335.01292254854405,19.195122669149438,10.740037981889461,26.33743544436862,18.325370874011014,18.359701005102586
19.192939843290013,337.28084688162363,19.275739919094143,10.733567141342107,26.508095775018305,18.283182558348987,18.367931854090127
19.157684402075137,339.3415868968361,19.353540523343586,10.72884222954937,26.664617424298054,18.23479259964417,18.379325784076155
19.120025193837606,341.1925891731356,19.42829663918597,10.725893881447082,26.80638290208784,18.18020648288229,18.393728308590784
19.080096564571807,342.83172576604363,19.499779349164324,10.724745391656327,26.93283206877687,18.1194632733323,18.410964906204914
19.038060760213558,344.2573046074191,19.56776629016281,10.725409872135627,27.043469869139184,18.052656017708546,18.43084437306754
18.99409683465751,345.46815436144794,19.63204174502501,10.727887345051483,27.137875737763572,17.97993586175319,18.453160047481994
18.948396629712988,346.4637663921454,19.692391670096605,10.732164825927239,27.21570616233874,17.901505310386707,18.477688759058672
18.9011679303462,347.2444220323342,19.74860321762077,10.738218994286841,27.276690883662774,17.817608643209446,18.504191620725308
18.852635271898652,347.81125043538725,19.800472412147318,10.746017825764126,27.320633389536823,17.72852202397584,18.53241999063615
18.803032022486487,348.16620599392,19.847812660287147,10.755518920965631,27.347421745792335,17.634544984565704,18.56212231712683
18.752587635549805,348.3119880956224,19.8904563356968,10.76666639931123,27.357039876665294,17.535995585451786,18.593044420763245
18.70151984853028,348.2519503684757,19.92825175769888,10.779390619057569,27.34956673527611,17.43321133944859,18.624924293915825
18.650037964858726,347.99001203264834,19.961063360844353,10.793612526353145,27.325164023405254,17.32655600623362,18.657490389789785
18.598352008206998,347.5305747860495,19.98877702864007,10.809248738194926,27.28406106519786,17.216426004587202,18.690468225206544
18.546676072074725,346.87852214959554,20.011303845907257,10.826212267542983,27.226544056769132,17.103247819285457,18.723589873410464
18.495222798191975,346.0393368100528,20.028576653619798,10.844408738829632,27.1529514548218,16.987466838696815,18.756597392200984
18.444198016191795,345.0192167696572,20.040542400185302,10.863731710364725,27.06367101505644,16.8695355887474,18.789238128947346
18.393802376753065,343.8250759824638,20.047157688319597,10.884060076714153,26.95913478820036,16.74990517994558,18.821259036512146
18.344234598136495,342.4644451609684,20.048392554468638,10.905257642388362,26.83981424381999,16.62901816098507,18.852408687818183
18.295688384498256,340.9453245180926,20.04423953492237,10.92717314399303,26.706219459045375,16.50730142278397,18.882446087225734
18.248344503204475,339.27600746880813,20.03471860596457,10.949640255005114,26.558901855973406,16.385159677767756,18.911145530323353
18.202365827654923,337.4648951737458,20.019873498112737,10.972479088819636,26.398454042238235,16.26297007552472,18.938291919939775
18.15789936743058,335.5203791398171,19.99976453315485,10.995500408711504,26.22550195167685,16.14107772242443,18.963673656357287
18.115080589943624,333.4509150808414,19.974464285483364,11.018510906425739,26.04069268480775,16.0197912286985,18.98708207446513
18.07403223129768,331.2652756620791,19.944055749482594,11.041315751659925,25.84468456729484,15.899377844317048,19.00831759424683
18.034857286087487,328.9727431552732,19.908629055479004,11.063716984358368,25.638141196427807,15.78005892290771,19.027195554344562
17.99763551031245,326.58305244913623,19.868276241267935,11.085510451263856,25.421725981648635,15.662007265258861,19.043545990830467
17.962431942440208,324.1061696426391,19.823086695206204,11.106484874647657,25.196095001416595,15.54534839135418,19.057208607911846
17.929312246603452,321.5520956302441,19.77314458648814,11.126424319825057,24.961891039026433,15.430166936198807,19.0680290576344
17.898350076580403,318.9307583194044,19.71852796985994,11.145112324382513,24.71974152459354,15.316517963760186,19.07585960568839
17.869621826722234,316.2519379553611,19.659308062472764,11.16233488383501,24.47025888628113,15.204441712580051,19.080559711893176
17.843200515415198,313.52520462937485,19.59554665298492,11.177880834084899,24.214040692073084,15.093976422006271,19.0819913888378
17.81916084387347,310.75991475920614,19.527292451501665,11.191540381092477,23.951669073032647,14.985162727761182,19.080011337161537
17.79759205677631,307.9652529078749,19.4545804472678,11.203104049406221,23.683710515145634,14.878039739356515,19.0744661570982
17.778604056978228,305.15023562697326,19.377436321443277,11.21236349094106,23.410718930507052,14.772638324259054,19.065194644232506
17.76231934855852,302.3236488656958,19.29588207610257,11.219113536354271,23.133246350101096,14.668975488883756,19.052034896149845
17.748857735323977,299.4939646662597,19.20993755348908,11.22315468957636,22.851859894175504,14.567050717071595,19.03482927273085
17.73832458294521,296.6692681620078,19.119618038411424,11.224296620226356,22.56715485760211,14.466844261116266,19.013424002335224
17.730805999943545,293.85717800459037,19.02493304695846,11.222363084293407,22.27975580694342,14.368316536745585,18.987669169037204
17.726365842291667,291.06477103419746,18.92589071638726,11.217196697725825,21.99030944110116,14.271407099231983,18.957427813671945
17.72503954331643,288.29858094166093,18.82250696161174,11.208661462062794,21.699480687936198,14.176033727068518,18.922592843354153
17.72682616936017,285.564692140799,18.71481307165661,11.196642853546312,21.40795768850257,14.082096508815244,18.88309793674269
17.73168272862607,282.8688829076769,18.6028567379992,11.181046853691441,21.116459691706478,13.989493675362056,18.838914110870974
17.739522092361124,280.21681443816226,18.48669863530299,11.161799877149866,20.82574440711277,13.898146734716557,18.79004083884213
17.750212328395165,277.61424594154226,18.366410834571987,11.138850634441173,20.53662011791619,13.808019184959472,18.736505033925418
17.763574546516647,275.06714920448184,18.242080517131683,11.112172031462691,20.249958522316383,13.719117556697705,18.678368878759514
17.779382469136404,272.5816746192038,18.113815899349323,11.08176047047381,19.96669307306309,13.631480133217938,18.615735218402317
17.79737403472701,270.1641299390698,17.981748144938926,11.047633290996433,19.687798497942076,13.545166066792298,18.548742701450685
17.817277260817367,267.82107308589883,17.846028045581942,11.00982810144808,19.41426173765713,13.460257844524005,18.47755625507997
17.838834709588397,265.55936510572104,17.706825098365155,10.968406350995206,19.147054735384216,13.376881879036953,18.40236295916534
17.86181107100872,263.3860726793406,17.564336379326306,10.923458240191012,18.887115153155293,13.295231685136283,18.323374671555587
17.885986817036187,261.3083467249927,17.418799558696588,10.875103188460162,18.635336332488915,13.215573579026632,18.24082971999302
17.911152640408744,259.3333727850027,17.27049723235509,10.823484196368272,18.392561058698714,13.138236834625244,18.154987945242908
17.937114781081288,257.4683395671681,17.119749697620612,10.76876108752189,18.159572869812987,13.063602209643566,18.066122541190445
17.963706288574343,255.72037738542386,16.966905413397342,10.711109431285069,17.937084054352535,12.992090895902692,17.974517389218708
17.990790720576502,254.0964369382247,16.812338224133722,10.65072599209532,17.725723099048004,12.924148535699647,17.880472555810584
18.01825456658386,252.60308146299548,16.656449703496875,10.587833826782811,17.526024272769273,12.860226263278959,17.784308743587545
18.045998166037858,251.24624976233287,16.499667465350473,10.522681010383785,17.33841975605762,12.800765857870015,17.686361569579947
18.07393529492399,250.03109318535957,16.342436242590306,10.455534690119991,17.163234211223582,12.746191349695117,17.586969104942636
18.102000092253956,248.9619294943011,16.185209142298138,10.386676275317711,17.0006855982852,12.696902657219198,17.486463598652648
18.13014968019071,248.0423000595913,16.028447564213582,10.316400862271893,16.850896720837337,12.653266942053383,17.385173253941254
18.15835629679126,247.2750810118321,15.872627482878206,10.245018609231876,16.713916897470643,12.615610845190416,17.28342810613423
18.186597358505,246.6625674714725,15.71824034969023,10.17285345269496,16.589753196162146,12.584222946913052,17.181559651186603
18.214854158412628,246.20650100447924,15.56578359350447,10.100237618347691,16.478408265258118,12.559368608996232,17.079893335473688
18.243117495720654,245.90811629932637,15.415750083396931,10.027505618271988,16.379909186706286,12.541303427845357,16.978743333387953
18.271389781479748,245.7682612528473,15.26862814916151,9.954993198339398,16.294314907546326,12.530274342304626,16.87841632193433
18.299679210350238,245.78749546434338,15.124910603211191,9.883041816098887,16.221707901690117,12.526519301680526,16.77921832716766
18.32799256438999,245.96605729716416,14.985099410897911,9.812003062283754,16.16217875723971,12.53027766724548,16.681454060143583
18.356335016802312,246.30373749419283,14.849698840187582,9.742238056452146,16.115807140358207,12.541801180153112,16.58541863459928
18.38471538194476,246.7997551282245,14.719204042627478,9.674112589371012,16.082642986533266,12.56135068036336,16.491391875801583
18.413146101193103,247.45268290467416,14.594095299797011,9.607992513868512,16.062690538504516,12.589180687911487,16.399642563814528
18.44163297438692,248.26042922294099,14.474841318261188,9.544241704525447,16.055894900631174,12.625523144566019,16.310437727406345
18.470162130411964,249.22022603586072,14.36190536939344,9.483219427850553,16.062130947834344,12.670577674558324,16.224045322834964
18.498694883037167,250.32854852157652,14.255743875484923,9.425273612017575,16.081195106775283,12.724507225816737,16.14072684964831
18.52717320382058,251.58098172157224,14.156795456065478,9.370731970014837,16.112799851238982,12.787431846344873,16.060728648663165
18.555527964362728,252.97211844303644,14.065470502614096,9.319895461983569,16.156571285106924,12.85941702694114,15.98428054077555
18.583681726107873,254.495538403442,13.982150718124906,9.273035828317157,16.212050880516387,12.94046084939562,15.911599809066244
18.611548667486613,256.1438771446599,13.907194909882227,9.23039501791597,16.278699733281726,13.03048519765348,15.842892026752986
18.63904017456764,257.9089804100496,13.840939497150892,9.192182944462214,16.35590192272182,13.129332419733695,15.778344966436821
18.666076447749234,259.7821122648098,13.783690369252394,9.158573671360791,16.442967320084637,13.236765910182474,15.718120906915122
18.69259386922004,261.7541556628653,13.735715018792597,9.129705419594481,16.539136437764228,13.352471807803894,15.662355638826014
18.718541319600963,263.8157735131967,13.69724372644685,9.105687784941582,16.643586959811053,13.476059771877786,15.61116432766824
18.743870780713117,265.95754681728795,13.668476374250378,9.086611076336371,16.755440543413634,13.607063089079531,15.564644760328518
18.76853115927369,268.17009893461017,13.64958373055747,9.072550598012159,16.87376994920659,13.744943745944548,15.522872048390663
18.792468240313504,270.44420725856963,13.640698668733995,9.063564978163242,16.99760667191842,13.889115769217558,15.485890128373775
18.815627213759957,272.7708794990915,13.641903689777445,9.059692117692483,17.12594960230226,14.038988943224785,15.45371003388857
18.8379525220862,275.1413225203248,13.653224495942885,9.06094721221772,17.257775127445885,14.194006464518527,15.426319441155934
18.859384310838614,277.54679712999865,13.674632461624695,9.067326176019277,17.39204666544568,14.353652454620882,15.40369639113248
18.879857863706388,279.97845757234194,13.706048283227524,9.078812481908265,17.527720917538577,14.517438232667601,15.385814810834066
18.899311988238196,282.4272558275564,13.747339268950372,9.0953812614894,17.663750704364077,14.684886785018872,15.37263891395871
18.917701034154653,284.88391765046293,13.798312898745037,9.116998124411678,17.799085825996407,14.855520786336902,15.364115674337299
18.93499854626909,287.33895997049336,13.85871361494502,9.143616133595865,17.932673291693185,15.028851859675692,15.36017481278423
18.951190893094868,289.78271464077994,13.928225764651575,9.175174455024944,18.063458841825057,15.204370803248848,15.360735610142715
18.96627215623066,292.2053390445572,14.006480905632836,9.211597600435022,18.190391306528902,15.38154112784283,15.365711329076088
18.9802473061909,294.59683145872714,14.093064548639942,9.252792611820873,18.31242924656151,15.559798037154977,15.375004844708043
18.993136657456358,296.94709140568347,14.187518862071023,9.298644501820595,18.428548698856883,15.738551247282421,15.388499358568112
19.00497301415225,299.24601932897156,14.289345343204694,9.349011868052429,18.537753743962305,15.917187017677222,15.406053141765284
19.015793565195786,301.48360387131095,14.398013023812107,9.403724114273171,18.639094345709704,16.09506901433576,15.427502022606818
19.02563480883559,303.64996726826047,14.5129685258469,9.46258074635863,18.731690475470025,16.271544619406434,15.452664523664248
19.034534507025846,305.7353894901232,14.633640316256514,9.525351195051092,18.814751692478183,16.445959679090585,15.481342731383362
19.042535143042453,307.7303970753781,14.759436974092338,9.591773759157379,18.88758394268935,16.617673541736647,15.5133202333336
19.04968055211169,309.62599931200816,14.889745925222874,9.661554841044595,18.949589389912855,16.786066226550773,15.548366659499457
19.056005686409577,311.4139765716666,15.023938041794516,9.734370645852078,19.00026955905922,16.9505390482259,15.586252154530651
19.06152773909016,313.0870304447437,15.161377122300735,9.80987239465327,19.039232127553777,17.110512332324117,15.626759954436665
19.066246542622626,314.63881073491046,15.30142793771666,9.887693269098373,19.06619438845617,17.265421077026236,15.669685542685185
19.07015254786099,316.06395637490533,15.443457843923822,9.967453294362304,19.080980045075854,17.414709978028032,15.71482784106025
19.073230976813193,317.35812616361335,15.586833950492169,10.048760992650388,19.083517287264154,17.557829937181676,15.76198624353772
19.075457778038093,318.5179533493171,15.730923914512713,10.131214701180523,19.07385706137779,17.69423776251098,15.810966944160306
19.0767989932537,319.5409857000118,15.875104306010629,10.214406327402862,19.052215747148786,17.823402155018318,15.861588613366616
19.077221187559996,320.4256433809832,16.01876933357093,10.297926778925095,19.019014055253614,17.944817846010785,15.913679312443003
19.07670205883752,321.1711196076249,16.161332269937702,10.381370109235545,18.97488564280718,18.058022068798206,15.967069964039837
19.07522989321132,321.77720483469227,16.302223607175716,10.464335607602989,18.92065870970162,18.162604496614307,16.021594742434864
19.0727955424051,322.2441361847596,16.440895380425182,10.546431839795277,18.857328355033538,18.258210688307642,16.077099000376936
19.0693871040453,322.57254017998224,16.576831666615572,10.627286680951032,18.786033038141696,18.34454500652172,16.133445346125214
19.06499299829802,322.76340358085275,16.7095549887973,10.706559345259652,18.70803582810841,18.42137476674384,16.19051091427897
19.059609269702015,322.8179931978702,16.838623560168077,10.783945417583052,18.62470389029844,18.48853458648944,16.24817843611049
19.053241129617003,322.737746364742,16.963626363837523,10.859172674444666,18.53748537934269,18.545928864215185,16.30633012444766
19.045895972218002,322.5242122632992,17.08418452733405,10.931994179269251,18.447888406958587,18.593528561345305,16.36485114388523
19.037575106295673,322.1790832297303,17.199958875622126,11.002185758979774,18.35746357545054,18.631361975543324,16.42363840498673
19.02827271654457,321.7042784964824,17.310655731976762,11.069549117912521,18.26778664399574,18.65950342741954,16.482603925948453
19.017983864553702,321.10203148992383,17.41602424826646,11.133915417354588,18.180437729232114,18.678062568251438,16.541669085944772
19.00671376654346,320.37495943096604,17.515849004551892,11.195144139767937,18.096975541882205,18.687176111207595,16.600755197183606
18.994478596113925,319.5260876991036,17.609951172202116,11.253118238349494,18.01890920941746,18.68700599226037,16.659777608049197
18.981297991505198,318.5588322958919,17.698203923092326,11.30774133220258,17.94767606716248,18.67774576074088,16.718645646875114
18.967189451607695,317.4770340191276,17.78054749764832,11.358941612641589,17.88463055255533,18.659628661146826,16.77726328357866
18.952171820360697,316.2850915856683,17.856987684546144,11.406679779987078,17.831037515051776,18.632928375353647,16.835525368347238
18.93627206244828,314.98805827033215,17.927581535170283,11.45095224421891,17.788061031937954,18.59795127628289,16.89331251002782
18.919524577762626,313.59158570897495,17.992425586644202,11.491786170681701,17.756748729955763,18.555025506253525,16.95049172569514
18.901962806954376,312.10179554433466,18.051653067960476,11.529232259007387,17.738016181961036,18.504491013442976,17.006923568681813
18.88361308964276,310.52518799002183,18.105432219138763,11.563360513997631,17.732635669619526,18.446692423667198,17.06246752598184
18.86449629881883,308.86858857428086,18.15395711635193,11.594257565222618,17.741235730024567,18.381976370733117,17.11697901203667
18.844631195503116,307.13909771348676,18.19743495117909,11.622021760546781,17.764313015389487,18.310692366434157,17.17030160172218
18.824031955980708,305.3440257609243,18.23608037132034,11.64675516401006,17.80224408469094,18.23319260553808,17.222262713271828
18.802700858673294,303.490795766214,18.270119055473298,11.668555602660078,17.85528579947402,18.149827508890887,17.27267532420722
18.78062258112996,301.58680175719803,18.29979075539125,11.687513637076318,17.923571396113566,18.06093867334927,17.321341086332417
18.757766025293986,299.639241979282,18.325343299553683,11.703715911749452,18.007114995375886,17.966852945839616,17.368049677099442
18.734094437776342,297.6549663307902,18.347021479222995,11.71724986432524,18.105823305983648,17.867880370798588,17.412574980939176
18.709576304786662,295.64036438798223,18.36506115856229,11.728203772012877,18.219505249086595,17.764316156960522,17.454674060810436
18.684187881462385,293.6012939857588,18.379691816982035,11.736662583822294,18.347879817504325,17.656443324663943,17.49409387028806
18.657908165621595,291.54304021732986,18.391140377420985,11.74270539911056,18.490587054441136,17.544532888246216,17.530582696486636
18.630716998545413,289.47029677396847,18.399629649652013,11.746408265010748,18.64719632853316,17.428844600247633,17.563897824923384
18.60260170706764,287.3871644302839,18.40537321716748,11.747848964781559,18.817204354886247,17.309637347623756,17.593805790819317
18.573563550529816,285.2971894868802,18.40857333738629,11.747107791964595,19.00002822537604,17.187191287947822,17.620079286082557
18.54361508020116,283.20348074393723,18.409424592743076,11.744263271265147,19.195004205821828,17.061827086035503,17.642496813023662
18.512772825443708,281.1088756673456,18.40811743375413,11.739388029259588,19.40139448313781,16.933908439544815,17.660847569559035
18.48105509121715,279.0160657795207,18.40483493666569,11.732552039967903,19.61839469956842,16.803832078526316,17.67493780890373
18.448486670805817,276.927649199116,18.399745167731687,11.723834402256456,19.845138034111777,16.672015792102304,17.68459273169412
18.415103288904735,274.8461463180422,18.392996878626466,11.7133342749281,20.080700146829656,16.538889758120504,17.68965306468799
18.38094977640406,272.77400227239826,18.38472220994601,11.701172239703673,20.324108489698435,16.40489299380593,17.689972637323862
18.34607328719979,270.7135755839126,18.37504223647243,11.68748542479139,20.574354425666897,16.270472396713227,17.685423714175325
18.310515836197567,268.66710528518246,18.36406783727391,11.672424639399187,20.830405333632083,16.136079151778773,17.675906924583657
18.27430953579892,266.6366630019761,18.351894171678435,11.656154804107643,21.091212760997994,16.002161946778497,17.661355267146593
18.23747589024384,264.624129574991,18.33859505973778,11.638853439363105,21.3557140155904,15.869160395602618,17.641729117799233
18.20002653080979,262.6312125448508,18.324223362981055,11.620704463037088,21.622829788582717,15.73750022888511,17.61701100002477
18.16196174130343,260.6594531899123,18.30881587065741,11.601891100011356,21.8914636533954,15.60758987420855,17.587209709167407
18.123269521179,258.7101764288776,18.292396242688216,11.582592519523907,22.16050763690067,15.479817420058666,17.55237210450806
18.08393215649843,256.7844012659014,18.274972133033167,11.562983707619967,22.428852435625767,15.354546733838413,17.51259088927722
18.043938670527137,254.88275585706074,18.256528447153272,11.543235136984606,22.695396687047573,15.232113510309842,17.46800175188795
18.003292095995377,253.00544117900378,18.23702260167889,11.52351065112683,22.95905168933405,15.112822567291856,17.41877561693289
17.962007232226313,251.15229609455196,18.216386138858997,11.503964742051679,23.21874438804243,14.996944873378494,17.365114446212708
17.92010783793719,249.32296670124123,18.194530447724862,11.484742769199183,23.473424882497312,14.884713351415543,17.30725132582675
17.877631117666002,247.51707360481691,18.17135048243176,11.465986419963077,23.722078862199716,14.776319547800782,17.24544900000683
17.834633866746053,245.73426298062665,18.146724502732656,11.44783982712568,23.963738437496342,14.67191218613415,17.179993062517884
17.791190496247268,243.97415291789446,18.120514523436974,11.430449335237357,24.197488077099777,14.571596510931897,17.11118277154093
17.747384039155218,242.236278952584,18.09257196135895,11.413956725956442,24.42246954634649,14.475433787412538,17.03932615598439
17.703299969797847,240.52010051219213,18.062745275764918,11.398492369467755,24.637889846250193,14.383441522309989,16.964741803936498
17.659029326391558,238.82503700818904,18.030883154182455,11.384174535779994,24.843030479859564,14.295596614614714,16.88776104031456
17.614677328017994,237.15049923428305,17.996832931200558,11.371114293558934,25.03725312460388,14.211843319154111,16.808723724474
17.57036736633548,235.49592057830722,17.9604386749871,11.3594189270308,25.219999645311542,14.132104487431937,16.727969571785163
17.526236117574552,233.86077991981244,17.92154189196723,11.349189343480964,25.390787162755874,14.056293949676682,16.645833139306113
17.48242621282897,232.2446155236458,17.879985449869796,11.340514655595499,25.549198311969285,13.984328666934179,16.562647162274743
17.43908501998663,230.6470565781487,17.835619116261782,11.333468624637813,25.69486824880875,13.916137088782753,16.478748301877097
17.396369911035215,229.06787901251406,17.78830306832986,11.328107699105711,25.827472319344004,13.851660731723326,16.39447621184534
17.354451805132623,227.50705896551878,17.737908056724166,11.324467699748462,25.94671704537037,13.790849505080029,16.310167828851664
17.31351004441971,225.96478658823068,17.68431594534633,11.322558262325824,26.052334239425704,13.733653091848735,16.22615773642903
17.273720542743078,224.44142652846426,17.62742419756481,11.322356661702992,26.144076828113114,13.680011837225859,16.142787660988716
17.235245692247823,222.93745055185704,17.567151867203,11.32380371504631,26.221715603104666,13.629850252508561,16.06041415640036
17.198232525380938,221.45337812640432,17.5034412777809,11.326804475378008,26.28503733177433,13.58307400691375,15.979404487988013
17.16281670864944,219.98975128261327,17.436254237724764,11.331233676600387,26.333845774877435,13.539569707099,15.90012469183549
17.129124596785164,218.54713891234067,17.365568314317443,11.336942018194616,26.367966413535424,13.499206167049898,15.822931463829878
17.097271099132048,217.1261485618083,17.291377269317092,11.34376034720477,26.387252760170306,13.461836352864138,15.748172456135391
17.067359993008296,215.7274928907434,17.213692431637224,11.351503566252399,26.391592482205855,13.427299864757963,15.676187331330931
17.03949110623739,214.35215214252506,17.132540461931942,11.359977520517463,26.380913647655788,13.395425967482451,15.60730182867269
17.013767018279903,213.0015097425105,17.047957927475945,11.368988208876033,26.35518930387985,13.366038924829228,15.541818535115956
16.99029030573343,211.677330620217,16.95998701678878,11.378348807932948,26.31443922367944,13.338966346764797,15.480013670317126
16.969155010271777,210.38164692076364,16.86867942924032,11.387881671394581,26.258732515965526,13.31404605608503,15.422141693402928
16.95044518869669,209.1166653455888,16.774111049952015,11.397417273203178,26.188192202359538,13.291129315719706,15.368438910598996
16.93424576939525,207.88469444635004,16.6763966056914,11.406794192940348,26.102996254566655,13.270084265505435,15.319118765355553
16.92065431500191,206.68804853643928,16.57569262571713,11.415861980060068,26.00337228477883,13.25080040003802,15.274364228686093
16.909780028021938,205.528948062944,16.472193190535993,11.424484144528675,25.889590753871264,13.23319095214171,15.234329486642245
16.901732344634024,204.4094872122594,16.36612929742602,11.432537127159538,25.7619623232905,13.217191334429579,15.199152858899618
16.896613682205828,203.33167795484195,16.25777195097697,11.439906134830425,25.620840483812906,13.20275396298323,15.168967693265607
16.894523422221383,202.2974679368176,16.14743087411971,11.446484172673014,25.466627443072934,13.189843858173566,15.143900579986752
16.895562865358027,201.30867494388792,16.035445147313087,11.452177488351182,25.29977898563528,13.178441170506334,15.124061820445867
16.899829512799258,200.366921221816,15.922171173457956,11.456911809188586,25.120803735853656,13.16854929380911,15.109539771705379
16.907404904038753,199.47363393623948,15.807976629060096,11.460632464141392,24.93025644210847,13.160199378273129,15.100403885532824
16.918348661271107,198.630056265283,15.693242900039895,11.463298412265857,24.728728873856742,13.153445429427109,15.096709657784817
16.93270273250911,197.8371937266447,15.57836868087733,11.46487491319322,24.516841990050466,13.148352731950936,15.09849598822667
16.950496992944963,197.0957061024757,15.463766300850065,11.465330766282815,24.295240724214946,13.144985349963353,15.105775460137524
16.971747065863386,196.40581801109613,15.349852013081975,11.464643115380248,24.06458973413786,13.143396209856641,15.118527027592245
16.9964466587077,195.76728707910186,15.237039359068053,11.462804407870788,23.825567536016507,13.14362002011684,15.136698412466448
17.0245638396791,195.17939825993142,15.125741101286241,11.459823255689626,23.5788587117069,13.145667298479406,15.160214789738264
17.056044819797574,194.64094654896311,15.016374304139038,11.455719339923142,23.32514600782344,13.149519977443804,15.188983132726058
17.090817860243348,194.15021164803377,14.909359205566645,11.450520030954026,23.06510395643785,13.15513382205173,15.222888898297894
17.1287899237882,193.70494770628187,14.80511031153925,11.444262926687658,22.799394243967626,13.162449505073901,15.261794125102499
17.169838709574915,193.3024140798702,14.7040262988812,11.43699977824599,22.5286620393662,13.171403797376081,15.305544055260254
17.21380800277556,192.9394807878651,14.606485486659992,11.428795910709733,22.253532760156645,13.18193253539537,15.353975740633585
17.260511675252513,192.61280816665123,14.512846613210721,11.419725555034786,21.97460884685147,13.193966556999246,15.406918245681132
17.309744035700756,192.31902489093423,14.423447841235989,11.409867975517242,21.692465251990125,13.207426175988028,15.464185325586694
17.36128721771449,192.05483460325084,14.338599873672155,11.399308368008434,21.407643158528582,13.222221074328582,15.525571050616545
17.41491021911975,191.81706780585807,14.258578326645143,11.388142489492031,21.120644278431428,13.238261398458494,15.590854708074627
17.470365094167338,191.602740765107,14.183623777442648,11.376479766920442,20.83192981223195,13.255476039831665,15.65980941949117
17.52738741590947,191.40916457854345,14.113950940638748,11.364441705706735,20.541925422839224,13.273826142169986,15.732204444465332
17.58569956685437,191.23406508677098,14.049758645444822,11.352157690968786,20.251027936527365,13.293308343451514,15.807799731464293
17.64501156727236,191.07561339840143,13.991231629151885,11.339762241593533,19.959609964359053,13.313951436620277,15.886341837908901
17.705018281224785,190.9323578572659,13.93853440493549,11.327394976507597,19.6680255962537,13.335808899985862,15.967570267740754
17.7653955068495,190.8031449237285,13.891804873929896,11.31520061739091,19.37662093244677,13.358946808097086,16.051231399712393
17.825799322568013,190.68706557244099,13.85115314095733,11.303326572793232,19.085746199557093,13.38342912127447,16.13708726131917
17.88587125199307,190.58339914570104,13.816663130275776,11.291920883286739,18.795763370899305,13.409305837694635,16.22491289161674
17.94524432651682,190.49154634766367,13.788391199289956,11.281135904002634,18.507046702248434,13.43661886532735,16.314490794696464
18.00354357177129,190.410992634212,13.766361132947123,11.271136725170013,18.21997893413829,13.465448506674553,16.405614622488788
18.060384533175053,190.34132689354146,13.75056198967086,11.26210665256048,17.934950630187284,13.495993545330272,16.498101534904528
18.115380677650258,190.282248092226,13.740953760546741,11.254245152777285,17.652366118325382,13.528631684285433,16.591799487722696
18.168162526321446,190.23349514240888,13.737475947242286,11.247760741786895,17.37264818066989,13.563922036569426,16.68658155927036
18.218397215281318,190.19475459331318,13.74005053731009,11.24286472735228,17.096234558024467,13.602566415329534,16.78233614069698
18.265795847054015,190.16561800623836,13.748577935893266,11.239771160937167,16.823572942003757,13.645393673736095,16.878964606722004
18.310107734702058,190.1455802180586,13.762931442515038,11.238702790405064,16.555122909303574,13.693471894266558,16.976384444752778
18.35111038616258,190.1340801910022,13.782957303059298,11.239895825316546,16.291360470756914,13.748361520314576,17.074526616134655
18.38860537763723,190.1306062661733,13.808481372344678,11.243597123427397,16.03277596658202,13.812329546572396,17.173323374052494
18.422421933745103,190.13480357309052,13.839314309389533,11.250055083529244,15.77986368597439,13.888383154347746,17.272694064555377
18.452419403059256,190.1465059753196,13.875249006209566,11.259509747911117,15.53310786795419,13.980185690075073,17.372538488633438
18.47848348512085,190.16570943722567,13.916054863285204,11.272184736015575,15.29296977678873,14.091939495902233,17.472741181567528
18.50052295452145,190.1925361834021,13.961476936021292,11.288279876948991,15.059877918064661,14.228242732140203,17.573179943765023
18.518472921374347,190.22720726750845,14.011241135956718,11.307963884080596,14.83422168318332,14.393927576203138,17.67372809044145
18.532300501043583,190.2700233189827,14.06505957159612,11.331368845192427,14.616348332876814,14.593897967781075,17.774248162568668
18.542005278778404,190.32133311949212,14.122630111912791,11.358589438755642,14.406561973277867,14.832975955760304,17.874585433876057
18.547612373072123,190.38147433575793,14.183630999076252,11.38968767947406,14.205124610529417,15.11576418837554,17.974570598116458
18.549161724416027,190.4507258877577,14.247717777688218,11.424698872363894,14.012263647464717,15.44653165137542,18.074030328794002
18.546698001841616,190.52930211694544,14.314528162602821,11.463633733639968,13.82818546976087,15.829129658990434,18.172794340147075
18.540262951997825,190.6173342633379,14.383691706042779,11.506477639862123,13.653084829752412,16.266942021937705,18.27069310945867
18.529889749556556,190.71479910234302,14.454836462653857,11.553191362490642,13.487143184555405,16.76285865148586,18.367553847144045
18.515598824069,190.8214561332372,14.527588905324654,11.603713974611132,13.330522380737795,17.319254663146523,18.463203512871008
18.49739769077301,190.9368534893106,14.601569976191097,11.6579639826589,13.183366707497063,17.93797030341907,18.5574753701506
18.475289753217695,191.06037626348063,14.676394844094261,11.715836035536096,13.045818648076224,18.6202954919682,18.650208837783644
18.449290681124435,191.19129466907893,14.751680179552656,11.777196007657093,12.918036578576844,19.366960136154734,18.741240492637683
18.419441053092346,191.32879971054024,14.827051898330739,11.841879751523503,12.800199627055035,20.178138264981552,18.830393575673423
18.385807170040582,191.47202028637864,14.90214679254836,11.90969747668125,12.692501386147976,21.053482061883074,18.917473934571934
18.348476097464903,191.6200271004037,14.976612667260206,11.980439562311108,12.59514259499902,21.992193894076358,19.002274164032702
18.307557161478265,191.77183747901628,15.050111589364715,12.053878591485224,12.508325793253977,22.993134212249835,19.08457964975074
18.263192311005962,191.92642824887656,15.122322233669088,12.129767481330415,12.432249495451968,24.054956740031635,19.164169715537522
18.215564690191982,192.08275423491853,15.192937521757463,12.207836793039085,12.367099900573836,25.17623814327748,19.240816261603406
18.164896340783145,192.23976052304153,15.261659544248277,12.287794839928257,12.31304073654572,26.355553170957776,19.3142877093296
18.11143743137377,192.3963812146529,15.328195881489552,12.369332549017596,12.270203669869568,27.59149245130838,19.384359522157656
18.05545359946833,192.55152033952461,15.392260523977146,12.45212970924769,12.238680182593352,28.88268797689316,19.450823275581282
17.997214933290998,192.7040075427994,15.453578672308616,12.53585766234101,12.21851563709193,30.227906483656234,19.51348706524419
17.936987423567405,192.85253561810808,15.511890151790501,12.620178253471552,12.209707168257292,31.626192061785492,19.572169238936738
17.875026444921144,192.99560879969343,15.566948113822946,12.70474437547194,12.212203292864627,33.076987573470504,19.62669342583633
17.811572419718015,193.13152960951243,15.618516755647697,12.789210760581,12.225902132427702,34.58018048411106,19.676891351086233
17.7468515968175,193.25841419341566,15.66637464203466,12.873255522986895,12.250651430361886,36.1360504564507,19.722611548175777
17.681084786237943,193.37419723042842,15.710323346680575,12.956597079856852,12.286254011409433,37.745151036804344,19.763723921094407
17.614499718059417,193.4766129882139,15.75019241484864,13.038994647155125,12.332473572828196,39.40821118550976,19.800115274464634
17.547338268299594,193.56317721923511,15.785834853313144,13.120239890551561,12.38903473205106,41.1260953757911,19.831682687432483
17.479857444609106,193.63119060618655,15.817119151540753,13.200150821805199,12.455622088012193,42.89979978636625,19.858331741292922
17.412329429330352,193.67774941649452,15.843929165030705,13.278568294137461,12.53188598815289,44.7305025379017,19.879977791384224
17.34504244742269,193.69973664717168,15.86617500910991,13.35535155178175,12.61745249023219,46.619663982016796,19.896544689882695
17.278304425925985,193.69380160072566,15.883804327445251,13.430372263327124,12.71192983570048,48.5690700357826,19.907959961368704
17.212451670512994,193.65637251024108,15.896802799666586,13.503508231186535,12.814909146922622,50.5807844512791,19.914152588221018
17.147853987707624,193.58373138959573,15.905186632912297,13.574638710231717,12.92596191711848,52.65710202072129,19.91506149767581
17.084912157445782,193.47213270811622,15.908997007902343,13.6436424830916,13.044637128013404,54.80052570864966,19.910653164882902
17.024070402245343,193.31792004335958,15.908299577789474,13.710396332853037,13.170459643230224,57.013717169082064,19.90093426605257
16.965858525059918,193.11759955271532,15.903184147883552,13.774770764805199,13.302929713724991,59.29943014301825,19.885949466494992
16.910931251191695,192.8678651169915,15.893760421492207,13.836624929235713,13.441521684331477,61.660492378904,19.865770191544982
16.860072870755488,192.56560684893176,15.880151266026004,13.895806960164602,13.585681171672222,64.09987226390689,19.840486093574405
16.81419427467248,192.20793384983637,15.862489068358279,13.952161184714857,13.734823669239187,66.62076780958712,19.81020413143854
16.774368985769918,191.7922224547862,15.84092021252982,14.00553486726534,13.88833886371099,69.22659459591786,19.775051287024127
16.74190093144295,191.31618169621274,15.815614461155027,14.055778097323616,14.045600262257416,71.92082727294418,19.735174086542553
16.718375964798,190.77791435840717,15.786768799686971,14.102739038404454,14.205973473172705,74.70677881567387,19.690733198235446
16.705677412427708,190.17594758015483,15.75460178459047,14.146260090750012,14.368818399958036,77.58745054425455,19.641898557312075
16.705982249123878,189.5092094129499,15.719345627471464,14.18617786307559,14.53348767974621,80.56551500658594,19.58885027323849
16.721751514760772,188.77696419891868,15.681243318811799,14.222326405206084,14.699327804657354,83.64334400960955,19.531781922487088
16.755713733009614,187.97877572122198,15.640549760275436,14.254540349908135,14.865691378736111,86.82295484996565,19.47089880599735
16.810834767171645,187.11455946486743,15.597531117703117,14.28265455057519,15.031960967089182,90.10588517327047,19.40641143392128
16.89026658719552,186.18470021761038,15.55246000488194,14.306501012204118,15.197568838316572,93.49308478317974,19.338533206514413
16.997267341233716,185.19014376953183,15.505609906344516,14.325908285064507,15.361999028723131,96.984858821854,19.267489535821277
17.13509646540002,184.13239347240858,15.457253128702915,14.340706277558091,15.524777480815072,100.5808859167307,19.193532733473045
17.306904550552126,183.01342182224465,15.407662741559891,14.350732707264704,15.685464242966354,104.28033799213354,19.11694816764372
17.51563549562466,181.83555623566136,15.357114749508026,14.355836579149615,15.843653429668713,108.08201696590365,19.038047317393197
17.7639462137972,180.6013834149997,15.305885932721138,14.355879714600007,15.998975842727939,111.9843558872221,18.95715834005864
18.054160557440884,179.3136820305203,15.254247909153506,14.350739906345778,16.15109828044305,115.98525935944748,18.8746238158334
18.388306232926872,177.9753723988032,15.202464034648965,14.340316146844563,16.299722028337136,120.08189386192653,18.7908024649911
18.768251720224445,176.5894679758673,15.150793273940158,14.32453300307534,16.44458528802569,124.27056718092605,18.70606470476265
19.19586701923196,175.15902062298562,15.099496435035766,14.303342029452766,16.585465771445058,128.54683820090216,18.620779441949814
19.673141117673474,173.68705920791894,15.048837438595868,14.276720985427332,16.7221763145339,132.90585694597993,18.53530057049479
20.202288545277003,172.17653747760355,14.99907833190619,14.244672470109817,16.85455471140744,137.34269761394896,18.449962135606356
20.78586878190705,170.630327644907,14.950473744573385,14.207223841878127,16.982455495510376,141.85251986067107,18.36508161204099
21.426856329589924,169.05127547863395,14.903270669121044,14.164430058193437,17.105746291836873,146.43062848276634,18.280962575653312
22.128607436671498,167.44227771790764,14.857711504354679,14.116377599926704,17.224303359039503,151.07246601405606,18.197890607816127
22.894734612565866,165.8063287747757,14.814033203034427,14.063185385462225,17.338003573925047,155.77351511309638,18.116125788948484
23.728925126768512,164.14652466567225,14.772462438203304,14.005002633285667,17.44671921589143,160.529196337546,18.035901222166153
24.634758057050924,162.46605555886939,14.733215727981927,13.942007890857129,17.550322183035213,165.33482215287268,17.957432883464406
25.615611740292678,160.76821329811338,14.696508069839272,13.874410349276204,17.64869380855544,170.18553271628588,17.880932995256046
26.674730041311857,159.05639222454613,14.662559690706866,13.802449440869426,17.741730271713294,175.07615133441152,17.80661357520196
27.815370533042724,157.33407140511179,14.63159083409233,13.72639016012349,17.829341060615505,180.00101043302746,17.734678644969833
29.040853388269532,155.60483915094477,14.603808491680375,13.646516296081984,17.911445847013148,184.95384590045296,17.665315309348244
30.354466229186254,153.87248502031423,14.579396278396107,13.563125706690984,17.98797269019198,189.9278729438128,17.59869044434572
31.75938560346539,152.14106186998524,14.558513837763902,13.476530025607241,18.058856679915106,194.91615841500817,17.53495000517296
33.25871755876683,150.4148483799263,14.541302021457183,13.387056475940366,18.124038150159176,199.91217625603196,17.474215491896
34.85555129345713,148.698273090349,14.527884578478792,13.29504701019427,18.18346003544299,204.91014349586806,17.41657763811582
36.552950846123686,146.99587840830281,14.518362374897697,13.200853630525192,18.237064444797426,209.9049516790624,17.362093253965554
38.35396898844431,145.31233188340704,14.512805159969735,13.10483281731266,18.284791645361523,214.89199136968145,17.310790417074926
40.261720857372836,143.65243258506896,14.511249086447553,13.007341477157391,18.326589160386085,219.86713948428778,17.262678650312562
42.2794360831927,142.0210603412526,14.513702116525538,12.908734053802455,18.362433691464656,224.82679654031628,17.217754746722438
44.41040774512903,140.42308530133286,14.520150108362499,12.80935927508667,18.39235685591952,229.767807639697,17.176001159553927
46.65783541810716,138.86331026959644,14.530556738490288,12.709556382884598,18.416464039540674,234.68729007496324,17.137383782160175
49.02465690718442,137.34648111722686,14.544859636992609,12.609653170855525,18.43494030527073,239.58243087514998,17.101857678230264
51.51345546477546,135.87732476462975,14.562969891712829,12.509968914656323,18.448043103604363,244.45034367508333,17.06938096626267
54.12642071552875,134.46056990209098,14.584777318324019,12.410821101151228,18.45609007640065,249.28811404520337,17.03992616997823
56.865297376780305,133.10094094753407,14.610156170087873,12.312529168501278,18.45944895501048,254.0929703593742,17.013479939756895
59.73128236352386,131.80310890919793,14.638965303681196,12.215410444411946,18.458527522345232,258.86234206491656,16.990035166749372
62.724892108518816,130.5715861198623,14.671044380226531,12.11977194444514,18.453761584201693,263.59373832594537,16.969585819600958
65.84589698671181,129.4105887734442,14.706214639733311,12.025905298151894,18.4456027045759,268.28456977223976,16.952127746655005
69.09336493195362,128.3239058087354,14.74428883252854,11.93408662289444,18.434505394517867,272.93198631974235,16.937658778153324
72.46571599852177,127.31480550525332,14.785082097373092,11.844576380704677,18.420912442402027,277.5327721023681,16.926171890052174
75.96069244818818,126.38601619441856,14.828413268195604,11.757614762076754,18.40524034260771,282.08335135237616,16.91764459260681
79.57526445509188,125.53981138516376,14.87409821339311,11.673414190147463,18.387867923584658,286.57986921066555,16.912032754453055
83.30555382145407,124.77815791041455,14.92194478853175,11.592154367102824,18.369129579184712,291.01825060185706,16.909272376938908
87.14683123262533,124.10282394932244,14.971755167211343,11.513983300407935,18.34931322738274,295.3942061152928,16.90928419233883
91.09357003959228,123.5154014015016,15.02333199824888,11.439021727709248,18.3286613921448,299.7032687803228,16.91197373472502
95.13951836589082,123.01727263555182,15.076480001584386,11.367365114831829,18.307372284098104,303.94093582252407,16.917226787011575
99.27779277034305,122.60953904306245,15.131000164353734,11.299081493371169,18.28560009050036,308.1028387366871,16.924906169909075
103.50100876714927,122.29292708247284,15.186681669790005,11.234208944945188,18.26345763537294,312.1848248220343,16.934852961839958
107.80145340656883,122.06773913791562,15.243297692627914,11.17275693176814,18.24102462142345,316.18290789652923,16.946889176605133
112.17128427984939,121.93389405290912,15.300605806284686,11.114711853151132,18.218360040713826,320.0930976571649,16.960817955653837
116.60267505107615,121.89100202409286,15.358348654907832,11.0600428605999,18.195513046448003,323.9111904791609,16.976421621874184
121.08781944943303,121.9384109745129,15.416251879967504,11.008703465819274,18.172528591901823,327.63264997569036,16.993462385965614
125.61883972988633,122.075255855269,15.47402163471081,10.960629162142757,18.149449647476324,331.25263264562636,17.011690379011423
130.1877832511657,122.30054983622783,15.531348473724591,10.915736051688585,18.126318615790794,334.76607931727756,17.030856458520454
134.78680821125903,122.61325507801224,15.587924254872705,10.873924942096592,18.103179012879412,338.16774875517143,17.050720296322993
139.4084250172485,123.01225790655081,15.6434674709677,10.835089309697771,18.08008166347165,341.4521795062096,17.071049056845503
144.04560415000762,123.49627163329458,15.697740233113004,10.799121005764137,18.057097569467025,344.6136521277076,17.09161302399277
148.69170863290128,124.06373803037391,15.750547811495846,10.76591104457017,18.034327844505047,347.6461848679559,17.112187485030056
153.34032951294208,124.71278013844706,15.801730408841545,10.735348803333078,18.01190183333095,350.543563216256,17.132562396805223
157.98512139885918,125.44122755368836,15.85116089380936,10.707323734450165,17.98996761634765,353.2994019487196,17.152551588715575
162.61971039244523,126.24670481504945,15.898749438879271,10.681729505241979,17.968681045810442,355.9072039351404,17.171993012009203
167.23777446035956,127.12675397782202,15.944445281053206,10.65846638732873,17.948194307611104,358.36037125883604,17.19074206499264
171.8333478748705,128.07892155707452,15.988230108169285,10.637438786069223,17.928644976564797,360.65218074386286,17.208668443771355
176.40115236670687,129.10073812937424,16.030108757527852,10.618549794071397,17.910149336222275,362.7757768010398,17.225661330395
180.9366754649544,130.1896144353954,16.07010517316534,10.601697208253398,17.89280608399781,364.7242128350177,17.241634777956847
185.43598649425644,131.34273665200092,16.10826297700242,10.586772310644736,17.876710352442167,366.4905304674212,17.256524338925747
189.89549715554838,132.55700407565908,16.14464314070743,10.573658230274576,17.86196547240482,368.06785107131924,17.270277671430925
194.31181907158464,133.82901066280755,16.17931579466799,10.562225840406457,17.84868156830581,369.4494944798578,17.282848511420468
198.68173899531595,135.15506624819307,16.21235185538522,10.552331391025985,17.836965044295315,370.62914787053853,17.2941982333347
203.00224539802198,136.53124829690773,16.24382033774023,10.543823470873313,17.82691057003363,371.60101898396357,17.304299373454963
207.27049400409732,137.953447981791,16.273789813842754,10.536558958785466,17.818600942813415,372.35989270818067,17.313133508078753
211.483667682576,139.41737081855595,16.302327814512346,10.530416002444897,17.812109192030817,372.9011113432797,17.320684555539152
215.63883117454932,140.918504091139,16.329495449682742,10.525296738225602,17.807496391523486,373.22054238438227,17.32693617862514
219.73288970616883,142.45211136739923,16.355341208080688,10.521125897648893,17.80480764237642,373.31457465329345,17.33188002526845
223.7626269953274,144.01329187627425,16.379899761413842,10.517852014190588,17.804070439273083,373.18015810846356,17.335530626223733
227.72473447569482,145.5970594979536,16.403196242312763,10.515450839974362,17.805293404336748,372.8148697518249,17.337934196933332
231.6157896942438,147.19836327435357,16.42524977941581,10.513926954717345,17.80846252102919,372.2169796163653,17.339164961250376
235.43220263134165,148.81205591602227,16.446070685379624,10.513310047628927,17.813537044838963,371.38551837163925,17.339315791937718
239.17021274820345,150.43290318838,16.46565306869715,10.513646754121883,17.820449991230227,370.3203570008564,17.338493832328787
242.82599313836275,152.0556745799939,16.48397022554352,10.514993457142634,17.829116034603594,369.0222879226171,17.336823219113683
246.39576106432528,153.67524447487108,16.50097741662073,10.517415540215719,17.839444522297995,367.49309263674655,17.33444689498064
249.87576373686707,155.28664780079188,16.51661793656895,10.520992310448268,17.85135034519644,365.73557139134374,17.331522340897802
253.26215626895166,156.88511421428038,16.530825552072013,10.525819536740164,17.864756362616127,363.7534867941716,17.328216731973644
256.5508716247362,158.46610418427855,16.543522323717937,10.532004694211537,17.87958847884471,361.5514279690938,17.32470751196166
259.737576906028,160.025333611958,16.5546151545513,10.539660113325391,17.895769547967554,359.1347103255469,17.32118532959917
262.81776912828906,161.55876407573982,16.563993956132492,10.548901298215135,17.913215957325956,356.50942172256515,17.317852465036037
265.7869425620461,163.0625645869152,16.571532140582057,10.559849618660117,17.93183687446448,353.6825599038747,17.31491487590987
268.64069616612255,164.53308011999587,16.57708726823238,10.572631742014542,17.95153460955938,350.6620933830919,17.31257173899056
271.37476533317863,165.96680758722943,16.580499671193223,10.587371665505014,17.972203321317135,347.456901593028,17.311008819987695
273.98504800976406,167.36034667139268,16.581591508648113,10.604179692718072,17.993725189689762,344.0766945645015,17.31039874735732
276.4676235599072,168.710331645886,16.580172717899153,10.623144944349388,18.01596812752226,340.5319875986101,17.310902319747647
278.8187305322575,170.013386957597,16.576055621408425,10.6443333425632,18.038787382014654,336.8341559043843,17.31266292456935
281.0347402251027,171.26612864888557,16.569069709039148,10.667787954235532,18.062026512104655,332.99553104511233,17.31579544874524
283.112192390874,172.46520349673688,16.559067895579034,10.693527756070255,18.08551461072317,329.02940158038723,17.32037768858663
285.04792926159735,173.6073445766213,16.54592582696029,10.721543940746342,18.109062702272915,324.9498357155313,17.326449134299825
286.83929200469703,174.68941144117431,16.529541870116358,10.751795666606583,18.132462267733917,320.7714321135986,17.334014886931477
288.48424515149424,175.7083946013842,16.509842920468298,10.784207225624144,18.155488135320873,316.50916688216853,17.34304831634798
289.9813366625894,176.66139138082997,16.48679374252815,10.818667272780196,18.177906534037053,312.1783640996985,17.353488890222327
291.3295934260973,177.54556771139957,16.460401542736534,10.855029659511807,18.199482362790636,307.79467302125533,17.36523871303528
292.52851662749265,178.35812806985362,16.430711516506197,10.893114793059192,18.219981234450206,303.3739671760395,17.378164887123617
293.5781753665745,179.09633469820915,16.397799670375115,10.932711309180188,18.23917372574844,298.93218875507233,17.39210960326568
294.4792564352095,179.7576007802447,16.361771229323875,10.973579908801563,18.25684798702534,294.48519507090583,17.406900841204237
295.23302269237126,180.33962171801934,16.322763054086963,11.015460285209102,18.272821898580016,290.0486205268884,17.422355683025607
295.8412565804172,180.84048016278845,16.28094166903067,11.05807818126055,18.28694541027236,285.6377477445766,17.438277017262788
296.3061997173773,181.25869401956052,16.236494593086455,11.101149474787272,18.299098048492002,281.2674587043635,17.454451971266398
296.63043291659716,181.59320627631752,16.189622423417088,11.14438246501968,18.309189400535708,276.9523131227983,17.470658440432835
296.81672035956876,181.8433380150712,16.1405393690961,11.187482324932727,18.317160367604256,272.7066138708834,17.486676366903495
296.8679134760322,182.00875548589323,16.089479835239622,11.230159963580721,18.322979442823286,268.5443196189899,17.502294577092574
296.78695836544955,182.08948657455727,16.036701267564638,11.272142167695717,18.326634157389826,264.47886482197526,17.517310081828974
296.5769500996615,182.08597680576415,15.982478715514686,11.313176914247155,18.328122915243146,260.5229994297318,17.531526652365862
296.24117105475887,181.9991431540542,15.92709635959439,11.353031927798325,18.32745120702531,256.68867978260573,17.544759193635148
295.78311148178886,181.83037668425544,15.870844136424978,11.391490718221513,18.324630918385722,252.9870408600887,17.556839923216593
295.20646884105764,181.58148662589156,15.814021543284106,11.428351228488243,18.319679598596768,249.42849202954733,17.56761791613123
294.51511585889284,181.2546287230444,15.756941795200259,11.463427307437932,18.312618486771473,246.02286131588164,17.576951744705703
293.7130807249497,180.85225627855942,15.699929534038057,11.496548934228755,18.303469150846325,242.7794378853058,17.584702433588898
292.804577492081,180.37709428543798,15.643314372971506,11.5275588398752,18.29225189798899,239.70690558643713,17.590733300256023
291.79403490527324,179.83210841355756,15.587426417047672,11.556307733182832,18.27899012752991,236.81328922895725,17.594918128406594
290.6860513526733,179.22044254687785,15.532593867535095,11.582652263281096,18.263716744641528,234.10593681939355,17.59715192817931
289.4852821921028,178.545335839526,15.479137484766625,11.606456877816067,18.246478339641953,231.59145730101167,17.597356016037843
288.19632206403827,177.8100615838681,15.427359874282311,11.627597472374825,18.227346113769528,229.2756217262495,17.59547685451745
286.823653802213,177.01791408563773,15.377533455281547,11.645968054280885,18.206439119875178,227.16332174917255,17.5914854808984
285.37170214513395,176.172235777594,15.329892193443415,11.661493115259152,18.183944893130768,225.2585932899827,17.585379973464025
