HandOpen,HandClose,Wrist Flexion,Wrist Extension,Supination,Pronation,Rest
67.4380313566203,21.708381840163085,210.99679865985954,142.7837730784695,42.78353261846081,48.14370557555606,17.763960568002638
66.68992452638877,21.635039977991198,212.16135069676997,142.2330080901333,42.82958447433284,46.54241069793431,17.739074093162674
65.98010191314555,21.572729947710435,213.25331769088493,141.6815202790701,42.870301074997414,45.00093551343226,17.715138369685047
65.31342081689621,21.521706481028268,214.2725588986402,141.12976487857384,42.90561446400167,43.51975226256428,17.692350340226515
64.69464910541637,21.482189093635974,215.21931983985567,140.57822681803316,42.93546616296707,42.0991714822202,17.670893793443707
64.12847187710345,21.45438207817751,216.09433825789398,140.02742072084527,42.95983202589196,40.73932802867931,17.650935911862835
63.6194387687808,21.43850417285246,216.8989142984125,139.47785261691322,42.978734703025125,39.44017473716492,17.632618563815303
63.17188344517205,21.434801326690668,217.63486554864943,138.93000197955428,42.99225032081577,38.20148542341496,17.616050221888905
62.78984214534532,21.44353686252521,218.30443488991116,138.38433732509924,43.00051039759737,37.02286791303184,17.601303171665176
62.47696680957699,21.464973888768498,218.91024801331736,137.8413471320935,43.00369205942184,35.90378124422901,17.588414176532165
62.23643935849086,21.49936007294997,219.4553377207297,137.30157345161152,43.00199734287377,34.843546901040064,17.57738338612835
62.070902189405544,21.546913124663117,219.94315299195185,136.7656252287702,42.99563679182618,33.84135321063775,17.56816984115332
61.98241428211469,21.60780293770028,220.37747774646894,136.23415523407914,42.98482523090144,32.89626152586177,17.560688524249716
61.97245845716702,21.682133123727937,220.762320874093,135.70781291479616,42.96977793252098,32.00721848807465,17.55481608575486
62.0420272968361,21.769932998280733,221.10186251249044,135.18718748953566,42.95069620647318,31.17307112582996,17.550404538848497
62.19176536893089,21.87116602538041,221.40040273797317,134.67275281079463,42.927750449286414,30.392579507607003,17.547293393278323
62.42209393924374,21.98574375390017,221.66223626825862,134.16482830611136,42.90108392374888,29.66442781638463,17.545314495984595
62.73325082003995,22.113529823524132,221.89149611302466,133.66355647258865,42.870850193901596,28.987241341297494,17.544293148738113
63.125247924113495,22.254333136977117,222.09203253448317,133.1688901434559,42.83725987080986,28.359606718549795,17.544052271831976
63.59780687389197,22.407902659821296,222.26732616498055,132.68059615413765,42.800597633842635,27.78008085080799,17.54442331826733
64.15031237836212,22.573932912559084,222.4204410058511,132.1982795755117,42.76120309233987,27.24718533917579,17.545258977095905
64.78178061330149,22.75207571592635,222.55404568410643,131.7214113582322,42.719440142353974,26.759401167833307,17.54643748011028
65.49083417552514,22.941947676235095,222.67046262363417,131.24935680562263,42.67567842574805,26.31517540281262,17.547857519301004
66.27570629834436,23.14312815086576,222.7716716056406,130.7814365586865,42.63029147529527,25.912933445886356,17.549434643349446
67.1343285929864,23.355152916612347,222.8592736535034,130.3170248558556,42.58365793346354,25.551083070489394,17.551105812713622
68.06448951161435,23.577513303082398,222.93448405963545,129.8556333563798,42.53615467991827,25.228010109513303,17.55283468868581
69.06395487005031,23.8096601354005,222.99820370785503,129.3969349749485,42.488146579941265,24.9420815457001,17.554607788412447
70.13051861662737,24.051003606630125,223.05115629342083,128.9407288270878,42.439978260469104,24.691665202909988,17.55642309583204
71.26205883426618,24.30090948913374,223.09403288732074,128.48688306386774,42.39196363745412,24.475151163246878,17.558280153491744
72.45660072860136,24.558701294438865,223.1275888691631,128.03532179600583,42.344370164841166,24.290954462160638,17.560175871078393
73.7123276076351,24.82367137845256,223.1526535858164,127.58609715875778,42.29740194413605,24.137499764734983,17.562102371063318
75.02756355279637,25.09509189694717,223.17004225430622,127.13948554763705,42.251186873527466,24.013203692822845,17.564042346091814
76.4007877057016,25.372215745866043,223.180431633901,126.69601400612818,42.20577214238687,23.91646657075079,17.56596329353231
77.83065431153635,25.654272745504237,223.18428687681617,126.25642314773218,42.16113279530994,23.845674100732605,17.567816505476614
79.31595343790404,25.940479797109283,223.18184779357597,125.82163728417254,42.11719129332683,23.799200002821784,17.569543225845475
80.85552560836598,26.230068121442514,223.17310631142078,125.39276873574171,42.07383452383948,23.775404721501904,17.57108195692948
82.44819242699168,26.522302845500125,223.15773765356735,124.9711418392837,42.030916285446764,23.77263805091077,17.572369404892655
84.09271060199534,26.816478254139636,223.13502718361113,124.55831104242003,41.98824724240217,23.789251066388616,17.573335546085364
85.78770497273676,27.111903146636607,223.10385452124603,124.15603886310421,41.945581660051396,23.823608856762785,17.573899274370138
87.53156277641054,27.40789842652987,223.06275902608078,123.76621911818664,41.90260778313601,23.874096412288274,17.57396935446377
89.32232353590913,27.703812040987465,223.0100514595454,123.39078776677258,41.85894469754271,23.939120615130115,17.573449432848886
91.15760583599462,27.999035895549397,222.94388910964994,123.03170022566376,41.81414490552818,24.017112159103956,17.572241001433405
93.03457608233578,28.29300727107944,222.86227467204043,122.69098567739141,41.767700259076996,24.106528355339627,17.570240449144947
94.94993454870054,28.58519794997243,222.7630316490271,122.37078372490986,41.71905278367655,24.205857044125572,17.567334466511333
96.89990464861599,28.875106352875193,222.64380830788852,122.07329658558936,41.66762196515944,24.313622715500507,17.5634020555585
98.88023653428235,29.16225673446769,222.50209111655056,121.80069036747066,41.61285734433698,24.428402186893642,17.558323802660816
100.88623587336788,29.446197110966448,222.3351983756423,121.55499210158156,41.55429510416339,24.54885185264616,17.551988929752564
102.9128100882671,29.726488743114572,222.14027640737578,121.33799767103761,41.49158447127062,24.673728419010448,17.544294311335786
104.95451472456777,30.00269055089103,221.91434953572795,121.15121495106065,41.4244879525255,24.80188696918311,17.535141416626367
107.00559646202802,30.27435066264155,221.65446409960728,120.99587686503236,41.352888658557795,24.93226334385476,17.524439328400632
109.06004632907272,30.54101182428698,221.35790049600283,120.87301053464007,41.27681127017049,25.063854146616404,17.51211374503197
111.11166637938531,30.80222169022185,221.02234137195651,120.78349683898456,41.19643438305994,25.195698802270233,17.49811432695614
113.1541362150677,31.057536645251403,220.64592569674974,120.72808435501584,41.11208404797656,25.326864285971013,17.4824143105289
115.18106940304858,31.30652381236591,220.2272440657155,120.7073780874653,41.02421380099691,25.456433807858346,17.4650040659744
117.18605977558002,31.54877116496555,219.7653647584932,120.72182525881418,40.93337603621034,25.583501525281573,17.44588630905694
119.16272288747246,31.78389987429894,219.259904800898,120.77169651380665,40.8401946837664,25.707174464480815,17.425080585560067
121.10473643672829,32.011565386187634,218.71106457729758,120.85706008974824,40.74534813829039,25.826577882257947,17.402634816525282
123.00588313668338,32.23144520482622,218.11956689156742,120.97775469853808,40.64955427471863,25.940857269482315,17.378631942495925
124.86010055318056,32.44322213738303,217.48655444287675,121.13336154268981,40.553547619552575,26.049175297010514,17.353186451852245
126.66152205338373,32.64657119077938,216.8135033223601,121.3231784402614,40.458056302857194,26.150710396934826,17.326439309494425
128.4044830497908,32.8411510699775,216.10213084974964,121.5462112114575,40.363788155350626,26.24466782566094,17.298559351005615
130.08349739859574,33.02659691972757,215.35427226878093,121.80118953005075,40.27142058549906,26.33030654224395,17.269747047324717
131.6932340593353,33.20251466933029,214.5717457226877,122.08659128707006,40.18158709590052,26.406969146253985,17.240231295180966
133.2285217144747,33.3684832073512,213.75623687823864,122.4006571380028,40.09486132102856,26.47409774319649,17.210257014639872
134.6843869256602,33.52407108385736,212.90922721960553,122.74140643472921,40.01174072448369,26.53123159985401,17.180070178243433
136.05609886650657,33.66886575142726,212.03197097121185,123.10667975497381,39.93263538188611,26.57799463920061,17.149909800284327
137.33918911898877,33.802500199017246,211.12549299450762,123.49419993331213,39.85787134361052,26.614081297338775,17.120010349047067
138.5294434357267,33.924661387490154,210.1905812057595,123.90161332920158,39.78770645135443,26.639243679455333,17.090606660194197
139.62288929848341,34.03508229262177,209.22777342983184,124.32648868122348,39.722342017282024,26.653279828665326,17.061932129560184
140.61581206333804,34.1335342197178,208.23734131814044,124.76628656056312,39.6619210870267,26.65602375908147,17.034211716150953
141.50480560477587,34.21983217766444,207.21927193425594,125.21833565257887,39.60652260856346,26.647338709747366,17.00765665513277
142.28681869004714,34.29384807476615,206.17325758975178,125.67984520430208,39.55616244498055,26.627117462720985,16.982461749697176
142.9591681680679,34.355516883043244,205.09872842430383,126.14794375914295,39.51080029012131,26.595297603678237,16.9588003591086
143.5195443992923,34.404837031168654,203.99498755655338,126.61971232709996,39.47034808838285,26.551889879145577,16.936815718262558
143.96603791375236,34.44187995940444,202.86144026737102,127.09221205182065,39.43467674084282,26.49699906055651,16.916614860572828
144.29716667210414,34.46680676728328,201.6977858071126,127.5625351866838,39.40361660281641,26.430822110923444,16.898271035031424
144.51187323693316,34.47987373908366,200.50407208571278,128.02788387086778,39.37695173760128,26.353631550591665,16.881830607835752
144.60950536831209,34.48142141281146,199.28066134226097,128.4856468893849,39.35441289144046,26.265758462672252,16.86731526969861
144.58980680335162,34.47185979225266,198.0281982911918,128.93344028794039,39.33567097413359,26.1675822076007,16.854717555966253
144.45290927884156,34.451659930871024,196.74760652816477,129.36909731626906,39.32032952521254,26.05952614234347,16.84399616546375
144.19930737346056,34.42134808046305,195.4400966321556,129.79063006004523,39.30791806816823,25.942052167235516,16.835078952185327
143.82982175925812,34.38149370673097,194.10718709988006,130.1962029391676,39.297891689491145,25.81564948743637,16.82787581401385
143.34556242639655,34.332690892678855,192.7507459409812,130.58413050205178,39.28963919402579,25.68082111332047,16.822293085839572
142.74789687940438,34.27554180994965,191.37301517139645,130.95288769768393,39.28249563970579,25.53807211337275,16.818237944356774
142.03842555732146,34.21064932118577,189.9765601830014,131.3011238212129,39.27575127060258,25.387899627602494,16.815612960641722
141.21895997553528,34.138614981223064,188.5641460893606,131.62766609364874,39.268658513566265,25.23078367998826,16.814312464338226
140.2914993387137,34.060034829771205,187.13860240491138,131.93149225892927,39.26045574917186,25.067178542959468,16.814228855290743
139.25821356828874,33.97549412052237,185.7027221520463,132.2116736905411,39.250414945769954,24.897510678087226,16.815263134294874
138.12144615683093,33.88556587071739,184.25919433404644,132.46732045808338,39.237884891800924,24.72220023237271,16.81732812359282
136.8837393013561,33.790809164342065,182.81055254744572,132.69756662795416,39.222302795759525,24.541710020541604,16.82034213500372
135.547865821528,33.691760107752984,181.35913695084037,132.90160425730755,39.20318493502791,24.356590812040363,16.824220774088907
134.11684638713197,33.588918177738186,179.9070824191231,133.07873173253637,39.18011885409699,24.167494107660712,16.828874144452453
132.59394897404437,33.482735575792,178.45634668665366,133.22839690239695,39.15275745100506,23.975161265763546,16.834209465912082
130.98269162057326,33.373612647904515,177.00877288803392,133.35024656517828,39.120804642533855,23.78040692898314,16.840133197668326
129.28685829334725,33.26189932743368,175.5661540420688,133.4441577298395,39.08399342984859,23.584099066494797,16.846548392981617
127.5105047407513,33.147899074315404,174.1302716714611,133.51021666945488,39.04206612833481,23.38713475969112,16.8533494364894
125.65793873869328,33.03186805438496,172.70291281684476,133.54867732670073,38.9947662002008,23.19041436995193,16.860420574539333
123.73369644279217,32.914008192864685,171.28586874920921,133.55995216773493,38.9418459427124,22.994816299168882,16.86764245542064
121.7425442867751,32.794462446347026,169.8808974317534,133.5446324829613,38.88308535693987,22.80117524748538,16.874902118910914
119.68950398624789,32.67331961100103,168.48964918219454,133.50348816071417,38.818310308091284,22.610267653920705,16.882097091269852
117.57986557873711,32.550625801006284,167.113594816994,133.4374166697149,38.74739999612889,22.422803967538933,16.889131341019596
115.41916791911383,32.426393901420965,165.7540171985985,133.3473694940844,38.670288090280906,22.239424777626716,16.89590980629353
113.21316737804581,32.30060595736918,164.41208472027768,133.23431176438336,38.58697039357656,22.060704675702908,16.902337407694986
110.96781515540825,32.17321182311392,163.0889403080401,133.09922834523078,38.4975166850223,21.887169844722735,16.90832039034679
108.68922967645915,32.04413578557934,161.78574229325923,132.94312856305433,38.40207092375702,21.719320602855806,16.913763996668838
106.38364799370547,31.913298269725168,160.50366978717335,132.76701301014663,38.30083631971988,21.557642561867052,16.91856543379006
104.0573677247249,31.780639181348874,159.2439162203026,132.57182609305946,38.1940596232649,21.402603546140533,16.922607473713573
101.71669295245682,31.646123740272067,158.0076591785535,132.3584368224018,38.08202515674857,21.254643407960724,16.925759203817854
99.36787743410028,31.50973213567637,156.796001374984,132.12765726761967,37.9650502218946,21.11416107865093,16.92788397362168
97.01706615938905,31.371449416202037,155.6099034975745,131.88027602715445,37.84347124556549,20.98150138010691,16.928846181100166
94.6702629983191,31.231264412830907,154.45012554382484,131.61709902001846,37.71762610551114,20.85694462533776,16.92851117575225
92.33333878911778,31.089171177821335,153.31718132041144,131.3390044029009,37.58784163103241,20.74070414972912,16.926742936166328
90.01204455194222,30.945163514821683,152.21131529709726,131.04698138611843,37.45442528357981,20.63294097298422,16.9234076964191
87.71198791312172,30.79922613820917,151.13250799854058,130.74212135371067,37.31765919233226,20.533795195357765,16.918384801594506
85.43857902008033,30.651337735217346,150.08051419755367,130.42558441843406,37.17779962182474,20.44341397918934,16.91157622020976
83.19698132675184,30.50149140832084,149.05495922640932,130.0985768690272,37.03508401486892,20.361957674486035,16.902906513520282
80.99208364183215,30.34971484042006,148.05548462393074,129.76234620818406,36.889745861695616,20.28958621035201,16.89231702784904
78.82847980956231,30.196071695510618,147.08184814619023,129.4181790372787,36.74203568212657,20.226437600269325,16.879764666117545
76.71044087007576,30.040648858731995,146.13393410486006,129.06738158519323,36.59224212148043,20.172606772982615,16.865227516845202
74.6418859180875,29.883545722154956,145.21177706952932,128.71124662447247,36.440706883782,20.128128201481214,16.848709053601723
72.62636356947148,29.72487316614212,144.3156601333257,128.35104150945952,36.28783063829619,20.0929647110076,16.83023416293388
70.66704182182836,29.56475707075591,143.44618057510408,127.98803475404564,36.1340682576977,20.067005801398818,16.80983977091335
68.76669774474122,29.403336100875077,142.60419949340925,127.6235287546756,35.979916845437636,20.05007465485822,16.787568120478245
66.92770477761788,29.240751726885446,141.79075347857602,127.25885610554013,35.82590682334414,20.041935682715707,16.763467740601207
65.1520229326209,29.077140472722984,141.00701283124846,126.89532980457955,35.672599135146186,20.04229621905174,16.737598230659685
63.44120824477853,28.912637324808053,140.25425014074315,126.53416482056998,35.520580799958125,20.050804289504647,16.71003047911663
61.7964666409041,28.747385476165164,139.53376639637642,126.17639468395042,35.37045562473997,20.067047217914695,16.68084110839032
60.218748503233954,28.581539545259783,138.8467978770081,125.82279908247813,35.22283230548118,20.09055332249406,16.650109067203246
58.708829576818935,28.41525811489439,138.19445260846143,125.47384998160229,35.078307465942316,20.120796183354326,16.617920798761435
57.26733362866093,28.24869485314362,137.577719936006,125.12968606861253,34.93744363939312,20.1571992507522,16.584379730670133
55.89471361102851,28.081996892341405,136.99756792643706,124.79012629458101,34.80075002916796,20.19913869459317,16.549610164913847
54.591231762449,27.915306589540236,136.45504985725736,124.45471340897564,34.668669573227774,20.24594457268178,16.513752575336635
53.356955043402806,27.748758028828888,135.95131979454698,124.12275376447994,34.54156913756331,20.296904878649876,16.476956556780127
52.191759399198894,27.5824683524729,135.48755875663525,123.79332996890695,34.419732776293884,20.351281414824555,16.439378871573524
51.09533386524472,27.41653316315519,135.064869872255,123.46530051003283,34.30335918119148,20.408338468879982,16.401187435697306
50.06718111470404,27.251032929769675,134.68418370349454,123.13731964473291,34.19256024272619,20.467369807390018,16.36256491728244
49.10661255874318,27.086044209000832,134.3461916940868,122.80789906007988,34.08736212096247,20.52771581858355,16.323706786628964
48.21273670598891,26.921642819916663,134.05129571973197,122.47549921171814,33.987717908922285,20.588778101062207,16.28481593386486
47.38444474281842,26.757897143895622,133.7995631660807,122.13860708313302,33.89353258264587,20.65003030754403,16.24609916732249
46.620404222860884,26.59486337241571,133.59071554596505,121.79576861127126,33.80468702272272,20.711016204884565,16.207766514225604
45.9190682683382,26.432591778852018,133.42416576082317,121.44558529577574,33.72105017950638,20.771339715226226,16.17002834146775
45.278691968591495,26.271137545154303,133.2990591245733,121.08670979884656,33.642478922123885,20.83065950637416,16.13308654432102
44.69734228605992,26.110563055849884,133.2142757416699,120.71786165175479,33.56880961528589,20.888699255546122,16.097122272278092
44.172905437445785,25.950931011040787,133.1684108239559,120.33784567555482,33.49984759079413,20.94528588391179,16.062286479471254
43.703111815973564,25.792302077864296,133.15976193655817,119.94555140824497,33.43536095068858,21.00040670153563,16.028700014743766
43.285581905186255,25.63474481236114,133.1863273794077,119.5399387676761,33.37507874221734,21.054247611879017,15.996463145743697
42.91786593701796,25.47834673984445,133.24582165855202,119.12002435976645,33.318688996308694,21.107193825997765,15.965663558820003
42.597455540843214,25.323213567687755,133.33570866857022,118.68489318379267,33.26583755889604,21.159808527678713,15.936374994777552
42.321777469360704,25.16945883769713,133.45322581713611,118.23374936608856,33.21613509377659,21.212801286485472,15.908654504804835
42.08818920061862,25.0171958289681,133.5953870067429,117.76597445864668,33.169179747729274,21.26699078119916,15.882550012955928
41.89398442847887,24.866541993580505,133.75898531894606,117.28117878669173,33.12459370311779,21.32327178607825,15.858114940283837
41.73640478471636,24.717633662410226,133.9406005163053,116.77926342554424,33.082055907085504,21.38258840687824,15.835415865620673
41.61264805625903,24.570634355319907,134.1365992128844,116.26046059330963,33.04131466111099,21.445906846705327,15.814528121033995
41.51986825941036,24.42572739728857,134.343140951471,115.72530579892727,33.00218266818544,21.514188616406503,15.795528509121016
41.45517449416983,24.283103814531046,134.55621807525685,115.17456257688316,32.964522390935464,21.588368746702567,15.778494864192549
41.41563723298347,24.142958488465368,134.77172971499107,114.60914791863641,32.92822480024142,21.669335211759858,15.763510116860452
41.398300848288514,24.005492425745505,134.98555603279996,114.03007539183429,32.893186199763775,21.757904714688564,15.75066088122628
41.4001946485988,23.870910351033295,135.19359594347156,113.4384142578111,32.859287416458294,21.854797469474637,15.740028205077401
41.41833965188723,23.739409503786014,135.39176991501193,112.83527541209921,32.826376132493486,21.960615479975896,15.731678589509167
41.449756486125054,23.61116781827574,135.57603674762186,112.22183020706599,32.794253903244844,22.07582592429939,15.7256617631387
41.491481494904846,23.486344140678163,135.74246869787842,111.59933197056742,32.76267311368444,22.200750753394882,15.722013075600755
41.54059300469259,23.365091252976,135.88735870181944,110.96910698570363,32.73134757869146,22.33556399059649,15.720754216240367
41.59424412988367,23.247565980744973,136.00728235627486,110.33251597943314,32.6999708924808,22.48029551452988,15.7218889115997
41.64969561911721,23.13392481435954,136.0990888299216,109.69090216589395,32.668232279243284,22.634838592498593,15.725396380989093
41.7043415069927,23.024312786083453,136.15987562003133,109.0455412693452,32.63582580604622,22.79896157067254,15.731230009675443
41.755728395912215,22.918859499068006,136.1869934958496,108.39762535253938,32.60245456254771,22.97232288719089,15.73932533999939
41.80157819723572,22.81768323739558,136.1780671838625,107.74832017308054,32.567832691787984,23.154482430521096,15.749610128673021
41.83981251418891,22.720891314198205,136.13100196137663,107.09887633433185,32.531685496662405,23.344904690263768,15.762006309348745
41.8685633153827,22.62857017504,136.04397478784065,106.45070272695314,32.49374594521305,23.542958661130246,15.776425322680824
41.8861677512915,22.54077396816321,135.9154322769275,105.80534551044741,32.4537492528378,23.747922265596312,15.792765982215105
41.89115972124994,22.457523739380516,135.7441089746373,105.16440505878053,32.41142911710415,23.958992271592287,15.81091757778131
41.882262584873715,22.37881683209453,135.52904269778873,104.52944276570636,32.36651930944159,24.175295929526126,15.830762473804805
41.85837738095989,22.30463377585451,135.26955147798927,103.90189855650426,32.31876422433523,24.395906349881557,15.852173523351961
41.8185648840201,22.234936926750315,134.96517488145048,103.28302248674443,32.26793451835444,24.619863865400067,15.875008937752922
41.76202797544637,22.16967419414988,134.61562150759147,102.6738224745719,32.21383834701153,24.846193846164024,15.89911250242826
41.688102600297015,22.108800804031823,134.22075834074747,102.07503272554275,32.15632485036998,25.073914047611403,15.924323857174246
41.59625660010101,22.052307390704193,133.78064310961523,101.48710353564528,32.09528107873293,25.30203820730739,15.950492347412654
41.486085275411504,22.000231317553148,133.2955846151547,100.91020075915893,32.030623045278695,25.529579676089277,15.977483112652912
41.35729856659434,21.952646741708,132.7662076130918,100.34420210884352,31.96228401738776,25.755555597437795,16.005173334504665
41.20970991793565,21.909648291916696,132.1934763152908,99.78869450762409,31.890204407632236,25.979005302848552,16.0334461982166
41.0432352862628,21.871342926433403,131.57865313267402,99.24298905879841,31.814326669717016,26.199031225990538,16.062190268340682
40.85789453063655,21.837850484952135,130.92323122306874,98.70615735657111,31.73459586308042,26.414838610794945,16.0913046452604
40.65380338575321,21.809301015401353,130.22888069931219,98.17706834528352,31.650960099078247,26.625745560518737,16.120702241684498
40.43115928913934,21.785822052665544,129.49741294437865,97.65440533697671,31.563367095501317,26.831166310068355,16.15030576980826
40.19023711647166,21.76752414674792,128.7307769221467,97.13666773989463,31.471765067486054,27.030587760851997,16.18004136403858
39.93140043871799,21.754495654935212,127.93109823317207,96.62217516573911,31.376113777178,27.223550226995325,16.20983864442912
39.65511309585986,21.746805474689197,127.10072257513443,96.10908653460534,31.27639446229878,27.409631797228254,16.239637657531564
39.36193703244157,21.744502882830766,126.24222365655505,95.5954471670353,31.172608771031754,27.588435235897638,16.269392768313214
39.052520194870965,21.747610295065172,125.35838892304002,95.07927810395826,31.064776710619928,27.759588421841226,16.29906721303052
38.727585765021196,21.756117847630247,124.45221605607327,94.55869567580137,30.952944230791402,27.922775985090034,16.32862526461837
38.38792893659664,21.76998866322747,123.52691959890367,94.03203800422959,30.83719106056655,28.07779388928906,16.358031794932614
38.034416959158236,21.78916951911296,122.5859251911214,93.49801404927338,30.717625579825423,28.224585505382905,16.38725842292189
37.66798159033025,21.813593972240252,121.63284543587835,92.95586664367373,30.59437038866104,28.36323335271687,16.416286934625763
37.28960065075528,21.84317563220014,120.67143111273805,92.40546276663595,30.467551085419792,28.493922375671904,16.445104450010295
36.90027648518515,21.877803011846204,119.70548511398415,91.84728233168872,30.337295574373236,28.616901112856386,16.473694103020755
36.50101912881834,21.917345260567902,118.73875636752501,91.28238334176866,30.203745897241276,28.73245530737735,16.502029813389314
36.09283560338233,21.96166304304078,117.77484536595966,90.7123717868717,30.067076937541124,28.840895617430178,16.530080052313846
35.67672221031925,22.010611792502612,116.81713685260893,90.1393264168774,29.927506412903874,28.94254822299277,16.55781523255923
35.25365573026136,22.06403490181298,115.86877397407595,89.56568865124365,29.785286560245215,29.037737925424842,16.585209395638277
34.824584145145096,22.12175655779622,114.93267471151641,88.99422092709163,29.64068477484651,29.12676582658344,16.612235317689763
34.390423495348976,22.183581612570624,114.01155907927965,88.42807434431961,29.493964221233984,29.209887880220585,16.63886056203494
33.95206291244998,22.249297842800768,113.10797117342076,87.87084448787141,29.34536950396617,29.287297701307274,16.665050879296672
33.51036878343578,22.31867242787773,112.22430575599574,87.32649683081698,29.195118227271205,29.35911647607592,16.690778327318696
33.06618094848263,22.391444211026414,111.362836615075,86.79919675039199,29.043395099163735,29.42539217826508,16.71602442853808
32.62030746945293,22.46732163202047,110.52575940919327,86.29314772904517,28.890345542298302,29.486107561349435,16.74077447479245
32.17353037298783,22.54599091833273,109.71527529662202,85.81251470338694,28.736071493174855,29.54119416366723,16.765010527902742
31.726626600677708,22.627126039133746,108.93370417149346,85.36144707815922,28.580632086083703,29.590547107432776,16.788710930971853
31.2803939224672,22.71038952298336,108.18358144540007,84.9441248041033,28.42404578596778,29.634033697024854,16.811853928786974
30.83566683783383,22.795425019691155,107.46767417096912,84.5647415337,28.26628992179361,29.67149319038952,16.834417945903756
30.39331812007308,22.881851821781748,106.78888747308663,84.22742838445468,28.10729923841105,29.702736182742537,16.856376562415008
29.954251375661453,22.969267352592688,106.15011925570535,83.93616863448166,27.946967379788997,29.727561459716384,16.877692915309044
29.519391471775677,23.05725236226578,105.5541542131145,83.69472870885352,27.78515227827825,29.74579603022747,16.898319971794272
29.089675629651705,23.145371238852857,105.00365107486402,83.50660590868625,27.621683328085346,29.757333165355146,16.918208309859917
28.666042320670634,23.233168906813678,104.50119572207834,83.37498394907027,27.4563670839456,29.762142885148226,16.937314205222965
28.24941933434574,23.320172482735146,104.04931891554558,83.3026864998405,27.288989253179658,29.7602659193721,16.955599562746425
27.840717035474935,23.405902508494922,103.65042072042516,83.29212448376565,27.119314338663884,29.751812622062776,16.973024513779592
27.440823378770833,23.489888442365547,103.30664641562115,83.34523967601999,26.947088144473458,29.736962486954255,16.98954174626503
27.05059230621339,23.571677206287305,103.01977555140859,83.46345278502724,26.772046531236683,29.715951495819755,17.005099400000653
26.67082802978913,23.65083171928413,102.79114365293242,83.64761957609218,26.593926431265622,29.68904996986253,17.019648741395486
26.302276132047577,23.726929545190238,102.62159548418482,83.8979915113889,26.412472837282664,29.656539388164774,17.033147478774566
25.94562596294154,23.799570459541957,102.51146930068955,84.21418085993803,26.22744170754546,29.618691605184104,17.045556884638135
25.60151587263201,23.868386416300254,102.46061056141735,84.59513753467925,26.038603547726503,29.57575311258122,17.056840411225398
25.27053053196107,23.933041772387433,102.46840709935583,85.0391527600397,25.845749236510578,29.527938461111965,17.0669696397135
24.953193627617633,23.993224322728025,102.53383313079398,85.54390941891641,25.64869445364625,29.47543306631796,17.07593176819854
24.649973594837643,24.048638869796385,102.65548633719001,86.10658249248245,25.44728084129941,29.418399183273586,17.083729136388044
24.361310604856293,24.099009742418282,102.8316074216783,86.72395186528006,25.24137703164878,29.356979374689057,17.090370756231263
24.0876459258455,24.144085964681434,103.0600874738083,87.39247161410472,25.030882503306113,29.291298025956355,17.095862744043288
23.829430595514378,24.18363995567072,103.3384713784897,88.10829042714596,24.815733920447762,29.22146328785831,17.100202770248256
23.587115657348377,24.2174593386409,103.66395744362787,88.86727934538152,24.595910641216943,29.147567996958543,17.103379522614453
23.361141705808258,24.245339227944868,104.03339496423578,89.6650969664601,24.371435751347388,29.06968719062279,17.10537452248477
23.151933854142293,24.267082494639382,104.44328443103237,90.49725073604777,24.142373787437233,28.987878727913394,17.106162319442124
22.959892676063212,24.2825074904152,104.88978121826683,91.3591200365915,23.90882886730225,28.90220012230298,17.10570801605122
22.78537511922231,24.291453323022637,105.36870500735016,92.24596465398616,23.67094219370565,28.812738434444807,17.10396592011817
22.628672742279456,24.29377626105413,105.87556156351762,93.15294936062988,23.42888566443655,28.719629405130586,17.100883352018645
22.489997816106587,24.289343830397787,106.40557337328727,94.07518299590652,23.182852653115088,28.62305197629692,17.096406570901944
22.36948035324354,24.278036200432233,106.95370461160965,95.00774782275735,22.93304986707199,28.5232080527867,17.090481560730492
22.267170525521266,24.259754167133124,107.51467516799859,95.94570306347093,22.679693458698555,28.420303412085303,17.083049529160473
22.1830384691241,24.23442478318855,108.08297207922097,96.88407471486828,22.423010420200647,28.31454084772868,17.07404576165401
22.11696851841985,24.201999397354243,108.6528672592161,97.81785044353187,22.163242214898148,28.206126393547923,17.063406928994905
22.06875070829611,24.162447817074902,109.21844500735506,98.74198453667002,21.900645406801555,28.095275136542863,17.051080155613775
22.0380734142609,24.11575697888895,109.77363855756163,99.65141353878602,21.63548804422656,27.982205203361243,17.03702455588843
22.02451892669869,24.06193885729549,110.31227149021068,100.54108044637714,21.368046546353757,27.8671259838203,17.02120604512377
22.027561622693135,24.001041415590127,110.82809871371606,101.40595607307138,21.09860723218084,27.75023350622058,17.003594736768854
22.046567879686087,23.93315138345399,111.31484523813627,102.24104845888407,20.827469151802198,27.63171539411016,16.984169908514268
22.08079971321568,23.858388378961656,111.76624724791444,103.04140458865241,20.554942083701043,27.511755704900555,16.96292631002102
22.12942653183302,23.776901781815717,112.17610326370989,103.80211778374623,20.28133978731546,27.390532003019693,16.939873721593322
22.191543160430083,23.688876099120723,112.53833839925476,104.51835372828741,20.006973954764533,27.268207638894356,16.915030591973174
22.26618383240635,23.59453594904153,112.8470726234399,105.18539221285405,19.732154380445333,27.144923919641307,16.888419717646133
22.35232759650867,23.494141119526635,113.09668112686956,105.79866401892697,19.457198926602906,27.020791811433256,16.860072022464863
22.44890483749453,23.387975466815462,113.28185501438362,106.3537739115465,19.182450060556874,26.895882357541826,16.830034704148176
22.554815642403565,23.276341374350807,113.39767693286886,106.84652492138991,18.90828585562695,26.770218971290937,16.798374251604482
22.668954867819853,23.159563421033965,113.43969422535065,107.27295245865848,18.635116879904707,26.643778353862366,16.765172357043678
22.790227381921028,23.037991207539303,113.40395965317812,107.62935348807058,18.363373194410826,26.5165029535596,16.730523798913417
22.917547330201646,22.911992202404303,113.28703985281568,107.91230241458055,18.0934899698935,26.388317516273787,16.694545426812
23.04983253030431,22.781939654194264,113.08601062350803,108.1186825364254,17.825896135000754,26.2591401726633,16.65739171299029
23.186006942390076,22.648208180396,112.79845485191878,108.24577685358491,17.561006772354396,26.1288857658823,16.619261257519526
23.325012698750914,22.511181369295322,112.42247739403642,108.29140283117592,17.29921843480834,25.99746441989018,16.580387751679734
23.46582243150569,22.371260767029494,111.95673972800323,108.25400382552746,17.0409115312537,25.86478004974112,16.541025546572133
23.607443374405406,22.228863616769534,111.40049500591682,108.13264500516584,16.786471157192025,25.730731029208567,16.50144146753353
23.748916441643235,22.084410750196845,110.75360207660603,107.92695884265517,16.536324873204254,25.595210182659915,16.461912794908205
23.889320161114753,21.938317197834838,110.01651134763395,107.63710889956744,16.290971768955412,25.45810139605205,16.42272311633141
24.027781744736696,21.790994650838304,109.1902266400078,107.26378314223719,16.050984159608767,25.319275441898377,16.384151760804535
24.16348754199848,21.642861099357873,108.27625635061418,106.80818061202811,15.816991002622865,25.178591079797467,16.346461562284375
24.29568695326719,21.494344218138504,107.27656528301861,106.2719771999624,15.589656751966631,25.035902899184986,16.30989306666754
24.42369550187142,21.345873063230506,106.19352804647465,105.6572952906504,15.369659097739422,24.891068850496296,16.274668174864736
24.54690361932006,21.19786672124974,105.02988300206536,104.96668497520767,15.157667095520042,24.743952382763418,16.240997098944213
24.664782842536304,21.05073122577085,103.78868675836208,104.20309353949389,14.954322283681535,24.594422849932208,16.20907991360616
24.776878085104755,20.90486489534604,102.47326856653453,103.3698227169837,14.760225282603919,24.442357610998993,16.179101099208246
24.88278943966065,20.760661369422632,101.08719183665349,102.47051630551499,14.57593118116994,24.287646420161582,16.15122280326086
24.98215560769821,20.6185046072732,99.63423655339186,101.50919394830422,14.401954631198231,24.13020057652405,16.125582743081996
25.074648273593525,20.47876377222316,98.11839844030334,100.49026986305326,14.238777912844379,23.96996482638796,16.102296494373427
25.159978742110432,20.34179596240193,96.5438880429631,99.41850003182789,14.086851539905995,23.80692517315966,16.081458598361326
25.23790712885235,20.207951094689278,94.91514359509094,98.29887940815664,13.946586607563347,23.64111627556017,16.063139454313493
25.308241790906347,20.07756910913173,93.23687628068761,97.1365422471158,13.818350706612263,23.47263698297841,16.047382775850753
25.370829005445973,19.950971898161214,91.51411884899733,95.93670217020325,13.702475099301369,23.30166525263484,16.034211293197288
25.4255459458969,19.828462854190743,89.75225280204188,94.7046389846688,13.599266503841688,23.128456769246725,16.02363910100538
25.472305926788938,19.710339547543786,87.95701957884988,93.44570195921452,13.509015662317593,22.953328164214614,16.01567892674333
25.511067715363147,19.596907134385134,86.13449660041081,92.16529748661337,13.432001092400665,22.77663614646694,16.010338896118707
25.541835364615448,19.48847774603819,84.29102185106669,90.86885947909263,13.368487342282503,22.598758758356375,16.007616338024956
25.564648917515402,19.385358153707532,82.43309473464113,89.56180974221574,13.318724873978136,22.42007880073487,16.00749660393157
25.57957767453644,19.287840121942715,80.56727853340506,88.24950891313156,13.282963991201951,22.24096849476527,16.00995560621634
25.58672200620346,19.196202467752787,78.70010585718957,86.93719974825221,13.261476026999812,22.06177840394092,16.014959535286074
25.586217065439424,19.11071884174756,76.83798961616758,85.6299465854949,13.254560399839145,21.88283883859368,16.02245944805526
25.578229553815053,19.0316581164622,74.98714780992141,84.33257654405467,13.262535351679745,21.70447508233485,16.03238611727298
25.56295073678253,18.95927425715597,73.15354819578668,83.04963015474057,13.285727263990514,21.527021161277435,16.044654142700733
25.540600298731686,18.89379618429409,71.34287140192195,81.78532650911956,13.32446140582377,21.350818345466234,16.059177760486456
25.511445433552097,18.835426892146177,69.56048602242895,80.5435405055849,13.379050878529661,21.176202548202983,16.0758865758988
25.475816669214208,18.784346902186524,67.81143430113956,79.32778367390992,13.449796996235191,21.003490056948436,16.094728211153665
25.434103608491288,18.740710916794935,66.10042656006708,78.14118267988779,13.537011968172985,20.832964603822578,16.11566183233058
25.386737798905788,18.704637512275884,64.43183203507796,76.9864567322587,13.641043087347354,20.664869169017436,16.13865651783352
25.334179829748415,18.67620378823011,62.80965789771085,75.86589819820524,13.762269761940384,20.499411436299397,16.163697519946634
25.276916288712876,18.65545177335334,61.237527192223745,74.7813597865413,13.901074853894789,20.336783971716482,16.190788954919526
25.215457734932848,18.6423968958783,59.7186697788393,73.73425054687108,14.057815293990325,20.177183064723668,16.21994471024976
25.15032815429696,18.637025963321836,58.25592254846273,72.72554332974914,14.232812124269346,20.020815429739407,16.251174084012728
25.082047349789423,18.63928772743244,56.85172528758661,71.7557930971909,14.426356312645082,19.86790121742151,16.284474350626965
25.011113689794033,18.64909005874475,55.50810862085096,70.82515834876783,14.638708796192523,19.718678262796963,16.319834673577105
24.9379919315061,18.666308157767258,54.2266811688141,69.93341874733483,14.870083098987106,19.573399382681284,16.35724380066908
24.86310623746632,18.690791779719238,53.008623685639996,69.07999121625593,15.12061894531365,19.432319552913928,16.396690420303273
24.786835013449675,18.722361402572268,51.85469248597159,68.26395531985618,15.390362055416817,19.295679237918517,16.438154003011544
24.7095050616075,18.760799807858632,50.765228207334815,67.48410238732038,15.679259047814309,19.163689621115065,16.481594009242475
24.631389520836652,18.80585270286017,49.74016564619484,66.7390100988503,15.987161474654512,19.03652359821288,16.52694556078336
24.55271710383599,18.85724189893809,48.77904442548071,66.0271187714394,16.313827048278572,18.914314644685135,16.574121305453804
24.473688936528116,18.914678921789314,47.881021640064475,65.34678240179322,16.65892068372241,18.797160403838745,16.623012509985013
24.39448819116722,18.977866566774647,47.04488724793289,64.69629129200406,17.02202454265601,18.68512535685446,16.673485335502807
24.315276098496675,19.046491825432508,46.269082919032336,64.07387701789641,17.40265411833958,18.578239477481375,16.725376530446884
24.236184107985775,19.12022302329146,45.551724584944424,63.47770734975317,17.800276333068968,18.476492855786294,16.778496073248718
24.157313630576418,19.1987160256892,44.89062813471132,62.90587725636011,18.214332667193517,18.379828389083706,16.832637505497495
24.078742543811895,19.281620988972847,44.283337192067926,62.356403923066,18.644270614845112,18.2881359214602,16.88758734272222
24.000528323395116,19.368580520575584,43.72715394504966,61.82723665913922,19.089587863575172,18.20125138585271,16.943126270808694
23.922702024877537,19.459221830357542,43.21917631449885,61.316291239546736,19.54987761725787,18.118961460857047,16.999024716431396
23.845258184390975,19.553152677671097,42.75633980270449,60.82149880450352,20.02484144802984,18.041009185457817,17.055040153740347
23.768151357401337,19.649965532764604,42.33545510328774,60.34084064015334,20.514259599205964,17.96709773920667,17.110919149807824
23.691306032726313,19.749243391011,41.953236673361054,59.87235594217995,21.01795299890097,17.896899342761813,17.16640015078331
23.614633528622942,19.850558737578677,41.60632850526465,59.41413877188181,21.535773927481944,17.83007755927939,17.221211565166605
23.538041712793742,19.953466700123787,41.29133329774834,58.9643402011318,22.06762222355882,17.766315546917312,17.275066338993746
23.461434638727145,20.057501334883504,41.00484079332778,58.52117209121851,22.613450306008296,17.70533186351308,17.327661241035845
23.384713036337345,20.16218161750006,40.74344870164605,58.08290510386421,23.1732395571375,17.646877542566592,17.37868545027052
23.307781453616986,20.267022845934765,40.50377771949256,57.647867325607436,23.74697090791591,17.590724272682877,17.427831594670195
23.23055487682193,20.371542399217127,40.28248765601532,57.21445506238342,24.334606506632515,17.536655801729772,17.474800211044137
23.152959113525768,20.475256610386822,40.07630115689885,56.78115241430818,24.93607062429083,17.484471459990512,17.51929835606586
23.074928642057333,20.577678182668773,39.88203488399292,56.34654341831822,25.55122585116691,17.43400166320398,17.561039702995032
22.996405944631658,20.678324407714403,39.69662784713589,55.90931082009273,26.179863133055242,17.385120836415524,17.599749916517137
22.91734138051115,20.776732984281683,39.51715700920643,55.468234327677834,26.82171391498488,17.337745367745292,17.635172855026653
22.837690924609365,20.872471707007236,39.34084178602844,55.022202225512935,27.47646717969861,17.291821233595424,17.667070698185512
22.757410577476467,20.965136469377605,39.165044640536706,54.570231174802025,28.14377398199893,17.247311372435288,17.69521789031752
22.676450057613508,21.05434733495935,38.987271411228576,54.11147505172485,28.823239444400624,17.20418604073046,17.719395289451022
22.594751851638062,21.139754328617105,38.8051713681001,53.64521983252791,29.51440824375149,17.16241549814629,17.739390686057593
22.512258724841995,21.22105090377069,38.61653672045976,53.17088981051996,30.21674769898868,17.121966485346814,17.755006003827944
22.428923130148714,21.297981082133397,38.41930392913281,52.688079739755715,30.929634451590903,17.082805653830317,17.76606454113518
22.344709326354792,21.37033395117824,38.211561139870184,52.19658451380873,31.652349311552435,17.044908065427865,17.772411741643413
22.25959030994489,21.43793616318887,37.99156121144494,51.69639428336311,32.38407574308342,17.008262357128153,17.773909709572745
22.17354868248461,21.500653870828405,37.75773220843498,51.18766179004845,33.12389431328783,16.972866579471333,17.77043023032263
22.08658165169015,21.558400127952595,37.50868037649255,50.670666790754915,33.87077748038096,16.938716894539546,17.761851027713757
21.998702262095016,21.61113493264137,37.24319248742002,50.14579159570699,34.62359411728373,16.905796878763415,17.748056221921164
21.909933584598573,21.658853940946223,36.96024479976496,49.613507210539254,35.381121517621196,16.87407645877863,17.72893709669143
21.820298878324408,21.701576224928406,36.6590122299987,49.07435974175776,36.1420599244651,16.843521855210028,17.70439107650211
21.729811891714604,21.739343900266764,36.33886666652512,48.52895012330004,36.905048454573254,16.814105942614162,17.674323865277167
21.63847355376698,21.772232369715475,35.999363976482414,47.97791151957403,37.668677669688954,16.785813205379327,17.638659539058015
21.546280179854442,21.80035615017325,35.640226722471105,47.42189113711784,38.431500112817396,16.75864803002325,17.59735395632191
21.453236870687178,21.823862013615464,35.261327322501806,46.861537411695565,39.19205317524155,16.732648793921985,17.550401671631757
21.35936285211324,21.842918628424062,34.86267294859999,46.297489486901675,39.94889954387969,16.707893801590387,17.497833324481128
21.26468593074095,21.857714466369476,34.44439238870834,45.73036684406237,40.70066451820439,16.684490803015226,17.439709461550624
21.169236143104285,21.86846178849974,34.00672435229903,45.16076086497103,41.446047220330236,16.6625588145924,17.376117483671376
21.073046843218826,21.875395607203163,33.550006236371054,44.58923083902639,42.183809467297344,16.642212901119148,17.307172386415086
20.9761591287953,21.87876406910084,33.07466349645748,44.016302193798,42.912758111763694,16.623554489604654,17.23301649132375
20.87862037571635,21.878818349687155,32.5812008200681,43.44246252821067,43.63172414214372,16.6066684118146,17.153814265910825
20.780476900287773,21.87581111758231,32.070195241006736,42.8681560818725,44.339538061956375,16.591632135531903,17.069744420225593
20.681770894377216,21.870001467727842,31.542290058442056,42.293784907464726,45.03500829002262,16.578535995480188,16.980996129901424
20.582547807833194,21.861654877624336,30.998189163788997,41.71972770112307,45.716910354855266,16.567498479775193,16.887773685947682
20.482866974058417,21.851034079314807,30.4386523945335,41.146374468753876,46.38399318059376,16.55866417416042,16.790304801541435
20.38280438632447,21.838390526905965,29.8644918623634,40.57415532091979,47.03500485250215,16.552189720108164,16.688843329023268
20.282447237817152,21.823965710545792,29.276568519458536,40.00354534930424,47.668729821165265,16.548227532181283,16.58366354001663
20.181891702920876,21.807998588575312,28.675788358898657,39.43505158396095,48.28402085523106,16.546910278474208,16.47505138224549
20.081254080398526,21.79072812710955,28.06309776443011,38.86919741395313,48.87980933902696,16.548336955669157,16.363300036240467
19.98068868523961,21.77238610803885,27.439478985388256,38.306510319056294,49.45509214073402,16.552562714101338,16.24871188474324
19.880395445486453,21.75318632066818,26.805949240007433,37.74751114141735,50.00891285169194,16.559593595696434,16.131601597833953
19.780612269066143,21.733321701101943,26.163565697165872,37.19270397735898,50.540353126302705,16.56938475211505,16.012294904400317
19.68160169894099,21.712973166816177,25.513432103137,36.64256783389507,51.04853108490605,16.58183983267925,15.891125059028916
19.58363960521633,21.692318772964867,24.856699634035575,36.09755028537635,51.53260038471486,16.596815187258798,15.768433290056251
19.487005445395464,21.671531593117134,24.19456048644338,35.55806288828854,51.9917616452017,16.61414137722118,15.64457435989576
19.391971391798144,21.650769924514734,23.528239759606834,35.024478672630764,52.42531108867492,16.63366319071159,15.519920346909897
19.29879221502276,21.630172108604583,22.858990874884704,34.49713044764502,52.832721318686744,16.655273991823577,15.394856241023017
19.20770274091532,21.60986118221436,22.188093473603246,33.97630874526004,53.21369798656127,16.678923930971347,15.269769990720366
19.118925332969276,21.58995098172261,21.516848283245537,33.462262511573435,53.568170193702045,16.704608508723673,15.14504670820393
19.032678519962367,21.57054371872779,20.846566815157555,32.95520530603079,53.896235839129744,16.73235276604459,15.021073395546914
18.949176650327317,21.551721866726886,20.178560614385482,32.45532238814498,54.19810011822851,16.762197433863648,14.898248766884922
18.868621817613292,21.533545044018823,19.514136909932514,31.962771921535975,54.47402216148521,16.794186640335347,14.776986869144322
18.79119761245875,21.516056059745328,18.8546009988718,31.47768042581422,54.72427599932123,16.828356292206088,14.65771147994068
18.717071931370345,21.499288930527317,18.20125712008919,31.00013756538368,54.9491367742238,16.864723493196646,14.540848869084122
18.646405643478253,21.483269571071826,17.55540219847954,30.53019295854638,55.148892414234155,16.903277424835846,14.426826098704627
18.579355592815478,21.46800996041404,16.918317347746864,30.06785418793019,55.32385624284199,16.943972698593676,14.316072903921578
18.51606669328697,21.453505224535196,16.29126550079431,29.6130854616381,55.47435845091916,16.986726237472958,14.209019940240156
18.45666122505738,21.43973777137665,15.675495798037929,29.165807414831356,55.600726011665685,17.031417273824975,14.106091097366045
18.40123566652356,21.42668130077892,15.072245376244515,28.725900192202253,55.70327248614091,17.07788980084951,14.007696103091629
18.349866595851797,21.41429788352554,14.482731102322425,28.293216233448966,55.78229908365899,17.125956350306726,13.914232017577614
18.30261875904924,21.402532970691784,13.908136050996395,27.867604294535287,55.83809164569459,17.175400525738997,13.826092623923321
18.2595466466708,21.391319922383417,13.349601249034354,27.44893110927289,55.87090748152825,17.225976891386217,13.743672705507722
18.22068926198507,21.380595756739908,12.808225367792932,27.03708744996032,55.88096354071908,17.277409289417157,13.66735911802231
18.186068642870246,21.370313316811806,12.285064259743194,26.631983214460337,55.86843772065841,17.329388628028283,13.597516783037909
18.15569730711622,21.360437692081426,11.781123730336953,26.23354566899957,55.83348281922843,17.38157019294121,13.534481756151123
18.129584189360838,21.35093363360093,11.297350163945902,25.841727177377866,55.77624315100248,17.433571621367065,13.478561964425316
18.107730578353838,21.34175843556645,10.834627831164186,25.456516303445248,55.696861555549084,17.484974354815193,13.430036351071971
18.090123115721642,21.33286510028815,10.3937833330622,25.077946682081674,55.595473446637186,17.53533107680176,13.389147471904398
18.076733875061226,21.324207753608597,9.975588083782439,24.7061050682725,55.472196912724854,17.58417889986586,13.3560933722621
18.067525960278505,21.315740137877857,9.580752118381275,24.341136199240456,55.32712752236896,17.63105379641966,13.331027855088644
18.062454988269913,21.307408891990683,9.209912846303096,23.983239612095687,55.16033859202482,17.67550161137569,13.314070063183312
18.061462727293748,21.299151235672788,8.86362736014997,23.63265974270118,54.971884729331904,17.71708609714506,13.30531298881166
18.064470689675154,21.290901310094135,8.542372701072232,23.289672277519927,54.76180653418591,17.755395186978483,13.304821228197055
18.07138492330286,21.282597518775372,8.246549410948438,22.954568453036433,54.530133485919585,17.790043275040983,13.312620834654231
18.08211257904449,21.274181753139608,7.9764800344225035,22.627640498782977,54.27688316316941,17.82066869854887,13.328692281138794
18.09657533587045,21.265592820875757,7.732401277664859,22.309171097937945,54.002058599866885,17.846929643686945,13.352972493108838
18.11470701065031,21.256764607194253,7.514456068623623,21.99942590192241,53.70564718095384,17.86850181341749,13.385360230499076
18.136441946226533,21.24763314727759,7.322691711777911,21.69864528909576,53.38762328780734,17.885078385927223,13.425716296188712
18.16171029406036,21.238143534704612,7.15706489133095,21.407035801279765,53.04795588501152,17.896372382532586,13.47385942588365
18.190444832096276,21.228247360861992,7.017447922449996,21.124769072054054,52.68662138165948,17.902123930995927,13.529566085131709
18.222587595326473,21.217895176043648,6.90363030162664,20.851991241727255,52.30361854536719,17.902111512900213,13.592578787002347
18.25808566665078,21.20703504323159,6.815316879149625,20.588832517319368,51.89897926643388,17.896158921837227,13.662618007053865
18.29688117001058,21.195619343071726,6.752129890397236,20.335407478844857,51.472774367800746,17.884132602953663,13.739388728892878
18.338907545760726,21.183610607514677,6.713617434766714,20.09180878051373,51.02511997579322,17.865933591190014,13.822578589819903
18.38409481885387,21.170978055360816,6.69926118942306,19.858100595679385,50.556185549003956,17.841490030952155,13.911853293613547
18.43237480577421,21.157687545231756,6.708478834238276,19.63431483398709,50.066199276530405,17.810753125804954,14.006857759872611
18.483677920208603,21.14369460044929,6.7406301789700604,19.42045025668561,49.55544968540997,17.773699596000743,14.107223862191491
18.537924536662942,21.128945900408976,6.795036288253868,19.216472242211214,49.024285010495326,17.730343033456844,14.212575579547906
18.595021149415768,21.113384553801577,6.871003506839898,19.022310545823025,48.47311014384328,17.68074834982163,14.322525333525627
18.654864591180853,21.09695106158382,6.967835107165867,18.837855633013337,47.90238160011455,17.625037604828098,14.436666473845294
18.717345051046184,21.07957939848,7.084826281274664,18.662957610161698,47.312602923067935,17.563383623761577,14.554569830219855
18.782339812808306,21.061195959998656,7.221252963207218,18.49742990890736,46.704321017986686,17.4959987142918,14.675786257119961
18.849702394564666,21.04172642801069,7.376363434885024,18.341054252785643,46.07812176064931,17.423126577237237,14.799850814081742
18.919257772367818,21.021103971097546,7.549372944659165,18.19358215162116,45.434625176778525,17.34503922931379,14.92628336882786
18.99080783550892,20.999269043136238,7.739458637225991,18.054734114144583,44.77448260827375,17.262034513287503,15.054585630232683
19.06414011756269,20.9761617840492,7.945754758509253,17.924203548644698,44.09837631447126,17.17443111726159,15.184240234727426
19.139031217021074,20.951717593100803,8.16735040953468,17.801668379688486,43.40701952791584,17.08256337744129,15.314716169332796
19.215248144264987,20.925873365058607,8.403290581357126,17.686802685253742,42.70115655626518,16.986776511014156,15.445477139879928
19.292558257197317,20.898579339067695,8.65257803328031,17.579278949129822,41.981563676759755,16.88741969097876,15.575986265705822
19.370747251908295,20.869804880593573,8.914173875234658,17.47876221859059,41.24904965555226,16.784837198106974,15.70570731043989
19.44963066695101,20.839534723261025,9.18699743504378,17.384904275735927,40.50445413114533,16.679360187321496,15.834110124949774
19.529049575103667,20.807763974815938,9.469927524329767,17.29734146871593,39.74864544090414,16.571300054659293,15.960683641714981
19.608858300190192,20.774500450149088,9.761808563144708,17.215694513948637,38.98252514411296,16.46094391794069,16.084947761018782
19.68891869668713,20.739770897414047,10.061462940956574,17.139568450781155,38.20704340754247,16.34855313878684,16.206454497337795
19.769104622038075,20.703620252235595,10.367703981936092,17.06855193968775,37.42321463189572,16.234363831086874,16.324781274853628
19.849305975675406,20.666101676634874,10.679342594150649,17.002216340381647,36.632119483791044,16.118587918157772,16.43952767497645
19.929422689539845,20.62726736841745,10.995187883114772,16.940118586025168,35.83489459923,16.001418156420357,16.550321010004538
20.009351839302234,20.587170721535237,11.31404815823994,16.881812683621217,35.032721102235826,15.88304227354169,16.656823843814976
20.088978450912165,20.545877977496428,11.634738788537978,16.82686616984308,34.22682011575576,15.763663068039207,16.75873428275272
20.168176139223995,20.503475619942066,11.956096359664965,16.774870298605126,33.41845612876026,15.643513104810955,16.855779797864443
20.246812799383857,20.46006520419716,12.276990705942332,16.725442752680365,32.60894214407081,15.522856301018265,16.947713442545705
20.32475248163633,20.41575179638013,12.59632986071535,16.67823609990541,31.79963984877831,15.401979010069912,17.03431857578005
20.401851963605314,20.370635790247178,12.913064152373328,16.63295590019452,30.991953304003903,15.281178749922995,17.115418119611622
20.477957674504694,20.324810742625374,13.226195078617291,16.58937250699855,30.187318026106393,15.160757683475692,17.19087852021484
20.552908394860175,20.278363050692057,13.534782495236659,16.547315536081374,29.387188027423818,15.04102224102239,17.260603863953193
20.626542772129138,20.2313690828901,13.837942835839652,16.506660320599593,28.59302445019521,14.922283005746124,17.3245252815092
20.69870346571822,20.183890563150538,14.134841919971773,16.467319393065015,27.806287117021796,14.80484884202624,17.38259506735143
20.76923156842268,20.135973364316087,14.424689687732437,16.42924007879544,27.02842461992147,14.689016825512633,17.43478893201292
20.837955370287197,20.087652369462923,14.706740788437408,16.392400991822793,26.260859141903346,14.575064747980264,17.481109551664698
20.904684341780694,20.03895687703431,14.98030060144792,16.35680265598425,25.504968701799807,14.463250603356853,17.521584455339262
20.969213876856735,19.989909049240833,15.244731230812482,16.32245469435346,24.76207165670678,14.35381711192747,17.556259441308487
21.031333614220355,19.94051712542878,15.49945192893952,16.289365852073118,24.033414948865175,14.246995947398124,17.585191965730125
21.09082880166893,19.89077370493326,15.743934665916873,16.257540165390434,23.32016441573939,14.143008532195136,17.60844678313477
21.14747624648058,19.840664982482732,15.97769971557997,16.22697645998788,22.623396038218555,14.042064964693367,17.626093226613623
21.201047040605438,19.790183212883136,16.200313747362088,16.19766665525377,21.94409031743213,13.944363878328195,17.63820211267136
21.25131992645422,19.739331158199626,16.411388620732282,16.16959164336274,21.283133009231516,13.850091846958144,17.64484199000073
21.298092415908037,19.68811854728587,16.610578450512953,16.14271676497948,20.641321355273774,13.759419455794065,17.64607749654547
21.3411793095819,19.636558163641073,16.797575427899524,16.116990845104205,20.01937013276017,13.672495677337855,17.641973262258034
21.38040555501064,19.58466616309294,16.972108743237897,16.09235047191336,19.417912753896765,13.58944585256787,17.632602132842912
21.41560300516971,19.532465156277443,17.133951183101054,16.06872497329367,18.83749835182351,13.510377810791134,17.618050943235215
21.446609203552146,19.480001257046972,17.282929811968913,16.046037281681613,18.278589756567996,13.435393989719149,17.598420382777515
21.473262571455948,19.42742144993798,17.418930277869098,16.024202385308634,17.741567028437537,13.364599568721037,17.57382435678415
21.495394215464305,19.375125043847202,17.541891186431172,16.00312818064804,17.226738226021293,13.29810042353037,17.544394752394492
21.512822287858683,19.32390026423996,17.651795705297545,15.982719633466049,16.734352953094145,13.23599686320384,17.510288476005265
21.525358032378982,19.27496348723737,17.74866873653898,15.962881646549551,16.2646110607806,13.178382698116101,17.471689283790692
21.532825741824485,19.229928472397255,17.832581353585592,15.943516899327989,15.817666995465613,13.125350839347899,17.428803130550104
21.535082470817834,19.190802008934845,17.90365603436709,15.92452152486077,15.393635952441187,13.076997217038398,17.381852072808673
21.532022549782663,19.160119476062505,17.962065630648354,15.905784525405924,14.992599515788637,13.033416477697713,17.33107140886764
21.52357025920841,19.14120804240953,18.008029221547762,15.887193780521361,14.61460415960982,12.994695916252097,17.276710166620816
21.509674588490288,19.138359543118945,18.04181505735806,15.868648279071973,14.25965383330126,12.960920934198258,17.219030636928352
21.490312671753742,19.156764997543593,18.063751614865925,15.850072764078492,13.927702753261054,12.932191692498728,17.158303594378562
21.465495614447374,19.20231396356339,18.074234172578755,15.831426341422409,13.618652456084744,12.908634903363476,17.094801284762475
21.435269364585714,19.281399570821417,18.073717784505227,15.81270096301667,13.332353102668504,12.890403281759664,17.028793442629503
21.39971568341189,19.40075398053429,18.062702452798003,15.793915969174206,13.068605294556892,12.877670580530094,16.960548823872887
21.35896112476496,19.567290773036095,18.041720936418866,15.775113542452914,12.827159207580474,12.870627270730553,16.890338359914022
21.313188139798232,19.787949877979344,18.01133185715826,15.756352524007653,12.607712412417253,12.869475170389721,16.818434016634416
21.26263641546559,20.069559725207302,17.972113824197066,15.737699495733525,12.409909287822996,12.874419796917486,16.745103345459388
21.207592630093135,20.418731819056596,17.924657343244615,15.719220893775455,12.23334112408182,12.88565935798483,16.670606837698564
21.148376971286265,20.841800623827496,17.869556250236677,15.700978810200569,12.07754373443242,12.9033701102165,16.595204648899724
21.08533722242902,21.34479958369773,17.807402407624195,15.68302839350728,11.941992329181573,12.927690925298151,16.519168806763084
21.018853419534178,21.933428359376695,17.73878422387693,15.665413087389233,11.826096894169648,12.95871130850971,16.442788685596838
20.949342743466598,22.61299378193546,17.664285055094055,15.64815725552505,11.729201665520964,12.99646479795829,16.366364629897692
20.87725376667556,23.388385096921784,17.5844778705254,15.631259263180285,11.650588990185085,13.040925305745004,16.29019889965899
20.80305206466083,24.264153728076195,17.49991763390757,15.614687927995314,11.589484074107498,13.092003146599787,16.214595540372073
20.727207259218893,25.244689558147588,17.411137236889747,15.598382766050042,11.54505869269765,13.149541224073594,16.1398680630671
20.650187530746585,26.33439552774255,17.318651822878806,15.58225587723038,11.516435964216296,13.213314063074462,16.066343047492538
20.572457735204956,27.537725849776756,17.222968255466718,15.566192597481306,11.50269801375099,13.283030617500522,15.994352609222869
20.494473443109293,28.859042058334794,17.124590077034473,15.550050897643402,11.502896472067333,13.358339918424093,15.924220330123836
20.41667107288525,30.302401051361898,17.024014621502726,15.533663190971126,11.516064890852403,13.438839828019752,15.85625008820212
20.3394636794313,31.8714615146303,16.921729989524234,15.51684308711932,11.541230112500347,13.524089458077368,15.79072233448968
20.263248072298232,33.569605063402484,16.818218993778864,15.499393924533218,11.5774191022514,13.61362549544534,15.727893007272613
20.188414282939053,35.40015343914543,16.713966405270117,15.481113342328324,11.623661175120883,13.706987551564644,15.667988271415641
20.115345127892233,37.366454520074036,16.609460483643037,15.461793606463623,11.67898835079506,13.803752730433896,15.61119705005993
20.044408094017474,39.471757661339524,16.50518600105868,15.441224571691077,11.742436100961068,13.90356109652706,15.557669905747343
19.975953149354325,41.71898554837883,16.40161611758245,15.419204708266182,11.813045788246113,14.00611817618485,15.507526675181612
19.91032233278844,44.110550359800186,16.299214961323056,15.395555938699227,11.889869147388595,14.111187542030994,15.460864232934249
19.847859840645786,46.6482720112054,16.198452403861683,15.370132365559396,11.971973699744542,14.218588644847213,15.417755983062266
19.788909323735943,49.33337229723141,16.099815498496437,15.342818956137931,12.05844885004842,14.328194578755834,15.378245036213135
19.733801185675382,52.166604099285124,16.00380395352154,15.313526358470094,12.148413523787662,14.439922332344205,15.342339018208525
19.682843994027888,55.148561635629704,15.910916411005186,15.282189803812518,12.241022760578334,14.553720014636841,15.3100114830767
19.636327936213362,58.27993417129261,15.821641221845578,15.248771881693099,12.335468864550457,14.669555192665186,15.281207372736986
19.594533308437054,61.56145755067591,15.736455238898815,15.213262848631501,12.43097781392231,14.78740337773476,15.255845350810588
19.557731178407185,64.99367056964032,15.655823072887843,15.175675912547346,12.526806328464103,14.907236967315274,15.233814731790094
19.526173854766807,68.5767011723932,15.580189420758217,15.13604104951152,12.622244667408198,15.029015303388892,15.214973233473309
19.50008547229635,72.31016738953177,15.509966420019095,15.094401911770056,12.71662567043489,15.152675160118573,15.199150758964885
19.479661114423397,76.19317889345693,15.445524901144626,15.05081651657342,12.809333974837932,15.278123134134027,15.18615508913247
19.465069689092687,80.22435317208982,15.387195094219503,15.005357336564586,12.899808819099315,15.405233551108813,15.175773107237596
19.456450494263056,84.40175653519586,15.335271409110224,14.958106551745251,12.987540715470855,15.533850951983931,15.167768927788863
19.45390241788288,88.72280600387627,15.290011407495236,14.909147426419882,13.072066395118796,15.663791167645396,15.161885521841954
19.457475479218786,93.18423394040401,15.251627236578429,14.858556736993695,13.152964165765365,15.794839096461708,15.15785366517917
19.467176931961358,97.78211924649543,15.220276109995229,14.80640307174188,13.229849258970027,15.926746987804048,15.155404964402097
19.48299188798991,102.51197486480126,15.196056322493071,14.752750366368767,13.302369232150975,16.059235787920986,15.154280946806338
19.504900549798464,107.36903355274943,15.17900966744618,14.697660238298266,13.37020029353585,16.191998601448987,15.15423444215983
19.53287788402354,112.34874129243715,15.16912516615055,14.641189510355654,13.433045244909533,16.324703560683812,15.155027759652704
19.56688235815658,117.44708556718858,15.166338711103439,14.583386835380352,13.490634528566176,16.456994037271304,15.156432883143314
19.60684815208744,122.66048643679102,15.170529844213803,14.524294881860863,13.54273126226026,16.5884872669957,15.158232767052843
19.652684972480298,127.98542456872347,15.181522543596424,14.463959053607086,13.589136573533192,16.71877499973836,15.160219714484944
19.70427760480449,133.41805975553942,15.1990928501625,14.402435289150212,13.62969004533151,16.847427597393306,15.162189913729785
19.761479468339434,138.95392872880544,15.222977123458206,14.33979005369023,13.664265997995768,16.973998073668284,15.163938056363996
19.824106574062714,144.58776295272833,15.252874487041597,14.276094081979657,13.692769931422562,17.09802267122916,15.165258626319048
19.8919404922168,150.31345793672247,15.28844480907129,14.21141491773925,13.715135678060047,17.21902013332081,15.16595667859055
19.96473730844796,156.12416949725355,15.32930759662914,14.145811449694063,13.731321539907148,17.336496868954065,15.165861155958963
20.042230783572666,162.0124424190145,15.3750463146732,14.079331537111068,13.741305781493155,17.449963503641776,15.164830272831386
20.12412521066398,167.97024738293848,15.425218731916877,14.012011533785412,13.745082474913154,17.558956381109645,15.162747054581205
20.21008707451836,173.9889025808786,15.479367575833816,13.943876434556753,13.742658507313063,17.663049583614296,15.15951312814124
20.29974635938718,180.05900359959733,15.537025461320454,13.874942569552015,13.734053341146423,17.761855053830626,15.155049708390063
20.392707790080188,186.17047009818745,15.597715627827188,13.805224503561078,13.719301286043828,17.855025570570717,15.149304691377193
20.488562439359164,192.31270584213303,15.660955497184869,13.734741995785496,13.69845305946831,17.942269987973265,15.142255372852912
20.586890793675625,198.47481809726648,15.726266418868265,13.663521598764705,13.671574693412733,18.02336841623187,15.133901832937603
20.687259092573942,204.64582612196781,15.79318383648314,13.591593304502968,13.638746310422853,18.098171721833147,15.124258213101912
20.789219481896293,210.81482251301074,15.861260850425115,13.518986994680919,13.600064048920725,18.166588850843635,15.113350400543718
20.892318047114422,216.9711093932049,15.930068356196504,13.445733937306072,13.555643423585135,18.228576298999176,15.101219646170895
20.99610157850299,223.10428803290685,15.999200504146582,13.371874672268595,13.505619713965077,18.28413529747979,15.087924850716973
21.100115077750814,229.20423618573648,16.06828479984778,13.297467083559606,13.450144679825819,18.33331056402047,15.073538964560177
21.203894212908033,235.2610012796923,16.13698604313252,13.222587824643439,13.389383160154896,18.376184489249372,15.058142390864823
21.30696180385474,241.26471621879762,16.204999728061892,13.147330164783718,13.323514222725013,18.41286793366156,15.041819465194036
21.40883135048017,247.20556193710507,16.27204384415541,13.07180813391572,13.252737475136247,18.443491236075438,15.024659802511168
21.50901181083323,253.0737092647868,16.337858306100333,12.996168004237202,13.177278438206766,18.468196076499922,15.006759386997619
21.60700711579097,258.8592327568218,16.402210064973236,12.920594681067977,13.097387743874542,18.487127087137345,14.988216278900756
21.702312645207336,264.5520751462427,16.464895300699663,12.845304704922468,13.013335814361245,18.500423134594843,14.969122677332846
21.79441649548725,270.1420917777732,16.525734704707816,12.77053219913669,12.925406897201162,18.50820917378834,14.949559569698652
21.882807915563205,275.6191184556501,16.58456589832786,12.696516457715038,12.833894011295225,18.51058981365457,14.929597793459585
21.966986997946126,280.9730103739803,16.64124000180813,12.623492567999998,12.739094437546218,18.507646990677816,14.90930174836909
22.04646954800682,286.19367311592816,16.695624893507222,12.551683049095894,12.641305179177362,18.49944498775173,14.888728307001529
22.120788073760608,291.2712041890271,16.747609392083675,12.481289932580609,12.540819010705627,18.486041512806384,14.867919667876743
22.189495959105514,296.196192776097,16.797101332895647,12.41248857853298,12.437922561677176,18.467496628916443,14.846896688210501
22.252178220162268,300.9599688451122,16.844019599234958,12.345424935178393,12.332896091826923,18.443873678793857,14.82566019541795
22.308460659801504,305.5546286943391,16.888285283233348,12.280216495309755,12.226012075856918,18.415235688086426,14.804200567410476
22.358008052248344,309.9730006670264,16.929818390011196,12.216954382524277,12.117531352267415,18.381642883254354,14.782506861656202
22.400515010143305,314.2087237638088,16.968543191825322,12.15570336830717,12.00769911660539,18.34315333407325,14.760568104933244
22.435701588020635,318.2563419129765,17.00439621382702,12.096499819550427,11.896742763007039,18.299830333580044,14.738369787729717
22.46331877496541,322.11133561634057,17.037327823443576,12.039351406482956,11.784871554712897,18.251761498022603,14.715894633994578
22.483155985309487,325.77017350118035,17.067297478167728,11.984244372497587,11.672277398983493,18.199083673536933,14.693131044922374
22.49504108491691,329.23037744760256,17.094270104242668,11.931159166210346,11.559135573568923,18.141997050336965,14.670081691361004
22.498834703433584,332.49048235427534,17.118216709724567,11.880084634743536,11.445605276660656,18.080760529718535,14.646764612608193
22.494428083268314,335.5498583326445,17.13911478474861,11.83102184319695,11.331833146913395,18.015675863563473,14.623211546036616
22.48175005616591,338.4085024340739,17.15694486334478,11.783981915777183,11.217962128379886,17.94707057536483,14.599473483903747
22.46077833200204,341.0669469331859,17.171685774912937,11.738986738074885,11.10414142145342,17.875284486567978,14.575632002839209
22.431544040323974,343.526301416138,17.183313925380762,11.696072236970817,10.990531306702328,17.800661297419925,14.551804369192245
22.394126299001197,345.7882882730608,17.19180832201248,11.655287459873433,10.877301918590154,17.723543480329337,14.52813774369262
22.34864518906992,347.85516114158264,17.19715572869809,11.616687111500356,10.764628574300499,17.644267656494637,14.504801322535526
22.29526000780429,349.72953352851493,17.199349333022724,11.58032212459738,10.65268612144075,17.563162338890493,14.481985836206588
22.234169244711218,351.41421944459466,17.198382003761576,11.546234075189268,10.541643662381347,17.480551026549847,14.45990848657331
22.165605151040193,352.91214609189745,17.194240808510045,11.514455143413151,10.431660085713162,17.396755812712932,14.438813259993063
22.089821924360955,354.2263101889294,17.18690862339723,11.485009629989559,10.322881152813991,17.312094433391785,14.418961600519902
22.007084822192095,355.35976888670996,17.176372456242987,11.457912389745225,10.215440214072277,17.22687133190978,14.400618737052131
21.917671580697,356.3156909694495,17.162630329109756,11.433165327162861,10.10946621136761,17.141368876473674,14.38404251382411
21.821887887767176,357.0974114145848,17.14569076123324,11.410757393799845,10.005098832238977,17.055847129623515,14.369475002643497
21.720081418532303,357.70842324202675,17.12556959727575,11.390670027534433,9.902501220790361,16.970556703582886,14.35713356499144
21.612640446935078,358.15234914936525,17.10229175794947,11.372882745649989,9.801861091498534,16.885755022617683,14.347200831509745
21.49998322210008,358.4329473510841,17.075897102228367,11.357373079237954,9.703383134058294,16.801711247469015,14.339816309312576
21.38255646410554,358.5541290777644,17.046443026530984,11.34411121600357,9.607280779940847,16.71870061524153,14.335072216539935
21.26084940036795,358.51994974626047,17.014000410009288,11.333053677892517,9.513770282503142,16.637002540260145,14.333013565372038
21.135406629471607,358.33455789552625,16.978647436108442,11.32414080704875,9.423066100453779,16.556908972485918,14.333639999835558
21.006823066056107,358.00209283751195,16.94046719727101,11.31730040113752,9.335376877198847,16.47873255537189,14.336906780438433
20.875727117409077,357.5265493099609,16.899549099936255,11.312453744778377,9.250901567931288,16.402803200852404,14.342724833913193
20.74276924988226,356.9116644583959,16.855989141106487,11.309517812033977,9.16982575673865,16.329455780259075,14.350964421566449
20.608622010257324,356.1608908352367,16.80988613715875,11.308402822873267,9.092320499995697,16.25901942754345,14.361467968617863
20.473981490824006,355.27745511620884,16.761336336781334,11.309010528777968,9.018545152409603,16.191813483833535,14.374068007345121
20.339559603802247,354.26440608063825,16.71043222705271,11.311239226662925,8.948650687845124,16.12814581609412,14.388597616775785
20.20607233007107,353.1245923790866,16.657268168174106,11.314994314391791,8.882779303118014,16.068307551088758,14.404888736401027
20.074237715267515,351.8606323433223,16.60194648658317,11.32019559311891,8.821060996009061,16.01256362904746,14.422767524978765
19.944784120850557,350.4749289887282,16.544576512196027,11.32677703221333,8.763610447282478,15.961142026334834,14.442057148950257
19.818452437693086,348.96969249869124,16.485268541383903,11.33468348639367,8.710525569015255,15.914225227783264,14.462587404669174
19.695981644930118,347.34694156635624,16.424130395817198,11.343868087008163,8.661886908316394,15.871947247144774,14.484201350935312
19.578086284518246,345.6085169226888,16.3612706273948,11.354289410279923,8.6177566892909,15.834396356026197,14.506753147608043
19.465440189723253,343.7561204835428,16.296804648085306,11.36590661482774,8.578176779142211,15.801619352327588,14.530102134112694
19.35867008892431,341.7913445601678,16.230856898691936,11.378673010363757,8.543165965692587,15.773622311499206,14.55411098396839
19.258351584363812,339.7156775635417,16.163558784458104,11.392531312411924,8.512717690876629,15.750367548428912,14.578648844397431
19.16500080765357,337.5305212946806,16.095049677316187,11.407412537598587,8.486798763571764,15.731773408476549,14.60359374818462
19.079063548953307,335.2372716406791,16.025485395430646,11.423236416306757,8.465349328404638,15.717723592511158,14.628830323080901
19.00090852941769,332.8375041251246,15.955048410582924,11.439910750829581,8.448285242091723,15.70808318544428,14.6542455976538
18.930828976777917,330.3332264549505,15.883950446544421,11.457329535517879,8.435503075144723,15.702712308783275,14.679728474591366
18.86904898271251,327.72705522227136,15.81242512581781,11.475371609081254,8.426885428451639,15.701474617790856,14.705173832821531
18.815726670460883,325.02223166546713,15.74071651921303,11.493903441405305,8.42230385645359,15.704245090313403,14.7304858643218
18.77095124369117,322.22254714692093,15.669072521792494,11.512787292956787,8.421618851665675,15.710917897673005,14.755576118578645
18.73473949301185,319.33226421948757,15.597746737615493,11.531889019536013,8.424678664804684,15.721409307532067,14.780357936504666
18.707039845902443,316.35604746874475,15.527001571448722,11.55107949334139,8.431319649367955,15.735655373078895,14.80474128912701
18.687744194452886,313.298898264013,15.457104107374747,11.570231195309994,8.441370162025914,15.753609311597693,14.828629672202716
18.67669752598001,310.1660834717558,15.388318323787088,11.589215128204211,8.45465717208343,15.775237709164859,14.851917799403697
18.67369833100492,306.9630511361611,15.320903112041485,11.607900084851511,8.471011178809373,15.800512030118783,14.874487974067343
18.67849518663516,303.69535372108845,15.255116277702331,11.626152371325908,8.49026600578906,15.829397253693218,14.89620519763869
18.690786972906228,300.3685909213253,15.191215490113585,11.643833479523877,8.512254961131468,15.861840543363058,14.91691474547266
18.710225029801975,296.98834784689234,15.129451704492281,11.660796005415497,8.53680776135514,15.897762332805565,14.936447513801202
18.736412455630553,293.5601287445067,15.070059532826734,11.676881745589316,8.563750985435615,15.937055936480464,14.954632582993916
18.76890142228389,290.08934825547027,15.013251530746237,11.691926903615839,8.59291005695255,15.979598080127438,14.971307197123487
18.807191970029965,286.58140946677054,14.959221209706183,11.705773153342369,8.624108790351485,16.025259916978936,14.986316604592906
18.85073278395652,283.0417801270324,14.908151771417582,11.718275433537013,8.657166153629966,16.073907694111572,14.999508334419899
18.898922568458726,279.4759853102564,14.86022028695931,11.729300836886624,8.691892995492998,16.125395782283835,15.010730026176233
18.951111963784108,275.88958182200804,14.815593342850258,11.738723087742292,8.728092608158276,16.17956052008615,15.019833049267406
19.006607032315305,272.2881980238687,14.774421624023107,11.746418797879382,8.765569026960089,16.236217701293583,15.026676860245724
19.06467539402301,268.6775821519622,14.736840908261247,11.752265921310238,8.804140281339578,16.29516107971113,15.031129822547774
19.12455786926191,265.0635928388579,14.70297746987956,11.75614200703442,8.843647182031999,16.356161628037384,15.03306874665725
19.185486767377224,261.4522164266871,14.672949812637794,11.757921784874776,8.883954768550336,16.418972872713386,15.032383347200552
19.24670321953901,257.84968661440274,14.64686385751849,11.757475614772291,8.924952861887348,16.48334274295661,15.028986924640078
19.307464373829124,254.26260259469512,14.624808702287329,11.754671252681042,8.966559913283838,16.54902241675945,15.022825280920255
19.36704274432061,250.6979337515693,14.606860379142022,11.74938019625464,9.008726736880124,16.615765660499996,15.01387615144591
19.424728252877205,247.16295112653526,14.59309004831435,11.741484949599004,9.051434496536613,16.683322460532242,15.002142364924252
19.47983826384458,243.66514921356557,14.583566323650391,11.730881623493152,9.094686518099213,16.751432728436903,14.987647832426013
19.531729900510555,240.21213400214867,14.578348298035035,11.717477591326174,9.138498840006456,16.819821691490404,14.970438872554958
19.579805460818555,236.811450767025,14.577476930041724,11.70118893621689,9.182893544006395,16.888196905600527,14.950584834540349
19.623509105639126,233.4703901313862,14.580975278767385,11.681941830364572,9.227895414223138,16.956248032499996,14.928173373832198
19.662322015432135,230.19582002114245,14.588857999616454,11.659677498501146,9.273529743957674,17.02364918145575,14.903303457539218
19.695764354932983,226.99406139279432,14.60113821520602,11.634356485615093,9.31981800388656,17.090059950435467,14.876082448462478
19.723403686715443,223.8708034227831,14.617823456001105,11.605959284994489,9.366771440499473,17.155122442261007,14.84662912913809
19.744861021979965,220.83104064565748,14.638906141015985,11.57448504869757,9.414387307379897,17.21845806460365,14.815077441880199
19.759808841053424,217.87904181033895,14.6643581798584,11.539952121655336,9.462651117723274,17.27967196712517,14.78157517552529
19.767964859987103,215.01838714628474,14.694131492004292,11.502401387663149,9.51154297057268,17.338366644964754,14.746277990816193
19.76908944365001,212.25206997472895,14.728158493953472,11.46189884729882,9.561043980309123,17.39415576087823,14.70934366088762
19.76299061107037,209.58260598839234,14.76634797135291,11.418533839781158,9.611140913738472,17.446674519127914,14.670931726286364
19.74953239962763,207.01209599552635,14.808578640515492,11.372414256144431,9.661829003604804,17.495597046914696,14.631208513939837
19.728638459816104,204.5422281900033,14.854696931527497,11.323663014776077,9.71311280725949,17.5406625357692,14.59034979694843
19.700288929136622,202.17425962127575,14.904522761995695,11.272417911415756,9.765004902076573,17.58169162359907,14.548536321122711
19.66451913010569,199.90906946922115,14.957858107053276,11.218832580683038,9.817522964518012,17.618581714896354,14.50594831581782
19.62142973745536,197.74732410332464,15.014490007822387,11.163074805935052,9.870686117449067,17.651292293805778,14.462766847264076
19.571203476605884,195.68963088000984,15.074187928006568,11.105321321249916,9.924511014159833,17.67983296424644,14.419180586922277
19.514111597398173,193.7365583840848,15.136703205155532,11.045751317725955,9.979007373976653,17.70425428460545,14.375389280605992
19.45050312025713,191.88859353402603,15.20177688128723,10.984541437055046,10.034173022756086,17.724638297341695,14.331599028231656
19.38078553562244,190.1461411674804,15.269152625838618,10.921863554544661,10.089989850159517,17.74109314088638,14.28801365707611
19.30540678501658,188.5095220097521,15.338584248179824,10.85788406552415,10.146421689129825,17.753757149341784,14.244830094314093
19.22484085451349,186.97889477933782,15.40983337892979,10.792762381417711,10.203413823719332,17.762807199561806,14.202240874709295
19.139575042433048,185.55413791358055,15.482664719939304,10.726648539354514,10.260893722082557,17.76846234004741,14.160438496294505
19.050097979434927,184.23475457836395,15.55684779250431,10.659682031217352,10.318772237475173,17.770981013866148,14.119614158650444
18.956891166835657,183.01981106597412,15.632163824540465,10.591992873411163,10.376944515082181,17.770652239610516,14.079950714532162
18.860427724333874,181.90792984371976,15.708408852498488,10.5237038145533,10.435290799837098,17.767780623933014,14.04161657631146
18.761175681225794,180.897365415328,15.78538960994192,10.45493221700404,10.493677441458093,17.762669290140067,14.004764985541186
18.65959718899263,179.98610794423234,15.862918472447923,10.385790421500039,10.551958334439467,17.755605330509407,13.96953510968648
18.556140348394486,179.1719416397074,15.940814627419002,10.316384327129233,10.609976842829338,17.746848535955426,13.936049204968558
18.451229892542678,178.452467311973,16.018910166736347,10.24681189692754,10.667567292784089,17.736622754328376,13.904406091478075
18.345264692709804,177.82510904394243,16.097052635416425,10.177162852615833,10.724555156003284,17.725114183450476,13.874677035791718
18.23862467828037,177.28708013556152,16.17509894762025,10.107518267935403,10.780756179895976,17.712488922183592,13.846910194822966
18.131681393600147,176.83531143710854,16.252904665332018,10.037949280799781,10.835976588542286,17.698930805824208,13.821143205129752
18.02480266326124,176.4664000657553,16.330317138697662,9.968517147728184,10.890017286578832,17.68467315648289,13.797414891177436
17.918350594023373,176.17662986435656,16.40717680998698,9.899277784165287,10.942680727749792,17.670001515035178,13.775767241153076
17.812680932382605,175.96205954504063,16.483321922671262,9.830290427618108,10.993774698946396,17.655235686550796,13.756238992256302
17.708145831319843,175.8186272050795,16.558589167399465,9.761625035415912,11.043110680718186,17.640708982315072,13.738859793705586
17.60509351695227,175.74221933092406,16.632809116004577,9.693363493163947,11.090500389042495,17.626751068812275,13.723651449849562
17.503861224057832,175.72867578807399,16.705800884019254,9.62559505685594,11.135754830102485,17.61367906694431,13.710634111940587
17.40476682296353,175.77373048789582,16.77737142500719,9.558410407603617,11.178687463777905,17.60180880630934,13.699829628190464
17.30811022738808,175.87293216163124,16.84732080597858,9.491899547794912,11.219119722656956,17.591488668569777,13.691258990896651
17.21418776989186,176.02161985041204,16.915447278464327,9.426155031369346,11.256885241598289,17.58313658042077,13.684940559801467
17.12330578946501,176.21498935705515,16.981546013671768,9.361275961809747,11.291832413114255,17.577261620389883,13.680896529731386
17.03578004002868,176.44819312879287,17.04540487024158,9.297368877637215,11.32382958282871,17.574467003079693,13.679163835555517
16.951927166191815,176.71639587124162,17.106805686202467,9.23454850411434,11.352773914907209,17.57543537734934,13.679797498149885
16.872064052000773,177.01480470478444,17.165532915723464,9.172942832785786,11.378597788252453,17.58090281346208,13.682862709559002
16.79651764775671,177.33873213636713,17.22138188628587,9.112699994687796,11.4012677500329,17.59163909218471,13.688425435025819
16.725631229826305,177.68369569459887,17.274159423295675,9.053989540207613,11.420778057463624,17.608449385508795,13.696551306942531
16.65975596019099,178.04554778942278,17.323677963013868,8.996996392025421,11.437144493755397,17.632188138382027,13.707310758731643
16.59923233426989,178.4206038534254,17.369749606213965,8.941914044535825,11.450401745547746,17.66375738343669,13.720780485279517
16.544373450036296,178.8056746330951,17.41218606220997,8.88894239427276,11.460602495836973,17.704077938215654,13.737036453349193
16.495457521700928,179.1979748678385,17.45080490094654,8.838288017173042,11.467815477232337,17.75404772381681,13.756143927882384
16.452727011571273,179.59499237124393,17.48543610728975,8.790162088040491,11.472122152288424,17.814503028848293,13.778152152613703
16.41638548822274,179.99438732999394,17.51592456491998,8.744775314364487,11.473612859627368,17.886192104394173,13.803094426871493
16.386590144295337,180.39393477224448,17.542132144857636,8.702334033095372,11.472383665105976,17.96977302404825,13.830988132165032
16.363449067709624,180.79150895634686,17.563944566831175,8.663041380210384,11.468533701695094,18.065836587217497,13.86183067198483
16.3470284403586,181.1850966837046,17.581279982894024,8.627101081554235,11.46216146216493,18.174930063909983,13.895593794493957
16.33736003153546,181.57280091662525,17.59409187989472,8.594717076003972,11.453360844381574,18.297559420998436,13.932223086770719
16.334438407077023,181.95280457495434,17.60236522985776,8.566087296354501,11.442220182195788,18.434173826454018,13.971644704785634
16.338211592934307,182.32331007104827,17.606110823628534,8.541397121015006,11.428827253117436,18.58515035056405,14.013772224466702
16.348576900983826,182.6824787497916,17.60536252973785,8.520817956140016,11.413279341565628,18.750792419555545,14.0585071225132
16.36538732396503,183.02838217751187,17.60017859023091,8.50451030497933,11.395691277301076,18.93133984630328,14.105735419551284
16.38846283563028,183.35900735113378,17.59064223630346,8.492625166592212,11.37619596899736,19.12697477617828,14.15532803952377
16.41759700254435,183.67233727027983,17.57685589047065,8.485299580225318,11.35494189234451,19.337816251188496,14.207149358180521
16.45255508284512,183.96642425814673,17.558931300751738,8.482649373719509,11.33209379993538,19.56391741174309,14.261068771607595
16.4930683628414,184.23937946463838,17.536984642285727,8.484765595790334,11.307833857621095,19.80527673372604,14.31696490916916
16.53883382694012,184.48934116214986,17.51113981436074,8.491718233907305,11.282357397875813,20.06184784162663,14.37472132535856
16.589522428202958,184.71452260363947,17.481531722990617,8.50356406678753,11.255864199938564,20.333529751512234,14.434223975829466
16.64478790601437,184.9133232742067,17.44830162794734,8.520350989872242,11.22855018954256,20.620145164047987,14.495367774336268
16.70426807193206,185.0844009611607,17.411587712634095,8.542115192736981,11.200601928450189,20.921427209156,14.55806664448503
16.767582257376322,185.2266467336302,17.371519505759476,8.56887486282934,11.17219321247066,21.23702601299331,14.622256478159013
16.83433396524535,185.33910180409916,17.328219884674976,8.60062632654181,11.143482511410049,21.56652695113931,14.687888439783467
16.904119646794214,185.42089847412524,17.281810662518385,8.637345246734318,11.11461101763841,21.909459104232045,14.754919099233819
16.976535032826163,185.47125383840034,17.232415313080818,8.678989779226262,11.085703270005638,22.265291849096776,14.823304781579838
17.05117395768766,185.48946412529762,17.180157005422625,8.725500551248,11.05687339981032,22.63345235946386,14.893001220366434
17.12762718693031,185.47486092493045,17.12515676899061,8.776796441223565,11.02823626368018,23.01338197237565,14.963962674292201
17.205490762359286,185.4267664970183,17.067538158510857,8.832768792233193,10.999917078343326,23.40459225424217,15.036135752695623
17.284380077880737,185.3445042876604,17.007436861351025,8.893276378656406,10.972053415637868,23.80667548496558,15.109450940001182
17.3639374089463,185.2274697913526,16.945005620368708,8.958142064943237,10.94478995973369,24.21927429226839,15.183818912318031
17.443828806158475,185.07521984332163,16.88040980789665,9.027151220878183,10.91827109245006,24.64204511360795,15.259133833748633
17.52373830876706,184.8875490822655,16.81381922106755,9.100052188331738,10.892634540612278,25.07464826501726,15.33527770949678
17.603370896245618,184.6645445869347,16.745403156983485,9.17656049301122,10.868005464431173,25.51677099962224,15.41211985674655
17.682466024715662,184.4065955619284,16.675330142718778,9.25636824749524,10.844489802648344,25.968148622625513,15.489512556177322
17.760808160344894,184.11433282086105,16.603768350712663,9.339156033039497,10.822167689166061,26.428550160297533,15.567288698308074
17.838222315728483,183.78851086461296,16.53088263557054,9.42460119999568,10.801088425152878,26.897737088989242,15.64526694842171
17.91456064064807,183.4298759673309,16.456829677312758,9.512379321815192,10.78126724902631,27.37542019322695,15.723262976807542
17.989694113022374,183.0390647573481,16.381757490094778,9.602161539140477,10.762683398017709,27.86122792125604,15.801097597003135
18.063514211470185,182.61657660300355,16.305811483370352,9.693614570788627,10.74527943458623,28.354688857837992,15.878595739951887
18.135937136571037,182.16282921252903,16.22913993791086,9.786407114193423,10.728962472039857,28.855222100974927,15.955579731773218
18.206901080492326,181.67823372746875,16.15189172342515,9.880217700834395,10.713607376845662,29.362126556379632,16.031864146382432
18.276356093605383,181.16322780985635,16.074208532101608,9.974737508892654,10.69906156696354,29.874569568689473,16.1072553019557
18.344255121399925,180.61827261335307,15.996218870111838,10.069668196932545,10.685153227894427,30.39158595388881,16.181552544519988
18.410553466812043,180.04383046881978,15.918037661849915,10.164718692402069,10.671704362693333,30.912096415961265,16.254547330332798
18.47521297267537,179.4403337378658,15.839769233648079,10.259604167338182,10.658543639778108,31.434941485190084,16.32601933007781
18.53820104380653,178.80818468651043,15.76150867783889,10.354046958378756,10.645512211525206,31.958916008181834,16.39573222791036
18.599482360102098,178.14781549444578,15.68334025274184,10.447776354589838,10.632462872589697,32.48279152264301,16.46343276098823
18.659011548534714,177.45977118201006,15.605337732042031,10.540526116759711,10.619257987490515,33.00533302304117,16.528853400027845
18.716734905149817,176.74475493402326,15.527571760164454,10.632032363477348,10.605769288870734,33.52532200597156,16.5917151403151
18.772598942514612,176.00362414011911,15.450120490666324,10.722037082836193,10.591878930528356,34.04157370380207,16.651727923901134
18.826555423623546,175.23735611809386,15.373074037320949,10.810299154292412,10.577481539032375,34.55293155313025,16.708592397050488
18.878557074959,174.4469903759004,15.296530665374608,10.89660479617116,10.562488251990287,35.05825268447744,16.76200951847546
18.928549292982716,173.6335686500623,15.220593470527088,10.980768809671526,10.546830530711881,35.55641927437212,16.811696550802523
18.976468487948765,172.79812155382442,15.145376031351478,11.06262908028435,10.530459505105014,36.04638773876132,16.857398765742307
19.022252384317255,171.94170986118178,15.071013369264252,11.142040938103142,10.513341259432343,36.52724162807991,16.898891468250937
19.065855157411267,171.06546327876833,14.997665641974216,11.218872847367619,10.495452665866285,36.998212115298315,16.9359801541832
19.107254182978586,170.17059686735345,14.925509443750292,11.293001763370677,10.476780977994796,37.45866883877423,16.968506969668788
19.146443572297592,169.258458461101,14.854725213232154,11.364307894335392,10.457326895248938,37.90809553390507,16.99635878185937
19.183420543658976,168.33060587522039,14.785492235524833,11.432670971442976,10.437107547516462,38.34606036465255,17.01946717440094
19.218172554578004,167.38882580103686,14.717992900884376,11.497970938150083,10.416155011314977,38.77219891217016,17.037800863154416
19.250669632056532,166.43507440815492,14.652416577079999,11.560093188160788,10.394509971075056,39.18621559923756,17.05136095995733
19.280861782980736,165.47144310604034,14.588955905843116,11.618934038542061,10.37221409418123,39.58788248511209,17.06018605692912
19.30867927027809,164.5002099070579,14.52780130114273,11.674402501429652,10.34930379288269,39.977020453442044,17.06436113219967
19.334038768564568,163.52388767722664,14.469143274430733,11.726418725381341,10.325806047747005,40.35347229265015,17.064018669266478
19.35685977556466,162.54517332802467,14.413181364280074,11.774912583448328,10.30173667559976,40.717081551134825,17.059329422443753
19.37708300735635,161.5668290889394,14.360128798655124,11.819826732381975,10.277100771241225,41.06768773765613,17.050490673383315
19.3946765269066,160.59158799437603,14.310207473248807,11.861124203336107,10.251893573989278,41.40514173572251,17.037720602662123
19.40962983042594,159.62214029632509,14.263639968470555,11.898794121206116,10.226100188378526,41.72932376979938,17.021259753285552
19.42194888447901,158.66120435049135,14.220647806943715,11.932850218992959,10.19969479355937,42.040140647172834,17.001372402632885
19.43165810217566,157.71164130372034,14.181455499558274,11.963323880783534,10.172640546489575,42.33750314786833,16.97834170946017
19.438801565518695,156.77653778114225,14.146290698997744,11.99025783536246,10.144890067656467,42.62130130535706,16.952460650332707
19.443435874721015,155.8591862625913,14.115375879165928,12.013704678685187,10.116386272616152,42.89138914558516,16.924025617585425
19.445617769112825,154.96297476480518,14.088919874164619,12.033727999666612,10.08706348480262,43.14757734426461,16.893335673585447
19.445394472151172,154.09127001237678,14.067118390035562,12.050401267022927,10.056848635691855,43.38962578145654,16.860692089063814
19.442799828247484,153.2473356998691,14.050159800869796,12.063804221254594,10.02566388018487,43.61723216787658,16.82639228826834
19.437852544681864,152.43425117836554,14.038225132968165,12.074020130491867,9.99343303570722,43.83001966295926,16.790720956539456
19.430552006172032,151.6548064287438,14.031478566122006,12.081135149417243,9.960091027116846,44.027528203882575,16.753946981145987
19.42087274989024,150.91140046773054,14.030055518942977,12.085237912896458,9.925591679858709,44.209216455568054,16.716330898172366
19.40876488073438,150.20596946496903,14.034058067680029,12.086417835790733,9.889911028551644,44.37448334809449,16.67813603921678
19.39416680134782,149.53993877961017,14.043560249607067,12.084762520930278,9.853046883339498,44.52270545070334,16.639631518952093
19.377024800888858,148.9141970807661,14.058614592865583,12.08035489300838,9.815016139055434,44.65326784783844,16.60108497410307
19.357305024709387,148.32911465960083,14.079250207959474,12.073270435480177,9.775852570685583,44.76557308239445,16.562754233783835
19.3349924956063,147.78460909924954,14.105464319218704,12.063576057654076,9.735607481984651,44.859035446455,16.52488652344295
19.310086876700783,147.2802207279286,14.137217424595418,12.051332351510261,9.694351025356918,44.93307278657776,16.487723695768953
19.28260592326637,146.81516708514678,14.174437090699705,12.036598309613023,9.65217077411111,44.9871017463847,16.451504159545408
19.252594991738523,146.38837395669847,14.21702402420466,12.019435125178909,9.609167920516803,45.02054447089346,16.41645706440846
19.220130867506576,145.9984884245356,14.26485234215128,11.999906870677064,9.565453616289046,45.032852834685066,16.382795819816135
19.18531503164174,145.64390346566756,14.31776594674714,11.978078613093379,9.52114656270678,45.02354207358974,16.35071917981548
19.148266386269697,145.32282338812274,14.375579672948232,11.9540138230662,9.476370974155634,44.992223599863266,16.320416593383417
19.109126097508447,145.0333447498906,14.438088677012058,11.927772473737244,9.431254601301209,44.93863445459115,16.292067601139546
19.068073020737597,144.77353725556722,14.505079534596245,11.899410010728545,9.385927912036834,44.86265687603986,16.265832597212416
19.025334034726136,144.5415477533824,14.57633442802328,11.868976650147523,9.34052422332805,44.764327685326116,16.241842273890914
18.981179686292954,144.33569531921665,14.65162746412836,11.836516691832196,9.295179108882168,44.643850404533204,16.220193516372
18.935913551466307,144.15450117457928,14.730719525032036,11.802068269985918,9.250028270718662,44.50161150777822,16.200952290820965
18.88986770959795,143.9966668690841,14.81335826250693,11.765663742930244,9.205203918896812,44.33819169649367,16.184157479768814
18.84340364729281,143.8610353772991,14.899282718472023,11.727330333463716,9.160830132665522,44.154371195270016,16.169820169814383
18.796908054535102,143.74654803337384,14.988224888399515,11.687091915727239,9.117018695803438,43.95112942478732,16.157919946806416
18.75077866434013,143.65221378852368,15.079904042452995,11.644972792274679,9.073866891432962,43.72964566054653,16.14840629386383
18.705407472236622,143.57708429380912,15.17401959497999,11.601001132135698,9.031457082496404,43.49133026569209,16.141209304565475
18.661173613398546,143.5202004670681,15.270251072144157,11.555209359364465,8.989856822125326,43.23789420678278,16.136251871360223
18.618448847242558,143.4805150389361,15.368265666148698,11.507632312247166,8.949119136749331,42.97139712618093,16.133453528594817
18.577603341410814,143.456852653638,15.467724562278507,11.458306591367363,8.909283905640287,42.69422041017766,16.132726609726443
18.539001023161628,143.4479583581373,15.56828167456963,11.407274135445427,8.870380799065305,42.40898720378755,16.133972844120386
18.502991227769225,143.45259892756152,15.669579209855872,11.354589040441454,8.832432361733103,42.11849108690965,16.13708647868198
18.469909519872424,143.46962009200243,15.771248872498987,11.300322285604,8.795454729171329,41.82569870494563,16.141961054546808
18.440086524276015,143.4979259592451,15.87292133173734,11.24456099124779,8.759455052005643,41.533841603486806,16.148491468836312
18.413850128539988,143.53644848171297,15.974236457881227,11.187405237195158,8.724427913574207,41.24652190517067,16.156569040821203
18.391514238056295,143.58415659029305,16.074844939085263,11.12896834382818,8.690354387889979,40.967751675668325,16.166074891329373
18.373364609661575,143.64006518155853,16.174402162798273,11.069382525904711,8.657205043691844,40.7019069117206,16.17687695320225
18.35965326468031,143.7032097035539,16.27256429764532,11.008804877196143,8.624944096365704,40.45361559872666,16.188831777674494
18.35060097415193,143.77262751847704,16.368991535297628,10.947417257217133,8.593531181298706,40.22763016855093,16.201787803615236
18.346401029227458,143.84737683522317,16.463351850117494,10.885419815633725,8.56292116045497,40.028734775069374,16.215586257575612
18.347218867520212,143.9265644508137,16.555318760359846,10.823023608778557,8.533064770248147,39.86169808703166,16.2300605247464
18.353186449840585,144.00938502964217,16.64456681695753,10.760447053743595,8.503910897644332,39.73125005169876,16.24503768252496
18.36439708392408,144.09519513762515,16.730772643340654,10.697915695601273,8.475409200033235,39.642055570023786,16.260342326595012
18.38090845544193,144.1835654178379,16.81362374854821,10.635661010261632,8.447511740936472,39.59869813884153,16.27579814866712
18.402751928036572,144.274260574524,16.89282879140128,10.573915582976259,8.42017338589917,39.60570600938616,16.291224817783558
18.429937070008528,144.36718469116528,16.96812098576578,10.512906352132303,8.393352260532415,39.667580443262494,16.30643421112171
18.462447351587546,144.46232778778943,17.039253804979836,10.452849369749133,8.367010925337834,39.788754442969385,16.321232018860133
18.50023469563077,144.5597360475425,17.105995750041043,10.393947114373836,8.341116351042315,39.9734950566596,16.33542561566708
18.54321796116174,144.65952551175172,17.16813080636796,10.336386316736599,8.315637287737397,40.225807907065025,16.348832173553895
18.5912810458993,144.76189437058113,17.225463800847912,10.280334898226991,8.2905405014184,40.54935763840543,16.36128046184166
18.64426709847348,144.86709575315086,17.277823424464373,10.225941366013855,8.265787917220068,40.94739212680824,16.37260651135891
18.701972010356585,144.975424986595,17.32505854377304,10.17334246279887,8.241335102434384,41.42269047761635,16.38265003451451
18.76414223281334,145.08725225553027,17.367032204126748,10.122677283855628,8.217130202477206,41.97758449162188,16.391258568302746
18.830480962230457,145.20303193039334,17.403622513976025,10.074096525727176,8.19311300553039,42.61406370567481,16.398297437160743
18.900662047400786,145.32324330989027,17.434732910362357,10.027760130052267,8.169215765041775,43.333912035519695,16.403655610240797
18.974342546729865,145.44830727486658,17.46030188922569,9.983829405863325,8.145367889055443,44.138820307548656,16.40724239828183
19.051165461476096,145.57851637187483,17.480302617559488,9.942464116207512,8.121504382765433,45.03043480901552,16.408980507534828
19.130755514891213,145.71397197151657,17.494736022675454,9.903828397311807,8.097574355250543,46.01033857721954,16.408804221449437
19.212717894128108,145.85455182209103,17.503627589541463,9.86809875576751,8.07354467423211,47.08001974934674,16.406665309575853
19.29664366520777,145.9999619801681,17.50703114249138,9.835464660209244,8.049397953029604,48.24085045967242,16.402539705506907
19.382115018681205,146.14986348367788,17.50503240872772,9.806121294473307,8.025130127545031,49.49403804037223,16.396426682335587
19.468705437336766,146.3039795583976,17.497744725617533,9.780261982566042,8.00075530639707,50.84055888843271,16.388341761297546
19.555979534378768,146.4621038725662,17.48529933108486,9.758075210133448,7.976318882788395,52.28114637528078,16.378312737898305
19.643496578945463,146.62402674286588,17.467839508270117,9.739743685101494,7.951908316355308,53.81634691471748,16.36638507701648
19.730814285249295,146.78946259099968,17.445522296362395,9.725440743681682,7.927652699816082,55.44660921601791,16.352631316215778
19.817488303767032,146.95802692567517,17.41852050682932,9.715323842735158,7.903715429869415,57.1724180860006,16.33715365793392
19.9030683725355,147.12922640107448,17.387017352455633,9.709529047791756,7.8802872924184015,58.99445334940117,16.32007726653684
19.987098065725434,147.30241805079277,17.351196483362557,9.708170778278326,7.85758064798526,60.91368268597654,16.3015420267147
20.06912468315897,147.47676352109698,17.311236029511846,9.711346809894572,7.835823232491514,62.93136877133708,16.28170156469628
20.148717659009325,147.65121887920333,17.267310488295102,9.719142614593514,7.81525213421319,65.04902469682415,16.260729680959248
20.22548668272725,147.8245422745272,17.21959573127147,9.731631433505527,7.796109896146443,67.26831686447585,16.23882402331946
20.299091381914405,147.99528491152012,17.168269828132992,9.748876963030135,7.778644164416835,69.59097638253286,16.216199692946173
20.36924404128293,148.16177780079906,17.113508946884064,9.770944894833596,7.763109000351305,72.01880293722424,16.19307918905537
20.435721026685236,148.32214107418326,17.055484721243776,9.797914424673383,7.74976398747016,74.55369914330701,16.16968940964229
20.49839214318227,148.4743042909397,16.994368276621547,9.829878001006312,7.73887004705048,77.1976458888311,16.14626620864746
20.557247082107942,148.61602713304157,16.93033771748305,9.866931458599193,7.730683575861086,79.95264919420663,16.12305730202107
20.612393981106056,148.74495431129753,16.863581253056957,9.909163374606319,7.725450530389315,82.8206763486879,16.100317388752053
20.664034713795008,148.85871631304465,16.794293712774362,9.95664844867735,7.723401790863919,85.80354682450468,16.07829969493254
20.712435872466514,148.95502621239518,16.72267123576528,10.00944524156485,7.724749928212566,88.90279488313011,16.05725218533752
20.757905206004605,149.0317431173489,16.648909024479885,10.067595221447911,7.729685829313893,92.11953608329613,16.03742021762486
20.800773825879247,149.08691138616047,16.573202039570358,10.131118982733698,7.738374603979929,95.45434674833994,16.01904857723848
20.841380425152664,149.11876518339338,16.495744150945043,10.200008755449277,7.750952351804626,98.90717764745428,16.00237619206987
20.880055103825168,149.12569481203104,16.41672306139423,10.274220893155116,7.7675256071599925,102.47729871039041,15.987626046921628
20.91710668145566,149.1062090430057,16.336315256030485,10.35367284778967,7.788173140025908,106.16323517200298,15.974999625493306
20.95282026955627,149.0589295969921,16.254688784259347,10.438244715506327,7.8129469641402105,109.96270612797485,15.964681927463856
20.987463816375897,148.98264629383004,16.172014144970944,10.527780602698092,7.841869862388172,113.87260348650912,15.95685164880353
21.02129306630774,148.87643548180435,16.088472509964515,10.622087157090137,7.874931090833341,117.88898669750108,15.95168523787158
21.054552432362808,148.73976977794226,16.004253351921452,10.720933377467768,7.912085175010812,122.00709471978723,15.949351948566518
21.08748348227918,148.5725303673526,15.919546023838377,10.82405530819486,7.953255454162573,126.22145313628083,15.950007724933224
21.12034313015209,148.37493196841834,15.834534667614111,10.93116156705889,7.998337275267337,130.52608404853754,15.953796097754475
21.153414773510587,148.14744560709377,15.749400395328431,11.041934621368346,8.047196410303606,134.91470286745107,15.960854791401905
21.187009098989197,147.8907621301855,15.664325706916557,11.156028882617656,8.099665264441256,139.38079042459856,15.971318206788208
21.221505252640245,147.60577218175982,15.579493605727697,11.273069531702458,8.155541587568054,143.91755413603784,15.985310534545208
21.257516536953,147.29353957152907,15.495080906177497,11.392655662480898,8.214591462208993,148.51786606314087,16.0029363576281
21.296158889190156,146.95527019187665,15.411251658923739,11.514369237639011,8.276555499400335,153.17422231652054,16.024278727767804
21.339241029177405,146.5922703671905,15.328155669626092,11.637785007024542,8.341156088948901,157.87876313568682,16.049404745925322
21.38928582811719,146.20588405842483,15.245930803606594,11.762474019874348,8.408105544542694,162.62338694015617,16.078368244568853
21.44955582598636,145.79743403488376,15.164703607982831,11.887999973583014,8.477116883455308,167.39989005778912,16.11120343448977
21.52423983177685,145.3682234963984,15.084586661288398,12.013914005564526,8.547916435444385,172.2000605001303,16.147916995134647
21.618668899386403,144.91960416203455,15.005677641225336,12.139753620719096,8.620254327977326,177.0157292401399,16.18848948606039
21.739345383470003,144.45302661991454,14.92806564193241,12.265046943475332,8.693909242148484,181.8387484259094,16.23288517756668
21.89379011046147,143.9700078706608,14.851842484834293,12.389318156881792,8.768686218519976,186.6608809282413,16.28105830449065
22.090410878615387,143.47205544616034,14.777109229621374,12.512089778248765,8.84440935080821,191.47371582093638,16.33294871954803
22.338534137243215,142.96060966469977,14.703972679873186,12.632882742604655,8.920913267943096,196.26872486810674,16.388473727914604
22.648487088616008,142.4370028380472,14.632537429165499,12.751219592540952,8.998036483165338,201.03743357240128,16.44752780613807
23.031526445220454,141.90244178506333,14.562901716671018,12.866632873123073,9.075617065969633,205.7715982235809,16.509991493527487
23.499589636529652,141.35811208797904,14.495158768174662,12.978673167968797,9.153489483143634,210.46331399199659,16.57573761047963
24.064964225506085,140.8054397304508,14.429397987364466,13.086911692182516,9.23148232681474,215.105058847972,16.644627751212013
24.73994711153278,140.2463417035526,14.365701671375401,13.190939884519699,9.309418174873835,219.68970673072457,16.71650768676504
25.53658198558377,139.68333089324634,14.304140166261323,13.29037088795386,9.387116020586378,224.21052437307264,16.791211592662503
26.46660443049498,139.1195324041181,14.24477166499335,13.384845788939636,9.4643941428809,228.66116585537245,16.868571659319972
27.54158747382558,138.55865748286098,14.18764959578709,13.474043885986918,9.541070722148737,233.03567505474257,16.948421507344523
28.773034734927073,138.00490432422137,14.132832687834684,13.557690893126141,9.616962072648336,237.3284884286334,17.030589346855024
30.17221987219917,137.46280243512277,14.080388773522841,13.63555918438401,9.691880867716481,241.53441989707235,17.114889670331888
31.749857401016687,136.9370628449966,14.030390282869979,13.707461907964182,9.765636434505547,245.6486264001386,17.201123935702547
33.51576557038976,136.43247258851233,13.982908713981644,13.773248532958299,9.838037015982584,249.66658041353625,17.289089136000253
35.47859410283003,135.95382325499895,13.93801567168518,13.83280594730972,9.908893337436542,253.5840516818117,17.378583053001698
37.64565453952054,135.50582454261368,13.895788970577794,13.886060921221175,9.97802399174058,257.3970929552634,17.46940008536534
40.022872899502204,135.09299130152078,13.85631503324064,13.93297832596217,10.04526153511493,261.1020796783239,17.561324074385347
42.61486387688536,134.71958960780339,13.819682928040395,13.973555885587245,10.110455932892535,264.6958154739296,17.65412749156947
45.42507309699062,134.38969659224486,13.785974254902222,14.007819681901218,10.173474957313925,268.17558712138356,17.7475774781517
48.45585867864054,134.1072701254045,13.75525727183168,14.035821545890673,10.234204379335317,271.5390814575609,17.841440344738462
51.70845235028723,133.87611043920808,13.72758987552301,14.057635709274527,10.292548516960055,274.78425271634933,17.9354785186235
55.182939177461314,133.6997416742229,13.703025969857661,14.073353130590892,10.348428749322007,277.9092712213028,18.02944383460287
58.8784406956537,133.58132926874046,13.681616498290209,14.083076309676663,10.401779707532398,280.91254704757597,18.12307556529869
62.793439977459435,133.52372696079738,13.663405425021962,14.086918506958513,10.45254755360641,283.7927262352789,18.21610562847978
66.92596347287068,133.52961953364965,13.648428436976268,14.085006694483617,10.500693639983595,286.54861599270725,18.308264434424945
71.27348042749733,133.60159712264138,13.636718630892993,14.077483151884072,10.5461997734315,289.1790949751278,18.399280668119562
75.83264364935576,133.74206941342823,13.628313871033333,14.06450252582392,10.589069665498386,291.68306546448895,18.488876817996978
80.59901913086273,133.95310018226175,13.623257246891646,14.046226578362237,10.629326681099052,294.05942301148906,18.57676850806998
85.56687902893617,134.23627696922642,13.621590528292797,14.022820517450002,10.66701075163386,296.30701343868867,18.662671839416056
90.72912998846498,134.59266076826123,13.623349329623535,13.99445216687978,10.702174779449019,298.4246449485668,18.74631214063039
96.07739386141233,135.02281065879,13.628566119198814,13.96129265022652,10.734878782998935,300.41119756003866,18.82742451064448
101.60213353290963,135.52685540874515,13.637276597315768,13.923516396081615,10.765181754724109,302.2657276477738,18.905746845419994
107.29273040235579,136.10455637475894,13.649520037997247,13.8812992287053,10.79313437205738,303.9875181023025,18.981016477437247
113.13756789307432,136.75532016304598,13.665331577535396,13.834815466917648,10.818776335139328,305.5761774282045,19.052979176844122
119.12419213985687,137.4781880220786,13.684733620071219,13.78423575270512,10.842138488067993,307.03179812870746,19.12140510370588
125.23947388969147,138.27183958255276,13.707733455186407,13.729726597476866,10.863245432347725,308.3550295692965,19.18609767844535
131.4696669730001,139.1345914538736,13.734326542409587,13.671452015532829,10.882115119291313,309.5470149151589,19.246890532836538
137.80041919790878,140.0643591871119,13.764498686757518,13.609576288618323,10.89875612873488,310.6093241767234,19.303641127506864
144.21683288037215,141.0585924157295,13.798222677076525,13.54426624562736,10.91316528662485,311.54399893989785,19.356229326550586
150.70352416205188,142.1142211288714,13.835451562481726,13.475694045463266,10.925327782977856,312.35362803887597,19.404558537917755
157.24461972155274,143.22766071319688,13.876113253265972,13.404042068584584,10.935220561718985,313.04128963549914,19.448552547652234
163.82379799312315,144.3949064159221,13.92010984753247,13.329507258361978,10.942819007874014,313.6103562031502,19.488148881971792
170.42448570093956,145.6116686753144,13.967321397973306,13.25230193492673,10.948105667712278,314.0643155760683,19.52329797342121
177.0301035920048,146.87344521735926,14.017609065556483,13.172653315471015,10.951076945845417,314.40669572662637,19.553973159572333
183.62417442696525,148.1754996432233,14.070813409973153,13.090804669627264,10.951745310152594,314.6410330839403,19.580182687704028
190.19029613292176,149.5128192156638,14.126750529824264,13.007016407829699,10.950138857233059,314.7708245117289,19.601970923156422
196.71215413641983,150.88012013967844,14.185211829449216,12.92156381814821,10.94629925642457,314.79947722561303,19.61940852209554
203.17367220549733,152.27188957936102,14.245967460787982,12.83473099919077,10.940277174846246,314.7302502626676,19.632583492420995
209.55920451472247,153.68240959868245,14.308768267850885,12.746802725027791,10.932126531426452,314.5661557187758,19.641602594800787
215.85362971195573,155.1057452755011,14.373344339855894,12.658056652332506,10.921901143295733,314.3098385144951,19.646598697434
222.04235129448048,156.5357301419773,14.439404105105488,12.56875878638765,10.909655279265184,313.96347814406573,19.64773145603316
228.1112888003421,157.96599069996532,14.506638790496607,12.479162637594456,10.89544549560921,313.5287535514206,19.645176817211006
234.04687981055352,159.39003821374317,14.574731887175712,12.389508430499838,10.879330639614997,313.00695071728256,19.639113659191615
239.83607814894583,160.8014034680994,14.643366597005734,12.300019803141923,10.861370354501583,312.39922513242107,19.62971848041483
245.46638120979145,162.19373025764213,14.712225555806528,12.210899339033736,10.841624957965285,311.706836259315,19.617169997044343
250.9259202902791,163.5607826586507,14.780986304098793,12.122325136687511,10.820158336554703,310.9312024076261,19.601654833096436
256.20357724525303,164.8964112119191,14.849321509963488,12.034450337161099,10.797042025130846,310.0739072415943,19.583366135249467
261.2890622552183,166.19453795432474,14.916907145785947,11.947407124597753,10.772357462442507,309.1368704614697,19.562497373309103
266.17294461169155,167.44918046499976,14.983430793078366,11.86131337389962,10.746195080205762,308.1226323146554,19.539240437827754
270.84669187027515,168.65450520571937,15.048592053793922,11.77627701745502,10.718651218040824,307.0344879888804,19.513791604565064
275.3027357831252,169.80488796297422,15.112098273504296,11.692397259076397,10.689826017163723,305.87636663235884,19.486356896446104
279.534488902166,170.8949609165896,15.173664506871193,11.609767934364152,10.659824173255878,304.65263151795034,19.457148312505193
283.53627007532896,171.91964469662287,15.233020334261017,11.528485269032817,10.628756376003027,303.36799018720706,19.426376176871646
287.3032239133776,172.87420505389613,15.289917000163776,11.448654746543433,10.596738565507216,302.0274956908787,19.394250092863068
290.8313109891241,173.75436568575506,15.344128042353145,11.370392236176208,10.563889816560561,300.63649747641693,19.36099054802381
294.11733428738654,174.55641856422292,15.395444856130354,11.293820805054654,10.5303333288047,299.20051068158057,19.326838558259674
297.158938944831,175.27725281515822,15.443673881622457,11.219066893011684,10.496202495077705,297.7251449246646,19.292052812947226
299.95456236769303,175.91430342768817,15.488638814671082,11.146257243820166,10.461646655979003,296.216193178029,19.256899619281434
302.50334591435035,176.4654864733805,15.530184296711404,11.075516230864645,10.426830650636902,294.67977600746707,19.221648500906383
304.8050484863278,176.92922493800629,15.568174911629162,11.006962871808867,10.391929018222164,293.12237118042304,19.186575993183993
306.85999241175887,177.30459509883866,15.602488057391367,10.940707371764661,10.357118627672046,291.5506895252368,19.151966429132067
308.66902743071574,177.59144592459447,15.633005867613674,10.876848700715307,10.322572854494872,289.9714968671943,19.118102519900628
310.2335029217425,177.7903614281539,15.659613544724747,10.81547468892039,10.28846118143588,288.39150743129886,19.0852541277188
311.5553008105072,177.9025394355037,15.682205937411068,10.756663099050975,10.254955258594194,286.8173540344482,19.053677136840157
312.6370147716927,177.9296967871073,15.700695039434994,10.700480639594838,10.222234835995613,285.25551544031595,19.023621805987368
313.4822405188032,177.87400197485968,15.715010784685177,10.646980458797792,10.190486564906461,283.71216082737897,18.995338279569687
314.0957507841554,177.73803680819464,15.725096750230055,10.596204003325449,10.15989752632656,282.1930396609969,18.96907168361446
314.4834014560181,177.5248094239731,15.730908269002965,10.548191014978064,10.130649436364731,280.703509599299,18.945052458892285
314.65188737703653,177.23775265322547,15.732416730634341,10.50299111252665,10.102914859068376,279.2486147232969,18.92349097178778
314.60853420464656,176.88064101918144,15.729615186740842,10.460667238752448,10.076853232634605,277.83311175859535,18.904578295833893
314.36116957925293,176.4574929670251,15.722518132159756,10.421290492199843,10.052606550973039,276.46146875575016,18.888487423934357
313.918043555464,175.9725395583342,15.71115624613324,10.384933014978293,10.030297560722955,275.13786225175494,18.8753691364143
313.287852391082,175.4302152495018,15.695573731574367,10.351663340768905,10.010032223377861,273.8661201603011,18.865344140327792
312.4798980274925,174.83508866663178,15.67583389891838,10.321543562239018,9.991903595517186,272.6495877584179,18.858499236400156
311.50420343320405,174.19173616370145,15.652030002167491,10.294627088796819,9.975992473842378,271.49097822192596,18.854893098746757
310.371410908007,173.50461087363823,15.624291062721738,10.27096058522093,9.962364314339066,270.39230109245335,18.854567654673062
309.09254699893984,172.77793533619456,15.59277709464324,10.250594567238162,9.951067374706168,269.3549232725706,18.85755463945483
307.67881250041586,172.01562096663645,15.557670601417824,10.233597882181511,9.94213650507983,268.37970897647784,18.86387174185828
306.141423085127,171.22121826750234,15.519173815302247,10.220065056156027,9.935599731148862,267.46711120909447,18.873512097227152
304.49145326834247,170.39790670481756,15.477511050264253,10.210112373137648,9.931480775631567,266.6171446095126,18.886434657716876
302.73968216969996,169.54851946692895,15.432928656898751,10.203867098364817,9.929795514909115,265.8292854279456,18.902558873553225
300.896470007897,168.67557392663457,15.38568974026854,10.201455476840849,9.930545722394271,265.1024037525445,18.921761274415218
298.9716732385083,167.78128657757895,15.336068596499448,10.202994137249341,9.933714514273039,264.4347748446332,18.943872090476443
296.9746458806447,166.86760330549976,15.284351087909078,10.208587545180052,9.939266399160346,263.8241164043626,18.968674866229144
294.91439378149937,165.93629694022925,15.230839968504801,10.21832868481736,9.947150427368227,263.2676202046484,18.995912913878012
292.79980545859536,164.98910345640272,15.175856948925809,10.232297225226878,9.957302040705954,262.7620103531697,19.02530115005498
