HandOpen,HandClose,Wrist Flexion,Wrist Extension,Supination,Pronation,Rest
1.2179786271559986e-06,2.706619171457774e-07,0.0,1.353309585728887e-06,6.766547928644435e-07,5.413238342915548e-07,1.353309585728887e-07
1.3691451267078076e-05,2.786919582046338e-06,1.353309585728887e-07,1.4881914620241909e-05,7.576288268693844e-06,5.4385082055197865e-06,1.596456228882502e-06
7.705957802136093e-05,1.4394520929400463e-05,1.4611252703096133e-06,8.138849578773227e-05,4.242603508132153e-05,2.74632475470642e-05,9.253617411591763e-06
0.00029371843997619284,5.119207935791543e-05,7.79249214128215e-06,0.00029944046386095534,0.00016029964365380618,9.469948225912944e-05,3.602664905843066e-05
0.0008632763282003689,0.0001440850223963214,2.7963495000002735e-05,0.0008453874802901071,0.00046484875963659746,0.00025460576785798215,0.000109131269734498
0.00210541738028331,0.0003451769971891079,7.743353844243868e-05,0.0019767038321798006,0.0011141768566712124,0.0005750265092871619,0.0002821918754389965
0.004464216154319197,0.0007319958379332376,0.0001793239534235527,0.004022778126027524,0.0023167372333431796,0.0011440223500415727,0.000660415329377576
0.00849518260978305,0.0014074077346413678,0.0003673970857367124,0.007370808448998617,0.0043218052286090915,0.0020731790562949115,0.0014403688746092898
0.014842493541992791,0.002497334504288456,0.0006969134027118487,0.01245044696968571,0.007408885848436668,0.0035089408848285103,0.002953127752306487
0.02421445277957186,0.004150476885858683,0.001269542482883045,0.019719799127426323,0.011878021133561234,0.005650646059009293,0.005692442276264832
0.037361362873630816,0.00654519546999729,0.0022708570798902175,0.02965800536765736,0.01804178160038418,0.00876740977101052,0.010316701582661276
0.055055681458492794,0.009907207921720337,0.004010410020237348,0.04276869439220899,0.02621928878900662,0.013205820065412608,0.017628181030861917
0.07807312017504929,0.014534779699883246,0.006956271462808861,0.05959259795133054,0.036731438817784734,0.01938610449087357,0.028541372382193397
0.10717562443238837,0.0208223040067058,0.01176083597515675,0.08072274225152402,0.0498962268790771,0.027790073264548965,0.044049440401777606
0.1430992853254114,0.029274163386572807,0.01927067973082646,0.10681488150820019,0.06602557897418833,0.038945590470552884,0.06519178684309837
0.18655095159851487,0.040504848456229196,0.03051240929717284,0.13858766594666516,0.08542752127299143,0.05341017506110546,0.09302367917506743
0.23821727500071427,0.05522554126551802,0.046658247741779575,0.17681107445179028,0.10841603667875628,0.07175521047415162,0.12858912648549128
0.29878588751478474,0.0742209713849191,0.06898360954926111,0.22228619523190535,0.13532645023268358,0.0945538698675444,0.17289726211953202
0.3689701001634707,0.09832174512359793,0.09882536002959574,0.2758216192689092,0.16653040344694037,0.12237483194187453,0.2269033559507705
0.44952364355381524,0.12837717845956648,0.13754355494357506,0.3382111001434054,0.20244420602269156,0.15577864576448652,0.29150045421831455
0.5412370482190068,0.16523194651438605,0.18648770154016905,0.41021452039591283,0.24352763466447047,0.19531251313041423,0.36753001387426926
0.6449184812563452,0.20970636749478014,0.24697010535478564,0.4925417615967186,0.29027447867396333,0.24150670157611764,0.4558124554446636
0.7613681351511064,0.2625795879731084,0.32025086870376474,0.5858395226103986,0.3431983517472758,0.29488208653695475,0.5571854073518051
0.8913522475917287,0.3245800460918144,0.40753644961090013,0.6906840633298545,0.4028170128778263,0.3559717617144718,0.672530278125094
1.035577960033134,0.39639099496990166,0.5099859233255681,0.8075846426592496,0.469637480589545,0.4253470617242693,0.8027739709976279
1.1946697450413613,0.4786713394993573,0.6287148784202323,0.9369987755204926,0.5441431301865874,0.5036394651393189,0.9488676072651386
1.3691493527295768,0.5720791068215422,0.7647903955739599,1.0793525539579885,0.6267826413899044,0.5915659432040199,1.1117542345447853
1.5594205600052247,0.6772830694264504,0.9192163972305174,1.2350559408541164,0.7179609388949195,0.6899700570377963,1.2923356631106435
1.7657597051809923,0.7949588896753079,1.0929126341851632,1.4045073119661886,0.8180338418274193,0.7998687456751412,1.4914420246085072
1.988315833561564,0.9257750912261106,1.2866917400470517,1.588086689848495,0.9273077629927123,0.9224743746316924,1.7098045375570243
2.227125842761618,1.070375010391582,1.501237898751017,1.786140135264818,1.0460435681766935,1.0591754774166575,1.9480319866218374
2.4821433276420053,1.2293584886274538,1.7370929951313316,1.9989601936454393,1.1744624382263216,1.2114872506983279,2.206592376158777
2.7532681484449895,1.4032646426652984,1.9946626380879566,2.226767300547629,1.312751255619343,1.3809910339418159,2.4858054837960957
3.0403612177208794,1.592555722355165,2.2742481507532863,2.469694530290803,1.4610646851954203,1.5692761577715026,2.785853780613774
3.343241174968412,1.7976043665777461,2.5760851799909465,2.7277770522716023,1.6195219690710507,1.7778919906914585,3.1068051561162133
3.661673286005905,2.0186900234848224,2.9003598500179986,3.0009489632463557,1.7881988156202968,2.0083140067758665,3.448626160765814
3.9953630824374153,2.256005292797663,3.247197801817028,3.2890485999835497,1.967116822381026,2.2619262384018044,3.8111765421012755
4.3439578404494945,2.5096623400213867,3.6166463710987635,3.5918272589384768,2.1562341067385873,2.5400178441995362,4.194200092160119
4.7070480018611915,2.7796905280174347,4.008669555766867,3.9089537324316286,2.355441622352508,2.8437814061088593,4.597330774073372
5.084161283931765,3.066029168089554,4.423155074885279,4.240012602202808,2.564567636799457,3.174301198604541,5.020113086860613
5.474753445403859,3.3685262538513565,4.859916350953385,4.584501766493722,2.783386691778691,3.532531643997276,5.4620165960435045
5.8782064640445215,3.6869459846866546,5.318682807721747,4.941837614636108,3.011625489494847,3.919270666017869,5.922433081156822
6.2938376307268635,4.020977732079635,5.799091182096479,5.311368484568263,3.2489621620820275,4.335132321499162,6.400669528307465
6.720910035685566,4.370247323254487,6.300685907091027,5.692385256939062,3.4950225166704385,4.780525718853444,6.895956510399387
7.1586347466327,4.734343483842131,6.822920634723836,6.084121657707845,3.7493799032032213,5.255644236919082,7.407470971408087
7.606167741069027,5.112860548393165,7.365152244100981,6.485751389215749,4.011561088812782,5.760462064182926,7.934352299475921
8.062612448481865,5.505437294956262,7.926628134260371,6.896392023491664,4.2810532043475735,6.294733748464195,8.475699707747388
8.527032193096023,5.911769537019279,8.506473279665867,7.31511511399792,4.557306628974042,6.8579944141527065,9.030564226507556
8.998463396963176,6.331595326855057,9.103685065897523,7.740953840992599,4.839734838603671,7.449559274356218,9.597954120881935
9.475918269273569,6.764673864183841,9.717139477112656,8.17290317247076,5.127715901741543,8.068522694894176,10.176852193764175
9.958378933703761,7.2107746474707906,10.34560159945663,8.609917515946725,5.420599144377768,8.713758798856947,10.766225485197083
10.444795712255893,7.669670294678188,10.98773096135602,9.050915926179687,5.717714886224319,9.383924945970787,11.365017954811082
10.934096624569078,8.141119627065853,11.642084083874368,9.494797798879901,6.018380734824505,10.077468994913978,11.97214043773739
11.425200117550148,8.624844753507526,12.307127057581466,9.940458514236282,6.321902021073,10.79264400079285,12.586476093713031
11.917019430847827,9.120519551231572,12.98126164678708,10.386794522765841,6.627570871751104,11.527533051409542,13.206899285853268
12.40845929966188,9.627775426716022,13.66284869640575,10.832701530558447,6.934669508976605,12.280077720024183,13.832288213659623
12.898415861031125,10.146208540659764,14.350217928774777,11.2770766099704,7.2424781986216615,13.04809917441749,14.461519946550395
13.385786002248977,10.675374070066038,15.041680635901807,11.718827719068896,7.55028228035816,13.829309070040297,15.093459083423669
13.869479558156854,11.214776143266928,15.73556218933944,12.156884125098781,7.8573737456186175,14.621316724459252,15.726958665710402
14.348424852440104,11.763869924837506,16.43024030865571,12.59020361409226,8.163049580643872,15.421642406521594,16.36087465352209
14.821568738161341,12.322073512282314,17.124163799773516,13.017780890144556,8.466612533935338,16.227741396468435,16.99407582593033
15.287879893782364,12.888772255173087,17.815848916810076,13.438658560442507,8.76737644559073,17.037030760689877,17.625438436502968
15.746358396876253,13.463307802435194,18.503868890444394,13.851934747473534,9.064671839527936,17.846909349958306,18.253838719106252
16.196044037342602,14.04496213074774,19.18684808664569,14.256763464532895,9.357846635518985,18.654777995627736,18.878161556145304
16.63601587837287,14.632951528388606,19.86346357574662,14.652349737917838,9.646263149742925,19.45807247251082,19.497322627131112
17.065386583402635,15.2264335160602,20.532454077755986,15.037944170635107,9.929297415310884,20.254304194624964,20.110281685692158
17.483302464924726,15.824514282925806,21.192629750149422,15.41284255269969,10.2063442143225,21.041090410009605,20.7160349610353
17.888953759839655,16.426246757973363,21.84287218040113,15.776392157304876,10.476823712865912,21.816163365113837,21.313601228583195
18.28158561713928,17.030626587086527,22.482124739621025,16.12799767532544,10.740182926024024,22.577362935677417,21.9020224801119
18.660498624197913,17.63659889608308,23.109381187176705,16.46711941138961,10.995891449570124,23.322624547747868,22.480379766846823
19.025041444435423,18.243077353287994,23.723673729575793,16.793265170399078,11.243437061442098,24.0499721332368,23.047804360712778
19.374607559206,18.84896840477034,24.324058966698143,17.105981723510176,11.482326313286302,24.757518978537345,23.603471351397236
19.70864136174303,19.453194611734045,24.909607267276673,17.404850404148213,11.712090138696592,25.443471615211347,24.146587550773933
20.026645256711074,20.05471253280761,25.479404376354687,17.68948722825059,11.93228993604928,26.10613340904633,24.676393251535252
20.328178355198624,20.65252367598013,26.032563823687706,17.959542769835814,12.142520267924006,26.74391716218207,25.19217743158362
20.612850741452757,21.24567851116118,26.568235898781836,18.214698039268878,12.342408604818525,27.355372659248314,25.693286320896057
20.880325166580754,21.833269460625974,27.08560501217865,18.454659468081008,12.531615221496532,27.939211090064592,26.179114871239566
21.130328396408544,22.414413937773848,27.583884273013904,18.679160019930094,12.70983496651449,28.49430648671013,26.6490949706949
21.36266044271801,22.988240686593315,28.062318197875705,18.887968523715006,12.8767986177146,29.019683412772935,27.1026979940932
21.577192233372443,23.5538891087221,28.52019147976894,19.080899575722174,13.032270879342303,29.51451994679341,27.539449133656742
21.773857080382793,24.110513549698144,28.956832939104213,19.2578155773805,13.176046604695024,29.978177326478562,27.958935494442088
21.952648557951154,24.6572798089018,29.37161195182335,19.4186224205432,13.307949413950674,30.410229953695968,28.360799445793013
22.113628875309466,25.193357430159164,29.76394490963866,19.563266397350695,13.427833630596837,30.810465589390038,28.744728422057914
22.25693680032826,25.717922670269704,30.133335048695628,19.691735925645123,13.53558657246266,31.17885844591849,29.110457146697414
22.38278362821326,26.23017463170322,30.47943588666119,19.804064568466163,13.631128768425095,31.515533733053097,29.457781957706406
22.491441287136055,26.72934914408742,30.802092447160714,19.90033028000573,13.714412861401751,31.82073736324955,29.786568734516667
22.58323486915299,27.21471824605118,31.101335815997405,19.980651817399544,13.785424007231306,32.09482585940975,30.096743224240804
22.658543178475213,27.68558063687213,31.377357930029135,20.045189228256024,13.844184574350775,32.33828174895085,30.388276200804142
22.71779925304252,28.14125577298699,31.630503544307903,20.094151945900993,13.890762370820704,32.5517324222206,30.661182101394207
22.76148307477606,28.581085802330747,31.86128025413521,20.127807616480982,13.92527641439182,32.73594789891675,30.915531222623528
22.790108789561458,29.004437922090418,32.07035689774615,20.146482367401422,13.947895533518569,32.89181881912217,31.151456741278253
22.80421561538059,29.410700151683372,32.25853593921031,20.150552937347637,13.958832308713989,33.020327072154274,31.36914473844525
22.804367027869255,29.79927453465122,32.42672024464663,20.1404396904365,13.958338956927177,33.12251800047148,31.56881846823806
22.79115166757968,30.169578541927294,32.57589347820023,20.116607730922787,13.946708619406008,33.19948769556642,31.75073550174767
22.765177879154237,30.521059662253077,32.707104946782074,20.079573195275657,13.924278414707345,33.252394529034916,31.915198777461537
22.727064197988412,30.853213458647627,32.82144552368933,20.02990519552442,13.891428543756508,33.28248135318633,32.06256305120687
22.677434658899337,31.165592472604157,32.92002409195067,19.968219503818347,13.848577186095653,33.29108909417045,32.19322442446874
22.616922160727803,31.457812343786813,33.003963729449985,19.895169061717592,13.796175520364235,33.279658593548824,32.30760364855841
22.54617249579363,31.729568637458904,33.07441672582052,19.811437693575044,13.734706270855561,33.249724427872856,32.40614194286164
22.465840965548708,31.980655549693612,33.13257364513166,19.717737033910637,13.664684296638754,33.202907685602696,32.48931167268328
22.376584465430383,32.21096677554412,33.179648199125474,19.61480107165863,13.58665377791952,33.140913012132415,32.5576244357902
22.279058924968925,32.42047846964676,33.216845969715735,19.50337582183889,13.501179514070168,33.065517531462355,32.61162357173413
22.17392547400057,32.609231904179,33.245334017253334,19.384208417310003,13.408836510169806,32.97854128231136,32.6518712215604
22.061856551820934,32.777331429510724,33.26621879901607,19.2580417167205,13.310203332038624,32.88181313714209,32.678948869643435
21.943532078837528,32.924958013483646,33.28053129496252,19.125615925340316,13.205859444595827,32.77714629167502,32.69347168281882
21.81962782646365,33.052381502299276,33.289215352113686,18.98767087738312,13.096382308521127,32.666317621680065,32.696095930101244
21.690807084567467,33.159956499909775,33.293119469400835,18.844941346072805,12.982342148247957,32.551041740714915,32.687506888492784
21.557721655601984,33.24810743257763,33.293001356908626,18.698146997569765,12.864296931549525,32.43294133770546,32.66840046502825
21.42101569237883,33.317317023411846,33.28954832191584,18.54798680642357,12.742790718044853,32.313521682148355,32.63947880192139
21.281323108786086,33.36811890573566,33.283395094811276,18.395143433343662,12.618355322595827,32.19415866761014,32.60146004840553
21.13925991456433,33.40108529213682,33.27512181897798,18.24029050065782,12.491511804360279,32.07610375254638,32.55508228633753
20.995421338683467,33.41680888475441,33.26524201910347,18.084092338710153,12.362768665196626,31.960493480888683,32.50109011602752
20.850388053493113,33.41589174802077,33.25420079842065,17.927196222272443,12.232618065623168,31.848348163997773,32.44021704651885
20.704733072676333,33.39895506347178,33.24238499239711,17.770225918748963,12.101534820216001,31.74056196080145,32.373182360653274
20.559019584675145,33.366663952862034,33.23012995222405,17.613783324555357,11.969980926502384,31.63789636766854,32.30070132634265
20.413791821131426,33.319741887096086,33.21771280793202,17.45845558654083,11.838412085469386,31.54097888540768,32.223489174315226
20.269568524266628,33.2589619062599,33.20533798752302,17.304818033854733,11.707280573397608,31.45030253471256,32.1422478454738
20.126843530151326,33.18513050232198,33.19312825575769,17.153428481901912,11.577033985225153,31.366233505122235,32.05764810879909
19.986088228143903,33.099081307908904,33.181128625756976,17.00481946433889,11.448113593908372,31.289039903754446,31.970325962590554
19.847748472198006,33.00167346094001,33.169318759329734,16.859495819546833,11.320955525208333,31.218932826938985,31.880893475929472
19.712235945303547,32.893781577701766,33.15762361791256,16.717936289989296,11.195994328779602,31.15609107871409,31.789944843323934
19.579922209365293,32.77627684806666,33.145917009497424,16.58059268805016,11.073664495866671,31.100660210637418,31.698045697818515
19.451144282691033,32.650009864132706,33.13402272123891,16.447883714692775,10.954396598534029,31.05274756670831,31.605717490955996
19.32621873165211,32.515806400271785,33.121719815879565,16.320186165678688,10.838610175443113,31.012428941161453,31.513436562649655
19.2054494682632,32.37447681346723,33.10874844850164,16.197827845587078,10.726708548518339,30.979754467184982,31.421649439615468
19.089122283270513,32.22682527785426,33.09480847997157,16.081083257832073,10.619078148061048,30.954739175636963,31.330784737137858
18.977496507858838,32.07364678448628,33.07955283877227,15.970169380381536,10.516088955774993,30.937347067349307,31.241248134916212
18.870806677495505,31.91571730484851,33.062584095354666,15.865240284849492,10.418091113452691,30.927492022054782,31.153411894748377
18.769272611047086,31.753790996163765,33.043458126501356,15.766383674866969,10.325407654878097,30.92506466267791,31.067617727203828
18.673104808446503,31.588606446002252,33.021691001617256,15.673622772908955,10.238327871606607,30.929962884644542,30.9841917343636
18.582499701824734,31.4208893408853,32.99676289342894,15.586922603559062,10.157105937779793,30.942097340193968,30.903451208318206
18.497634835477378,31.251343221429345,32.968123074787925,15.50619548164256,10.081964550986244,30.961371633731368,30.82569328668295
18.418674774635377,31.08063906990121,32.93521634405872,15.431301885641627,10.01309774851812,30.98765753914718,30.751180248861587
18.345783092474452,30.90942714807499,32.897541782721134,15.362048691997634,9.950668552039733,31.020782608723074,30.68014157955685
18.279125690352327,30.738378680492588,32.854715142738875,15.298190900630798,9.894803945793498,31.060535612549298,30.612791459678917
18.21886101593464,30.568228211080363,32.80649397972789,15.239442738504163,9.845592806545486,31.106678897419613,30.54933904558699
18.16512937178972,30.399782616084572,32.75276217897686,15.185496674435708,9.803088478103685,31.158951451550752,30.489978731386675
18.118053863839695,30.233900867763417,32.693502876981974,15.136039105529226,9.767312278933185,31.21706287381411,30.434873731925133
18.077749214581438,30.07147022788111,32.62878557510991,15.090754534402855,9.738254218265006,31.280689950588837,30.38415240102081
18.0443239760277,29.913387734266703,32.55876997865066,15.04932313385068,9.715871451283457,31.349476551544054,30.3379188271411
18.01787176437275,29.76053911469157,32.483707475833334,15.01142014811605,9.700087927824578,31.423027893344987,30.296260425560813
17.998462633862196,29.613773245875507,32.403927426971045,14.976718173780592,9.690797221644576,31.500899421270645,30.259240096615798
17.986145699639287,29.4738833180334,32.319819734830645,14.944888515734693,9.687866448326918,31.5825932111892,30.226882449028565
17.98095955385213,29.34160249515488,32.231825711709874,14.915600018035184,9.691138324019532,31.667569583965857,30.199171572527053
17.98293640554948,29.217604202824194,32.14042958252349,14.888518171336564,9.700431157537441,31.755262464717376,30.176062106404853
17.99209412187698,29.102492413351047,32.0461417974032,14.863308674081582,9.715538404545743,31.845082550206936,30.157487184137654
18.0084263994754,28.996783041494155,31.94948714623003,14.839645523555166,9.736229663862733,31.93640808507029,30.14335193442057
18.031903112622075,28.90089013050628,31.851019299062344,14.817218465023364,9.762253405976974,32.02857604229061,30.133523060113113
18.062478304309444,28.815123999190877,31.751354966490656,14.795734905046054,9.793339336549895,32.1208891609831,30.127832232215376
18.100092373487126,28.739693863659006,31.651191820819438,14.774916453200891,9.82919882396027,32.212641684505066,30.126092768415056
18.144663544129433,28.674704685450454,31.551292014172574,14.754495469667717,9.869524174666495,32.30314328685882,30.12811063510016
18.196079020801147,28.62014852217083,31.452451214082444,14.734216822087104,9.913988501390499,32.3917224258107,30.133679263861392
18.254197315118795,28.57589951688458,31.35547863833478,14.713843046289291,9.962246786566585,32.47772030136056,30.14256993626613
18.318859001332097,28.541720738267426,31.26118921587068,14.693157174385403,10.013936445588325,32.560502446499704,30.154534592606147
18.389891590724318,28.517280964465932,31.170391935634644,14.67196237698866,10.068675609926107,32.63949397210659,30.169320110844545
18.467101686336402,28.50216951005919,31.08386633193979,14.650082923339726,10.126060564134573,32.71421232430966,30.186676002278634
18.550264641466168,28.49590184405727,31.002337153764486,14.62736889058811,10.185666368378715,32.78427365644345,30.206345910645464
18.639125671107276,28.497924996716765,30.92646590022689,14.603700441915652,10.247052545775016,32.84937827727407,30.228055267689836
18.733411817502684,28.50763632361659,30.856864428843828,14.578986234252545,10.309770398973095,32.90929274532443,30.251513118807186
18.83284067427073,28.524411280959892,30.79410916447359,14.553157037514344,10.373367491631864,32.963835986934725,30.27642862051626
18.937118341617058,28.54762023298585,30.738733490417914,14.526161631139978,10.437389352800604,33.01286646680506,30.302522711951887
19.04593541966796,28.57662656005536,30.691204928966926,14.497970841391346,10.501382019034073,33.056270822293236,30.329521425234844
19.158972868549945,28.610781076884763,30.65191161767983,14.468587178296907,10.564898616847916,33.093961996089725,30.35714232491706
19.275915699267813,28.649429548528442,30.621171026094043,14.438050577115852,10.627509134926534,33.125886215032935,30.385094013166814
19.396460091054042,28.69193200630491,30.599250765786024,14.406434318234297,10.68880842755962,33.15202458015422,30.413089846601533
19.520307164357217,28.737678359233808,30.58638228218844,14.373834455506525,10.748419102189526,33.17238113019352,30.440857445166422
19.647154237895723,28.786089051745844,30.5827590394046,14.34036182395555,10.805991385027339,33.18696710031666,30.468132952808308
19.77669665668232,28.836605391029153,30.58852833593179,14.306143178038788,10.861204433974203,33.19580035694508,30.49465135298037
19.908637413939015,28.888682716760375,30.6037911007331,14.271327436053536,10.913770010315815,33.19892750814821,30.52014985856988
20.04269023957271,28.941790622062342,30.62860783828989,14.236086879604944,10.963434468265103,33.19645014755489,30.544384219474164
20.178570939676575,28.99541270534737,30.662996796763974,14.200610797867494,11.00997633330251,33.18853228097192,30.567139838447225
20.31598797587621,29.049043379177405,30.706923696742273,14.165099685971049,11.053202466487813,33.17538907839836,30.58822570540148
20.45464465941446,29.102187623618796,30.76029563861342,14.129767422361168,11.092947995858298,33.157268378312295,30.607461577716244
20.594250530033037,29.15436248046835,30.822962110581845,14.094847862647969,11.129081602005108,33.13443049425467,30.6246770662315
20.734527171792422,29.205093588982532,30.894712362716852,14.060596087921652,11.161511664597777,33.10712887522815,30.63972437536873
20.87520112712131,29.25390937491033,30.975264248787607,14.027280902160237,11.190187413969579,33.075592896359396,30.652486779723485
21.015993455089443,29.300342787244315,31.06425491940055,13.995173950747954,11.215094727531161,33.04001258510109,30.662871125098793
21.156618126895967,29.343944051864785,31.16124330865044,13.964543299972117,11.23625070783683,33.000530115085205,30.67079539386998
21.296787817548346,29.384295825970533,31.265718239822448,13.935654011720928,11.253700038666429,32.957251237325046,30.67618978387221
21.43621603380859,29.42101851848903,31.377099561308,13.908769533885334,11.267512557441098,32.91028147369918,30.67901216926548
21.57461176054477,29.45376408385522,31.49473204827661,13.884148170971425,11.277780076539324,32.85976467186882,30.679258073113235
21.71167515540702,29.48220930260172,31.617883634655684,13.862038032554695,11.284612217589283,32.80589567573035,30.676951189818006
21.847103945186817,29.50605633357085,31.745755038779713,13.842676242765302,11.28813271190549,32.74890806328376,30.67212507969711
21.980607373531004,29.52503403561465,31.877493476161327,13.826290828486185,11.288478024473825,32.68905713867769,30.6648155745546
22.111913067450608,29.538891894864562,32.01219872708644,13.813098531419975,11.285798693201913,32.62660676985084,30.655067201413058
22.240760822011566,29.547390997968744,32.14892132283403,13.803295950819422,11.280260268322008,32.561814982285206,30.64293792693155
22.366894484327805,29.55030358717661,32.28666363214783,13.797048663676962,11.27204090946657,32.494917307426434,30.62849038547729
22.49006421665929,29.54742409442959,32.42439164743627,13.79448527682896,11.26132776790523,32.426119850009776,30.611777644368907
22.610037329498226,29.538579993446508,32.56105239775294,13.795698756580212,11.248316892741338,32.35561451162496,30.592839801717002
22.726605213888426,29.523630643792142,32.695585421422244,13.80074964539104,11.233217892211842,32.2836082371922,30.57171423648932
22.83957991303844,29.502457551226875,32.82692734626928,13.8096645653985,11.216258713890245,32.21034379669681,30.548444500976526
22.948788380034763,29.47495969529609,32.95402421379742,13.822430260281434,11.197684992890062,32.136102000744835,30.523076434220457
23.05407563682242,29.44105983322099,33.07586103587532,13.838988883288819,11.177754002747875,32.06119110781648,30.495650005610358
23.15531499376624,29.400711643673763,33.19149283831133,13.859239985632868,11.156728619081422,31.98593201801326,30.466202579950455
23.252411507424764,29.3538967081204,33.300054805812835,13.883049203474954,11.134876528626718,31.910644058057247,30.43478374672238
23.345292387018283,29.300615124212946,33.4007531143844,13.910256745938133,11.112473716156282,31.835629870005885,30.401464416086316
23.43389529762646,29.24088028048389,33.492855831567056,13.94067964518493,11.089805538524171,31.76116011830318,30.36632940784857
23.518167874965144,29.17472008864161,33.575694562856164,13.974110531122147,11.06716145681947,31.687469717163644,30.329463995375253
23.598076392235367,29.102177631607727,33.64866952504499,14.010320799111229,11.04482656629435,31.614771134464153,30.290951456345745
23.673609406993677,29.02330765574345,33.71124645524968,14.049069907807334,11.023075395445161,31.543267735239034,30.250883844496915
23.74476964643103,28.93817662747778,33.76294660224822,14.090112901232818,11.002169833587754,31.473149864219366,30.20937089113949
23.811563196802865,28.846870829318778,33.80334340242649,14.133200404807102,10.982358166043923,31.40457935582784,30.16653501597915
23.873998462597893,28.749502051864223,33.8320742488924,14.178076283864055,10.963872056716326,31.337676273398774,30.122499811859587
23.932094605957108,28.64620185483243,33.8488560619625,14.224480491848043,10.94692232379117,31.272510590024513,30.0773897823468
23.985886191874464,28.53710928838717,33.85348588426996,14.272156386801075,10.931696256013977,31.20909404441635,30.031345621088764
24.03541624759544,28.422360799091535,33.845825656169545,14.320855207133613,10.918357334072331,31.147370862221717,29.984536579944407
24.080726617564423,28.30208805784615,33.82578715864045,14.37033354829161,10.90704544888024,31.087211992208342,29.93715355271527
24.121857657395886,28.17642419043143,33.79332652677891,14.420348155360765,10.897875510059382,31.0284171386306,29.889392741413154
24.158855422083114,28.045509711507105,33.748442169008555,14.47065512591301,10.890934787306332,30.970722935754303,29.841452219360303
24.191774413778248,27.909489438014763,33.691167481778855,14.521014902522683,10.886281456677946,30.913811196137313,29.793545294578248
24.22067082892198,27.768503715134944,33.62155969015131,14.571197844778634,10.883946620623343,30.85731254370882,29.745910261284596
24.245594670475086,27.622684772142478,33.53969396607507,14.620985165064466,10.883938611736845,30.800805612284083,29.698800748734783
24.266592588461084,27.47216302166636,33.44566722487769,14.670165656112976,10.886245586675392,30.743816100775792,29.652466879694828
24.28372051093687,27.31707608092744,33.3396031008634,14.718533511294504,10.890834533857563,30.685822711704564,29.607146991751982
24.297050898216003,27.157570502554364,33.22164775539227,14.765892357689337,10.897648614204417,30.62627449501266,29.56307286610899
24.306666392648623,26.993796700567263,33.09195920636758,14.812064149170336,10.906606735935423,30.56461291275077,29.520473158349873
24.312649913892237,26.825907340320487,32.950702651837986,14.856894409027463,10.917607560383377,30.500285346796293,29.479564059517816
24.315084076949685,26.654065074357575,32.79805820741958,14.900248155086967,10.930535046417196,30.432748828383673,29.440535122895035
24.314058904397758,26.47845152392941,32.634232122276686,14.942001393677877,10.945261380640792,30.361480894339838,29.40354590337331
24.309675872291653,26.299266126258818,32.459459504401025,14.982037266366731,10.96164800937787,30.286010410190457,29.368735294822528
24.302041839454066,26.116716436922268,32.27400111762684,15.020249444975725,10.979549044454577,30.2059536733676,29.336227271034215
24.291259831157326,25.93101136397601,32.07814565344894,15.05654690802049,10.998818858263569,30.12103013936794,29.3061215529071
24.277428387430064,25.742362457501162,31.872218694490048,15.090853385685307,11.019319716559309,30.031054640070266,29.27847933830363
24.260650486399165,25.550986596493807,31.65658704944693,15.123102182322262,11.040923209932613,29.935920886627727,29.253321269417356
24.241038744179793,25.357103934828388,31.431652005961546,15.153233946113897,11.06350496941834,29.835584440434403,29.23063871313739
24.218707995760532,25.160934034690484,31.197840110443714,15.181202022751696,11.086939411182378,29.730045089338798,29.210401521614337
24.19376420421359,24.96269721527758,30.9556038312489,15.206979965526473,11.11110177888405,29.619329418551573,29.19255102980878
24.166303303626165,24.76262702569519,30.705431450546513,15.230562529342578,11.135877055025793,29.50347775397355,29.176989150872803
24.13641980196514,24.5609905979436,30.447853831805823,15.25195873669285,11.161167542762007,29.38254518230213,29.163581989591865
24.10421195903597,24.35810147959703,30.183443307600754,15.271183186857362,11.186892849198404,29.256624444847226,29.15217839383317
24.06977635557698,24.1543194011281,29.912813670325356,15.288253527273712,11.212984599731946,29.125877696867477,29.14262360227709
24.033200940979796,23.950056506143284,29.63662992636005,15.303195567886878,11.239382892509497,28.990551837894536,29.13475498439622
23.994568611794865,23.745803281016336,29.355623863218533,15.316047764292732,11.26603761311297,28.850974236736295,29.128391244443712
23.953969457458445,23.542151844338566,29.070599223218206,15.32685805324961,11.292910569577415,28.707544343948964,29.12333437932009
23.911507801546517,23.33979026425688,28.782416821446038,15.335677200836663,11.31997378020284,28.56072362882915,29.11938609424441
23.86729632381033,23.139474822178972,28.49197158846039,15.34255727106155,11.34720491335926,28.411016800900722,29.116360704593962
23.82144514729982,22.942003888446692,28.200179061978467,15.3475564636259,11.374584134410027,28.258949033330968,29.11408180281309
23.774058111462388,22.748203515781686,27.90797166548842,15.350743098708906,11.402094185836289,28.105055043521165,29.11237236628214
23.72523741617972,22.558916964869187,27.616291206398124,15.352193136779519,11.429720665906192,27.94989073500108,29.1110568874731
23.675086620220288,22.37498741766532,27.326071470690295,15.351984622923176,11.457448672344219,27.794055547236084,29.10997788237707
23.623705065116727,22.19723459129681,27.038221814868866,15.350196619851173,11.485256677209389,27.638201545099314,29.10900825547433
23.57117851749732,22.026435850651474,26.753625522637968,15.346914255610011,11.513111509803533,27.483027916599305,29.108045550474472
23.517575569059726,21.86331864916413,26.47314995582388,15.342232840748347,11.54096637916155,27.32927765340359,29.1069971850434
23.462951523816606,21.70855817221851,26.197650558046305,15.336254505877559,11.568760347413525,27.177735582978332,29.105775234954358
23.40735116526772,21.562770493688955,25.92795932051178,15.329080545200046,11.596416444013165,27.029214463524397,29.10430519353779
23.350804480349296,21.426506557444096,25.664870235928845,15.320808647650823,11.623838320765186,26.88452921954462,29.10253351384006
23.29332187256285,21.300263627499618,25.409142318608865,15.31153782104475,11.650908239112578,26.74446828591656,29.100420602031885
23.234899082007612,21.18451325039592,25.161521774728655,15.301373274096274,11.67748891729718,26.60977068126631,29.097927330538017
23.175530360446967,21.079720124405057,24.92275934220191,15.290423856856185,11.703429063530516,26.481119016571256,29.095013831702087
23.115216778528126,20.986335050105367,24.693604246977866,15.278794685109721,11.728568997745285,26.35914823264355,29.091654156146078
23.053962960307615,20.904773341205562,24.47478456165384,15.266583953338909,11.752742742411321,26.2444514704376,29.087848439492028
22.991771061730443,20.83539869006013,24.26699358813065,15.253888099104945,11.775776938963705,26.13756957085293,29.083616952701295
22.928644116006495,20.778518845064678,24.070886273211354,15.240808543981613,11.797489375960124,26.038976366899284,29.07898378500166
22.86459872054319,20.73438373522106,23.88707400060633,15.227451469130461,11.817688870302048,25.94908697527784,29.073969138931812
22.799674004097014,20.703176601299532,23.71611126185419,15.213921495546263,11.836179251900756,25.86829936067941,29.068595427339275
22.73392803194068,20.68500464426253,23.55848436099807,15.20031699833905,11.852773812832663,25.797039690103848,29.062892745006547
22.667429280554796,20.679909683152196,23.414611635604885,15.186732525923212,11.867319521352265,25.73577349471298,29.056891541335634
22.600255191327886,20.687907322647636,23.284847162348694,15.173264942961946,11.879715879146849,25.684982159345637,29.050609852597226
22.532496784472613,20.709028797792673,23.169475238725887,15.160014508960721,11.889916562465826,25.64512854941918,29.044050684820196
22.46425796565691,20.743332682213605,23.06869762711534,15.14707881917504,11.897918552325516,25.61662683821789,29.037212345133902
22.39564535326932,20.790888906384012,22.98262872868664,15.134548066743545,11.90374905541253,25.59982215417068,29.03009711271473
22.32675839681566,20.85176236707335,22.91130984636646,15.122509998620268,11.907458810346116,25.594982451421533,29.02270553698498
22.25769182499023,20.92600812968676,22.85473287869814,15.111060795425303,11.909131660393198,25.602299213030705,29.01502263208234
22.188549194058492,21.013665482741704,22.812850617221898,15.100310153136585,11.90891070506884,25.621888919902737,29.0070124785807
22.119452783395573,21.114739935178974,22.785567839439953,15.090377054870999,11.907020653209134,25.653788284726875,28.998626439895656
22.050540154650143,21.229181411448458,22.772731283427213,15.08138369002663,11.90376694783795,25.697943344274485,28.98981152944842
21.981953927496004,21.35687400209436,22.774132619532867,15.073453916597362,11.899516391018754,25.75420073375185,28.980506441753676
21.913837155031317,21.4976406747503,22.789516483807112,15.066714638174583,11.89467566064111,25.822313729239397,28.9706324739361
21.846337134183997,21.651249345943395,22.81857928572957,15.061294516952684,11.889676824340697,25.901973599375204,28.960095217177752
21.779608304111033,21.817408646553094,22.86096097138569,15.057318362147166,11.88496904839238,25.99285773090736,28.94879827598274
21.71380661844599,21.995763136885056,22.9162492546538,15.054901607483782,11.881010465081166,26.094662440471115,28.93665343334767
21.649080030223377,22.185905694356258,22.984010115540936,15.054149431455274,11.878256496402729,26.207102243540145,28.92357730661439
21.585563963312435,22.387403213809502,23.06382852083994,15.055159687361021,11.87714737424601,26.32989419957171,28.90948326491242
21.523382836501764,22.59981081978443,23.15532682620191,15.058025102060258,11.878100234511058,26.46274795685372,28.894283574123907
21.462650685296417,22.822662937520494,23.258152958992053,15.062831319606223,11.881507393122757,26.605356851615234,28.87790377911065
21.403465628359044,23.055457180901218,23.371961456130922,15.069651457007268,11.887736052118312,26.75738179685507,28.860293672891693
21.345901183160137,23.297650454525865,23.496405388518625,15.078542522996905,11.8971235036738,26.918439096156302,28.841421454251833
21.290003040313422,23.548666913871585,23.63113258600295,15.08954790162714,11.909967816191863,27.088110280740043,28.821258856354547
21.235795791693974,23.807902114057683,23.77577435516384,15.10270150326617,11.926518955269831,27.2659706008875,28.799775821488804
21.18329199604245,24.074716582016105,23.929928978712812,15.118026035697978,11.946973978999612,27.451609641001458,28.7769496974747
21.132492714007423,24.348433251175894,24.09315091097389,15.135525706430379,11.971475557139287,27.644631731518768,28.752774066135125
21.083380542860887,24.62835412974567,24.2649504267944,15.15518102790636,12.000110709567185,27.844660162028877,28.72725410293699
21.035916285965836,24.913786455623388,24.44479672799377,15.176951277717968,12.032908448563939,28.051364573117215,28.700395754913885
20.990045169248535,25.20405448517728,24.632116028375275,15.200781154497491,12.06983933654087,28.26448682786545,28.67220644564616
20.945704934540164,25.49849799909467,24.826288485365893,15.226603987322774,12.110821414995506,28.483834378021406,28.642711533014165
20.902825854435196,25.796485988290748,25.026658123297423,15.254339652788694,12.155730742852983,28.709250809639386,28.61196882199002
20.861325112574548,26.097452755362454,25.232559332025136,15.283891611725318,12.204408517227197,28.940592757055285,28.580064002270372
20.82110644913911,26.400924264219263,25.443340747544973,15.315148174388787,12.256661124302852,29.177721485132377,28.547093817372815
20.78206886395336,26.706511204656472,25.658368167081317,15.34798856692274,12.312257036459373,29.42049440900583,28.51315818771719
20.744115118264318,27.013884821586423,25.877014504169743,15.382287812580946,12.370925166946122,29.668744271706775,28.478369248689777
20.707150308789107,27.322759768820468,26.098657772232894,15.417915017794952,12.432356527636172,29.922253665882046,28.442861558709755
20.671074262126027,27.63288472698739,26.322692170775007,15.45472780775111,12.49620820003573,30.180749962616613,28.406786265325522
20.635780537275625,27.944027724603004,26.54853694744062,15.492571588306596,12.562106872647366,30.44394222546283,28.370294698175115
20.601166668632597,28.255952247959737,26.775630153366386,15.531289410413844,12.629651062127426,30.711583082752746,28.333531353630157
20.567144868928775,28.56839507922892,27.003412488134344,15.570736797430992,12.69841429831493,30.983505278061635,28.29664306203427
20.53364153252705,28.88106060343221,27.231314469112192,15.610789112550398,12.767950978711893,31.259610149242782,28.25978859864044
20.500588407829262,29.193631412897595,27.45875307841541,15.65133781629533,12.837802847112043,31.539832712627085,28.223133710813478
20.46791822554784,29.505775816972612,27.68513299772538,15.69228339646965,12.907502650494044,31.824109904403638,28.18683729724042
20.435570539491554,29.817138647205365,27.909844297644092,15.7335319300999,12.976574510856583,32.11235400065641,28.1510452339468
20.403498481500044,30.12732540812195,28.132255290936275,15.774993992219722,13.044534483111375,32.40442522435778,28.115897190822643
20.371665976572544,30.43589894132258,28.351708119598058,15.816580626171671,13.11089588747073,32.700106818195955,28.081533369023745
20.34003897269546,30.74239400812063,28.56752794641897,15.858195233192975,13.175179414464665,32.99909444830787,28.048088593772924
20.308582094584217,31.046334644759646,28.77904611050925,15.899726622672022,13.236921272050571,33.3010078883378,28.015679985056494
20.27726438801111,31.347238073238664,28.98562075086687,15.941048976129585,13.295674450176092,33.60541495275331,27.984403429096314
20.246065201463324,31.644609768028822,29.186640647671904,15.98202761090404,13.35100827451621,33.91184530890021,27.954342050307822
20.214971265940857,31.93794253103692,29.381516244727898,16.0225232982104,13.402515913789502,34.2197842037358,27.9255739110352
20.18396893833764,32.22671754101556,29.56967039626787,16.06239100449704,13.449830130082763,34.52865607661589,27.89816838694994
20.153042519076884,32.51039850935682,29.750535163909298,16.101476689975957,13.492635701303112,34.83781370739969,27.872177162533347
20.122181619561037,32.78842050008305,29.92355078769103,16.139618552114754,13.530670336411415,35.14654057776627,27.847634008051823
20.091388737751995,33.060180886152466,30.088160788362806,16.176653784986613,13.56371952377355,35.45405961589382,27.824566886101355
20.060678325730706,33.325039866171835,30.24380565397454,16.21242404237506,13.591616226199134,35.759536268773275,27.803008670964203
20.030069864905922,33.582339946400154,30.389924859674135,16.24677352205205,13.614247742566773,36.06207455808152,27.78299327103987
19.999584696299117,33.83144114209693,30.525970015610664,16.279542963737857,13.631560391962385,36.36071260119301,27.764542884031723
19.969250705748383,34.071748354480356,30.65141753853845,16.310568553696587,13.64355456271427,36.65442046871231,27.747664227520485
19.93910696432852,34.302718317435726,30.76577042456333,16.33968933274691,13.650274774686912,36.942099843566936,27.73236016187077
19.909199437096234,34.52385743538626,30.868554616974446,16.366756406972794,13.651804872605732,37.22259002413297,27.718641214699765
19.879570960163093,34.734716532795275,30.959322808725027,16.39163574341505,13.648271645002856,37.49469468647626,27.706521107273435
19.850256197032774,34.93487747369458,31.037669249996867,16.414204859699346,13.639848842500925,37.75723413310898,27.696002279560375
19.821285763958766,35.123935006707086,31.10324472352081,16.43435081089115,13.626752866870612,38.00909523905274,27.687070173638322
19.792691810605223,35.301484394224396,31.1557593038905,16.451973868964263,13.609232229447862,38.24924733602885,27.679703040927294
19.764506293069083,35.46711820828412,31.19497559765765,16.46699144176742,13.587559651684733,38.47672767737822,27.67388301402383
19.73675426109087,35.62042555338549,31.220708105169862,16.4793350658022,13.562031030263011,38.69062005044052,27.66959311842661
19.709451730755756,35.760987362187926,31.23283567056952,16.488942332648858,13.532966332478681,38.89003995881344,27.666804352717477
19.682611677082903,35.88837050573532,31.231313233425343,16.495751186565688,13.500705787003913,39.0741269387917,27.66546912223535
19.656250050232007,36.00213096898998,31.216168380616825,16.499700324997853,13.465601728361738,39.24204096627194,27.665527576393373
19.63038290096224,36.101834965754456,31.187486840151358,16.50073214010155,13.428011887865363,39.39296405423738,27.666914902328127
19.605017655582802,36.18709229925547,31.145399577713334,16.498792132769548,13.388298026599486,39.526110548998574,27.669556688250406
19.58014966325417,36.25758217487181,31.090078156341214,16.493824377805563,13.346827309489772,39.64074367521271,27.673357490945794
19.55576839928405,36.313060426022304,31.021735392333923,16.485769404440262,13.303970457089907,39.736189971901716,27.67819857255076
19.531865216530953,36.35335950010008,30.940622833178686,16.474569779390176,13.26009457572449,39.81184441342272,27.683949822123058
19.508433556227008,36.37839451580647,30.84702320848626,16.460179982240536,13.215555011883554,39.86716523252019,27.690481956316987
19.485463405549147,36.3881685401693,30.741247404975482,16.44257174650963,13.170693052049804,39.901667306754284,27.697665333056698
19.46293996154998,36.38276432614558,30.623642460873914,16.421731258055484,13.125840870952663,39.91492989618956,27.705360981406788
19.44085130583034,36.36232831980192,30.494601594768415,16.397653401114777,13.08132688704001,39.906622005785394,27.713419533241595
19.41919611704317,36.32706766599093,30.35456374421885,16.37034059468941,13.037475252692447,39.8765246855804,27.721692188564937
19.397980706403175,36.277268501292866,30.204003950276103,16.339807419846476,12.994601098961088,39.824531384200306,27.730040886588764
19.37720914474644,36.21331509198743,30.04342640869597,16.306084463651032,12.953006592889496,39.750634751053454,27.73833532322562
19.356879571775874,36.135687005157884,29.873365866531973,16.26921615971929,12.912979624089132,39.65492431607308,27.746440910633687
19.336991712987487,36.0449420790892,29.694389663368764,16.229255513763412,12.87479303854143,39.53760787965411,27.75421256660336
19.317555689559097,35.94170804227973,29.507091140359083,16.186263140193187,12.83870176479867,39.39904037049938,27.761500970606786
19.29859034323615,35.82668476430166,29.312077971374862,16.140315509203212,12.804937602943735,39.23973145090048,27.768160229640532
19.280113024950396,35.70063893478597,29.10996897634291,16.091517834663104,12.773705056590007,39.060325313798366,27.77404424354958
19.262133024043404,35.5643822755244,28.901404781755883,16.040009924842987,12.745181900304729,38.86157044281697,27.778996223270784
19.244655267998436,35.418742722899324,28.687058713219713,15.985960593520264,12.719522267356469,38.64429932480877,27.78284690621488
19.227687332646205,35.26454036426476,28.46763246125682,15.929558077812484,12.69685634214193,38.409423572881806,27.785426689759557
19.21123914367455,35.102573082849574,28.24384001901336,15.871004650901094,12.677285276354835,38.15793280171723,27.786578219611012
19.195316174942757,34.93360943401432,28.016395155955404,15.810515679714957,12.660875302815894,37.890890648593015,27.786155988518548
19.179917482400533,34.758381331273995,27.786009012915123,15.748317296811805,12.6476552595816,37.60943626971651,27.78401777342479
19.165044086755845,34.57757658882101,27.553389071700995,15.68463998572022,12.637617656419236,37.31478853020173,27.780023240666903
19.150708202651604,34.39184192686574,27.319231390573798,15.619713535435615,12.630719538383728,37.008236079352834,27.77404479169521
19.13693201586872,34.20179691803872,27.084215994810236,15.553768067168194,12.626881177405489,36.691113662540026,27.76597736678767
19.123738618032064,34.008042135365024,26.849019665096446,15.487036604363592,12.625985222951089,36.36478823550373,27.75573366881455
19.111146988877515,33.81115240487292,26.61433806301439,15.419752887963629,12.627879806362683,36.03066920910188,27.743230539660765
19.09917605932847,33.61166682911205,26.380894586888388,15.352144799484485,12.632385534957923,35.69022415573267,27.72838419901727
19.087849748788916,33.41009180309316,26.149429243132072,15.284427022784557,12.639302051468407,35.34497298510526,27.711120656618473
19.077193631657362,33.20692000670075,25.92068259154409,15.216796741693978,12.648410225768718,34.99646223422875,27.691386808213377
19.067225371611606,33.00265112266775,25.69539230118863,15.149435287028679,12.659470907242959,34.64624353023284,27.669147253588992
19.057949183260778,32.797797724361686,25.47430259744708,15.082512858655818,12.672224443402412,34.29586890252506,27.644372482849136
19.04935951401564,32.592877295077166,25.258168855624433,15.016189721249253,12.68639384291026,33.94689187497633,27.617036605403758
19.04144705082033,32.38840252033399,25.047745379467635,14.95061315127558,12.701689802995475,33.60086289779889,27.587130890592707
19.034197857952492,32.18487303583124,24.843765597725465,14.885916257799952,12.717813538853694,33.259321529020674,27.55467736237468
19.027587066141244,31.982764173896424,24.646929951334737,14.822222828903575,12.734457520800621,32.923784150887556,27.51972605394875
19.021576633448664,31.782514958477588,24.45790271133496,14.75965457524205,12.751308573809924,32.59572036995704,27.482341653984413
19.016121898460614,31.58452709222196,24.277306402400743,14.698333698432942,12.768055439889974,32.27652140409957,27.442597961075172
19.01117978477666,31.389182697389558,24.105707619230344,14.638378884381867,12.78439728542509,31.967469695459986,27.40058624174074
19.00670900141201,31.19686865032222,23.943600843414686,14.579899655554069,12.800048226084884,31.66971649203847,27.356423257054637
19.00266343715143,31.007985259657563,23.791401664285193,14.522994768622793,12.814736757253582,31.384275898078045,27.310244902279333
18.998989465969427,30.822933991682593,23.649455571829872,14.46775462513333,12.828203199732103,31.11203893007892,27.262191715059103
18.995633269698704,30.64210007237084,23.518054479611333,14.414262045057466,12.840199496056703,30.85379263298552,27.212402887738634
18.992550249608012,30.465849491394977,23.397444948956053,14.36258776923792,12.850492551688658,30.61022843342046,27.1610226021483
18.989705542775805,30.294543768125518,23.287827222674316,14.312784187085086,12.858867561172739,30.381949066823537,27.108205061365307
18.987067125831796,30.128553094367078,23.189360614554683,14.264883971753822,12.865128275031456,30.16948618448581,27.054106711721538
18.9846016543346,29.968250561135914,23.102178211922347,14.218905470198624,12.869095837785922,29.973313542383927,26.998871934229108
18.982277484486655,29.813994954827045,23.0263939030243,14.174858919798774,12.870609448689862,29.79383824151848,26.942627749139636
18.9800680868314,29.666116983366514,22.96209273570646,14.132747279232145,12.869529839992518,29.631380349884044,26.885492481731454
18.97794786404209,29.524909509474877,22.909317341322463,14.09256252069192,12.865743351381896,29.486165135393488,26.827585518656374
18.975882929058617,29.390615570586274,22.868064692214993,14.05428316882466,12.859163147629166,29.35833487879913,26.769024644464327
18.973826745416968,29.263415255200673,22.838289767438567,14.017878193920328,12.849726976458266,29.24796149968702,26.70991545457352
18.97172564958685,29.143421278601448,22.819903325153295,13.98331602998487,12.837394692753477,29.155043302918912,26.65034952595939
18.96952761061564,29.030692763760293,22.8127622437615,13.95057125100376,12.822148728948838,29.079490653756217,26.590417628465826
18.96718332333597,28.925260160417086,22.81666512871217,13.919624065371814,12.803996803433495,29.021110545075498,26.530223192943613
18.964638589407826,28.827138796706798,22.83136129237938,13.890455034841738,12.782973131774408,28.97959606354891,26.469880163196727
18.961829073435855,28.736321010452063,22.856563368022933,13.863040186631252,12.759135794133377,28.954526802682732,26.40950056356961
18.958687662463387,28.65276097887553,22.89194957825787,13.83734870483356,12.732561663547946,28.94537982165016,26.349190272300785
18.95515968194998,28.576369873042786,22.93715634686094,13.813341422570073,12.703342661568618,28.951543451651276,26.289059553897147
18.951210431694157,28.507022006969052,22.99177336928279,13.790968651219302,12.671585717397411,28.972329500104593,26.229233524553607
18.946818989931984,28.444558249191346,23.055349908525994,13.770168468005423,12.637414106325371,29.00698592496674,26.169847734971135
18.941969436462514,28.38877878696852,23.12740829964315,13.750867183099006,12.600965807678445,29.05471056813607,26.11103559577614
18.936652980700508,28.339431442400368,23.207451361862518,13.732982403899024,12.562389033808799,29.114660036184745,26.052925745593733
18.930879483407516,28.29620272524889,23.29495838160689,13.716426415951434,12.521840387417233,29.18595426294528,25.99565339808813
18.924684233781136,28.258712306011585,23.3893814939477,13.701106386418191,12.479488836191136,29.267693505322804,25.93936947797999
18.918122582452465,28.226511008579756,23.4901565779705,13.686921709271177,12.435520959086503,29.35899537900645,25.88423422896933
18.911260962873957,28.199083563452767,23.596724888130762,13.673763679789559,12.390140883227666,29.45902809851541,25.830402849531882
18.904177022340743,28.17585528882056,23.708547098450406,13.661520877933123,12.34356383204093,29.567014141484343,25.77802044465959
18.896968656616995,28.15620316245839,23.825101425412072,13.650086277718318,12.296007262825928,29.682209408849044,25.727231711571452
18.88975820976298,28.13947387343469,23.945876641751354,13.63935954531584,12.247684923250464,29.80388237968145,25.678190962001505
18.88268477054614,28.125003919369593,24.070370663408212,13.629243606569363,12.198806234668986,29.931317605408502,25.631057061207866
18.87589512552423,28.112130221068785,24.198091146976637,13.619640931359573,12.149577593326956,30.06384970065576,25.585978708502914
18.86954580894347,28.10018823343979,24.328550687581757,13.610455071867113,12.100200741601736,30.20089951215663,25.543088481533132
18.863812933920922,28.088508173348725,24.461258794076496,13.60159578604574,12.05086877442847,30.341979395651766,25.50251213442136
18.85889571391815,28.076425783699495,24.59572087640264,13.592980494515887,12.00176556754072,30.4866697213893,25.46437894183919
18.855008375633236,28.063313719061096,24.731448546614864,13.584529195395675,11.95307193485831,30.634588912821894,25.428817810824075
18.852370567936447,28.048616455171793,24.86797031725461,13.576156840211413,11.904973100287828,30.785369954970854,25.395943195599465
18.851207120928233,28.031868439817146,25.00483038672656,13.567768116247027,11.857659379085367,30.938643958141565,25.36584716573799
18.85175352709442,28.012698025629415,25.14157975808881,13.559257144817755,11.81131993784812,31.09402735676032,25.338604371647797
18.8542544651181,27.990826544408307,25.277774131755503,13.550510942362472,11.766136560524432,31.251115044662818,25.31427879666
18.85895245520484,27.966059012920216,25.41298333316439,13.54141251915703,11.722283080129866,31.409484203444837,25.292919806767657
18.866077995107833,27.93826511797775,25.54680064800797,13.53184120024722,11.679929308618085,31.56870154642435,25.274551174746883
18.875851775474555,27.907362428751693,25.67883972584031,13.521671766536793,11.63924247173047,31.728320527554732,25.259167993397185
18.888494274496082,27.873311426793574,25.808722203544416,13.510775231210681,11.600381974752233,31.887871123602363,25.24674782588733
18.904227384213232,27.836116706550268,25.93606935813429,13.499021488421759,11.563490986741053,32.04686232917106,25.237263274880128
18.92326299532225,27.795822992030228,26.060504661282593,13.486280742873022,11.52869032803819,32.20480436368376,25.230680734733706
18.94579170206844,27.752504109231527,26.18166032797643,13.47242243636629,11.496076395971743,32.36122750003893,25.226949115934783
18.971985490746924,27.7062553088368,26.299177406445356,13.457315677624536,11.465721091290318,32.5156783072909,25.22599576797806
19.00201004063783,27.65720305168084,26.41269925212244,13.440834281515558,11.437671235670813,32.66770470774584,25.227736900851117
19.03602975555502,27.605531669694685,26.521867316647135,13.422862908329908,11.411947338061795,32.81685398657712,25.23208897096523
19.074199725981735,27.551503348873297,26.62632460798123,13.403298976363645,11.388543638103704,32.962699158136076,25.23896535644573
19.116656510328767,27.495452445281604,26.72572089958146,13.382049729192655,11.367430572011385,33.1048824371053,25.24826339483093
19.163518009918427,27.437764008446212,26.819710488210937,13.359027832889483,11.348557707975955,33.24314015257046,25.259860728492715
19.214886989186667,27.378854350377793,26.907943927234534,13.334150318721775,11.33185446402755,33.37729682026908,25.27362745665114
19.27084750057461,27.319154665849908,26.990066657112923,13.307344605822633,11.317228892065494,33.50726221666793,25.28943839157675
19.331453973969573,27.259091584795122,27.06573319471919,13.27855869636845,11.304567368285058,33.63305685041925,25.307169613071245
19.396722800416192,27.199066507675706,27.13462687006776,13.247766992958493,11.293738033871616,33.75483877460402,25.32668498211745
19.46663520888709,27.13944055815112,27.196467750392312,13.214968216228606,11.284597393626225,33.872895256316816,25.347831099119286
19.54114880091322,27.080529699048572,27.2510079169864,13.180181760452022,11.276995329896446,33.987603736255984,25.370448065448365
19.62020473283779,27.022607860247494,27.29802880417954,13.143450532024184,11.270775362072154,34.09938807980031,25.394382673085836
19.703723113789778,26.965909274023165,27.337348236896588,13.104849270319772,11.265772252743663,34.208684701935795,25.41948871885027
19.791594443279124,26.91062379421016,27.3688283264171,13.064489304452394,11.261811297574408,34.315919496832386,25.44561788706617
19.88367991593455,26.856889728228012,27.392374413190364,13.02251512833751,11.258711455379068,34.42149223735129,25.4726169133148
19.97982156290747,26.804796052745026,27.407931016391924,12.979099055891579,11.256290080775244,34.52577453834177,25.500337244274814
20.079849434575337,26.75439879224217,27.415489318812465,12.93444275925437,11.25436550476746,34.6291334214855,25.528644434507576
20.183577595298523,26.70573894680085,27.415105507415785,12.888784625188716,11.252757142381475,34.731967754623476,25.557413479394167
20.290797715882025,26.658848381010305,27.406911330935195,12.842402336695974,11.251286428922484,34.83472254478849,25.586515728611957
20.401283303804597,26.61375066197651,27.39110801668382,12.79560455381221,11.249780721536617,34.9378741384782,25.615814333247233
20.514802293959722,26.570470353250876,27.367957870912537,12.748717049983188,11.248077385385919,35.04191801311284,25.64517324969005
20.63112244335978,26.5290453824243,27.337790848133043,12.702071849723701,11.246024298557849,35.147376317407954,25.67446618564894
20.750002915098094,26.489528547133123,27.30102286025187,12.656001426058817,11.243477556098902,35.254802659586716,25.703572610359096
20.871183560186832,26.45198105746283,27.258163600686814,12.610833191433947,11.240299905012062,35.364762171720294,25.732366528708038
20.994385538203005,26.416470509768892,27.20980012033114,12.566880664395047,11.236362509804575,35.47779605150269,25.760714182075983
21.119322022550847,26.38307223047058,27.156566625918757,12.524433979202481,11.231549265234474,35.59439586911414,25.78848585646615
21.245705322279882,26.3518656175096,27.09911906946719,12.483755321401553,11.22575877031064,35.715004879207086,25.815568163098142
21.373242978756753,26.322926997579433,27.038120959569625,12.445082543889802,11.218900692971271,35.84003785746011,25.841862530094975
21.50163185599901,26.29632423373472,26.974231920562797,12.408637783759115,11.210889916628597,35.969890260964696,25.867273947041486
21.630562634826298,26.272112728136047,26.90809110040892,12.37463283691422,11.201644800964884,36.10492105346506,25.89170603545129
21.759731923067587,26.250331562480323,26.840303168606276,12.343267053279119,11.191091538778103,36.24542046357429,25.915069632222238
21.88884737561103,26.23099875262029,26.771442663904498,12.31472201195926,11.17916961442725,36.39157800195139,25.937293038080693
22.017620657833046,26.21410277458838,26.702077305721055,12.289159494174761,11.16583236722668,36.54345610627464,25.958319213620552
22.145759151406324,26.199591233445084,26.632788747068897,12.266723820357242,11.151042726067685,36.70097061561144,25.978092768711736
22.272968847028054,26.187365436966733,26.56417187586475,12.24754392724901,11.13476845653362,36.86388504942996,25.996552529418157
22.39896727572997,26.17728981967645,26.496818342285533,12.231731279397785,11.1169792589192,37.031836190620346,26.013637597642106
22.523492488541375,26.169211464762867,26.43130332349227,12.219375243262643,11.0976443469801,37.20439329359961,26.029296871117396
22.646299300876976,26.162973056089353,26.368183687152438,12.21054068789443,11.07672870680116,37.38111559927654,26.04348848581238
22.767150619971968,26.15841347837576,26.30799736343328,12.205268820915325,11.054188760182436,37.56157565063596,26.056170767414798
22.885817235557134,26.15537160007558,26.251251935634276,12.20357715242154,11.029970611031302,37.74535306255645,26.06729860114185
23.0020869592736,26.153705852955696,26.198407084930295,12.205456199479821,11.00401369467577,37.93201472403886,26.076832145014738
23.11576998665588,26.15331645042132,26.14986766101388,12.210866054446235,10.9762581048105,38.12109013857288,26.08474692859611
23.22669253922007,26.154149689494574,26.105994114830573,12.219738079934993,10.94664992012799,38.312048312354264,26.091031757291812
23.334687275860933,26.156184121482006,26.067115706920877,12.231983630678121,10.915141416214333,38.50427885045138,26.0956780445045
23.439592341700457,26.1594131037629,26.03352924710263,12.247504720725184,10.881688585538166,38.69708195195101,26.098676957047765
23.541258162493932,26.16383308785201,26.005484851746857,12.266198924151325,10.846250565246713,38.88968560222827,26.100031245042363
23.639550281913916,26.169435577979502,25.98317385300188,12.287956917092927,10.808793068029953,39.08130073090646,26.099767866089334
23.734342549813835,26.176196416125975,25.966729833035362,12.312657723672672,10.769293253804333,39.27118475159654,26.097935844627223
23.82550878507541,26.18406160876096,25.95623783207894,12.340166521000928,10.727742160080279,39.45867044290388,26.094593720594986
23.912923368150697,26.19293590153935,25.9517379252624,12.370335403209152,10.684144135454611,39.643155957435255,26.089803199053
23.996469252874025,26.202678589815527,25.953222153444948,12.403004264486738,10.638515854536484,39.82408408963141,26.083635548220276
24.076041059499317,26.213102794847977,25.960637774452216,12.437999887245413,10.590887026283221,40.00092950717031,26.076178527419636
24.151536920554037,26.22397331028513,25.97389931430962,12.47513536195678,10.541301645030527,40.17318931943335,26.06752993207876
24.222848203043274,26.23500582162901,25.992895165829673,12.514212922601597,10.489817209369969,40.34036801497301,26.057782486209515
24.28985947399653,26.245873688639477,26.01748098660172,12.555028319123327,10.436501874879262,40.50195823059729,26.047017514039375
24.352457382895505,26.256224492385037,26.047471144832933,12.59737204905196,10.381432124378108,40.65742392166897,26.035314290594822
24.41053543322577,26.265701453418732,26.082643663766405,12.641026935177175,10.324693462736665,40.80619276014581,26.022762136984177
24.463988547618644,26.273958308255885,26.122757896628702,12.685765624653142,10.26638341922726,40.947661279506875,26.00946017648757
24.51270577098529,26.28066073375538,26.167567139421266,12.731352014512217,10.206612843258565,41.081206606718354,25.995507011774063
24.55657134609614,26.28548232035908,26.216814041731688,12.77754871674675,10.145503870774585,41.20619461650167,25.980996030269775
24.595472616241132,26.288109304579066,26.270218444335537,12.824127027067078,10.08318749449594,41.321980330321516,25.966024591788514
24.629303482156164,26.28825520657856,26.32747837377746,12.870871989398179,10.019803276153802,41.42790324697541,25.950705031055143
24.657958215915965,26.285670547796965,26.388290991824555,12.917580383404479,9.955500661508209,41.523282872886554,25.93516149245794
24.681324158496718,26.280137658444254,26.452374978850223,12.964057570865448,9.89043966776836,41.607417671019775,25.91951632559221
24.69928461807432,26.27145812566934,26.519473908611833,13.010120098392065,9.82478967478444,41.67958945445455,25.903883904258922
24.71173100119731,26.259445957085845,26.589345249840743,13.055603487202715,9.758728026618128,41.73907572288067,25.888378738621324
24.71857102602779,26.243930671510817,26.66175420657495,13.100367875404991,9.69244105852797,41.78516735758843,25.873125083421453
24.71972546058574,26.224763284628576,26.736477707713224,13.14429691284125,9.626127607541205,41.81718254719089,25.858254719668206
24.715121369803796,26.2018162787461,26.81330577391283,13.187291961528102,9.560002162429683,41.834470224654936,25.84389660031257
24.704693599244646,26.174980678966556,26.892033133804773,13.229266209782914,9.494294251748249,41.83640462001746,25.830172627557694
24.688394440754497,26.14417461233072,26.972452105060135,13.27014165591425,9.429243121811576,41.82237754707056,25.81720541383906
24.666199907688608,26.109365659479465,27.054357744103932,13.309849159196641,9.365090540284509,41.79179576854882,25.80512633582962
24.638105801534948,26.070586682428466,27.137558452189385,13.348333287467717,9.302075975631976,41.74408880227899,25.794070132003874
24.604121186790206,26.027931490103363,27.221876082739218,13.385564632806599,9.240434876194978,41.678724714204016,25.784159554598407
24.56427082090983,25.981547594025677,27.307131246500735,13.421553910914623,9.180396389957126,41.59522266482804,25.775495995148532
24.518605916379038,25.93165169323056,27.39312533910499,13.456356930618405,9.12217822883706,41.49316012287449,25.768163833907312
24.46721051777982,25.87856293448033,27.479632294152516,13.490067640605885,9.065981057006857,41.372197895700516,25.762238073924525
24.410196841637244,25.822720444835653,27.56640211605469,13.52280463979126,9.01198611969666,41.232141646775496,25.75778153125309
24.34769842932537,25.76466739628434,27.653167096857352,13.554698385583979,8.96035719505678,41.073010415306115,25.754833428465467
24.279872711545828,25.705018736905522,27.739641210507784,13.585886763527261,8.91124415391391,40.895062423031185,25.75340351885581
24.20691117672205,25.64443907838508,27.82551642062677,13.616519846651512,8.8647838492735,40.698770680015365,25.75347898139424
24.12904347289811,25.583639607330667,27.910471191458242,13.646766228026486,8.82109705783086,40.484778663259775,25.755033516256468
24.046528722395433,25.52337912381326,27.99419424565114,13.676823606825884,8.780285107738152,40.25386090323032,25.75802482380511
23.959643556313544,25.464450612583327,28.076403419523437,13.70694533297834,8.742430115671231,40.00689583582626,25.762383887073376
23.868679705614603,25.407654959722514,28.156844052889877,13.73747251663404,8.707597368164945,39.744847523885426,25.76801281406455
23.77395116674543,25.35377760201636,28.23527799839579,13.768844539733417,8.675835768978141,39.46874697197643,25.774798130108433
23.67579791715377,25.303575145098495,28.311481679788894,13.80158269065702,8.64717590191172,39.17966779050025,25.782625090046935
23.574577775056518,25.257763993610368,28.385253188487557,13.836263550787514,8.621628635543901,38.87870071836369,25.791377005770318
23.470655059967726,25.217006508345246,28.456414162768965,13.873493613897832,8.599186785760255,38.566936009323875,25.800924259991035
23.36440008954368,25.181906791342744,28.524800051386496,13.913887879776796,8.579828855214606,38.24546090641576,25.81112068600295
23.25619926591906,25.153023504759418,28.590249460242998,13.958053121625351,8.563520624879045,37.91536835487069,25.821814573956647
23.146460865384142,25.130882167952027,28.652609054467597,14.006572948791163,8.550212676667684,37.577763718480746,25.832861951967548
23.03560743191857,25.115968273817934,28.711753906887022,14.059991082980233,8.539837770114286,37.233769282797034,25.84412754101099
22.924063298333543,25.10871112136424,28.76760070563877,14.118794037708167,8.532313716578312,36.884534927534055,25.855476713237827
22.812250923352675,25.109484627817398,28.820099021564186,14.183397587566088,8.527552193865644,36.531245171538984,25.866774334581013
22.700596637605546,25.11863230496525,28.86921752029496,14.254139338042789,8.525467249513504,36.17510937377538,25.87789669556072
22.589532977751922,25.13649215975834,28.914953483502245,14.331274581174771,8.525977304816164,35.81734194240218,25.888743207147893
22.479490318418485,25.16339629986699,28.957366832042982,14.41497119419919,8.529001409673404,35.459145247078204,25.899232920495876
22.370886130732064,25.199649754830048,28.996605982919743,14.505303799926041,8.534456287993454,35.10170272126005,25.909290061389914
22.264122508151964,25.245511135182944,29.032902110984605,14.602251045271604,8.542259499108454,34.74618307921294,25.918836288704984
22.159589939666205,25.301187489383167,29.06654845898782,14.70569882490018,8.552336856399924,34.39374333929459,25.927798465758446
22.05766636232827,25.36683600746753,29.09789088317007,14.81544813093272,8.564627493327267,34.04551927451009,25.936120285700362
21.958707908221154,25.442558329365358,29.127327530069586,14.931222439061242,8.579083385076991,33.702607776977445,25.94376152270474
21.863040626700656,25.528384099328836,29.155298166673035,15.052671023082992,8.595665693806941,33.3660475357787,25.950686507235282
21.770962642232092,25.624253557711647,29.182258564864235,15.17936938738157,8.614342096306048,33.036797620165956,25.956858494718183
21.682753179517228,25.73001017791478,29.20865543243463,15.310821632626618,8.63508671322501,32.71571762460217,25.96224882780773
21.598675260394582,25.845404582810644,29.234916986360094,15.446478664231435,8.657879583156644,32.40356034153798,25.966849064838854
21.518966153969828,25.970101340831583,29.26145565067342,15.58579181447717,8.682702519294995,32.100980687934,25.970669859356388
21.443824246649694,26.10368091993588,29.288665441099486,15.728294139633944,8.709532763098316,31.80855036257996,25.97372902778282
21.37340395105546,26.245636678175984,29.316907215157507,15.873671084201042,8.738338207692692,31.5267785976825,25.97604588927558
21.307819606005562,26.39537081415367,29.346495135076513,16.0218057353507,8.769076164228183,31.256159604724292,25.97764975605565
21.24714923505029,26.5521925066597,29.37769753037906,16.17282179067302,8.801693700378388,30.997240386369384,25.97859019589065
21.19143179414186,26.715321657680366,29.410745743821735,16.32713794668457,8.836125884515308,30.75066067301384,25.978934049753967
21.14066244242576,26.883901464870323,29.445833933449514,16.48551159049246,8.872291149624546,30.51713879655361,25.97875208010549
21.09479553345043,27.057017819953902,29.483106928983204,16.649043455478807,8.910086441836496,30.29742954302877,25.97811146725932
21.053756872912096,27.233719831363718,29.522652817991084,16.819159236824476,8.949385285792868,30.092286748416797,25.977082823597453
21.017454008984068,27.41303731891024,29.564513523067056,16.997604783287063,8.990039243183253,29.902439058458974,25.9757506650587
20.985774872180922,27.59399057588748,29.608703149284413,17.186440098519295,9.031880384482067,29.72857482193684,25.97421133768977
20.95857925701509,27.775589772801048,29.655213827947655,17.387993049050852,9.074723082408479,29.57133051598142,25.9725603219505
20.93569480092058,27.956832064301995,29.704007756234684,17.6047750671375,9.118365923411414,29.43127551230885,25.9708854414929
20.916921617759773,28.13671087293776,29.75501344311603,17.839383548078864,9.162595060178,29.308890921191946,25.96927408486695
20.902037855717175,28.3142395919362,29.808134291297954,18.09440494566575,9.20718870223302,29.204550003657157,25.967823607295983
20.890798767413578,28.488472708214555,29.86325561720063,18.372326433493544,9.251920577663078,29.118506668121213,25.966640725353738
20.882932972425014,28.658512391517785,29.9202371658408,18.67546141615366,9.296560883565384,29.050897510772312,25.965830707557142
20.87814452023703,28.823511484995386,29.97889788357535,19.005890334144613,9.340876131696652,29.001779204739776,25.96548898699121
20.87612225826263,28.982683369149147,30.039009047062745,19.365416926876854,9.384630681508568,28.9712114493044,25.965702622570653
20.876548252826332,29.135309513305693,30.1003003524659,19.755537837892618,9.427590853615717,28.959337000157134,25.966553955961736
20.879097996500942,29.280735220206147,30.16246691897184,20.177419310049277,9.469529053172884,28.96639928800817,25.968114762494743
20.883435959423892,29.418358483449612,30.225167625418614,20.631875915760265,9.510224718121782,28.992701883655396,25.970433436164914
20.889216785584704,29.547620303024342,30.288022415217046,21.119352342190332,9.549462662347834,29.038552408643696,25.97353082084073
20.896096376625202,29.668003657545444,30.350619830748148,21.639911074789687,9.587032846520884,29.10421584635056,25.97741159214371
20.903743953745394,29.77904482003811,30.41253105287045,22.19323715505214,9.622734164961523,29.189881531066767,25.98207717762684
20.911844277595435,29.880346524806434,30.473316718141817,22.778716199826768,9.656380088033043,29.2956420908482,25.987524814557137
20.920092334419262,29.971579365532012,30.532522067762912,23.395663960626788,9.687801920707313,29.421478688666568,25.993736941514193
20.928192664096112,30.052474729828266,30.58967001018469,24.043655699397714,9.716847880937989,29.567245689329514,26.000676309417575
20.93586912168004,30.12282065197659,30.644264158334988,24.72274912781974,9.743380126825341,29.73265756833703,26.0082929085198
20.942875929125687,30.182461430033722,30.69580351551637,25.43350518138059,9.76727448708677,29.917293062323413,26.016532442936292
20.94899832422109,30.231293372460012,30.74379641584825,26.176955699555112,9.788425236589514,30.120623482478315,26.025333876608272
20.95404454925241,30.269256065705076,30.787762927062175,26.954652130771134,9.80675064033534,30.34205020973228,26.034618522089936
20.957840780878577,30.296329717147774,30.827233084783316,27.76871910217567,9.822193589810157,30.58093109308466,26.044285170298334
20.960234494945208,30.31254382872226,30.861755304031472,28.621813723472634,9.834718200550922,30.836585061845028,26.054219063896294
20.961098817747015,30.317986115068464,30.89091281096881,29.517023789321378,9.844308163257583,31.108275688687208,26.064304581105098
20.96032905551099,30.312800302370086,30.91433128338589,30.457749923143208,9.850969378794607,31.395186481690473,26.07442719017472
20.957833968053475,30.297176728389292,30.931671033126083,31.447579186023408,9.854733040962332,31.696402168050216,26.08446607602994
20.95353237546809,30.271347201429567,30.942616441883846,32.49018743131836,9.855654806131119,32.010899540706085,26.09429202286972
20.94735999099275,30.235592988067996,30.94687849676719,33.589282272964425,9.853810892642949,32.33754534678002,26.103777488466832
20.93927782859158,30.190263850706938,30.944210528972505,34.748525979857476,9.84929496944441,32.67511135644057,26.11280738094761
20.92927062081906,30.135789703118192,30.93442087683764,35.97141290914027,9.842217618231963,33.022330801741596,26.121276671841724
20.91733654824028,30.07267144934571,30.917370447344087,37.26119283634672,9.832706936218816,33.37799197138717,26.129078658177274
20.9034810137929,30.00146600513345,30.892961877098998,38.62093902748812,9.820908140762738,33.74101710599081,26.136100565391914
20.887721537706348,29.922792611283615,30.861134313903214,40.05370097622445,9.806981395639028,34.110494332422185,26.142234164243003
20.870094587851966,29.83736091637117,30.82186609511225,41.56257875176909,9.791097797520381,34.485696125312785,26.14738924435062
20.850652341095792,29.74598857879212,30.775174311177874,43.150657477204305,9.773433509767157,34.86611143096902,26.15149427264424
20.82945248679965,29.649587515306226,30.72110530163535,44.82085682365039,9.75416302013897,35.25145714008483,26.154485889403304
20.8065548455329,29.549135093101082,30.659725609700175,46.575749463427606,9.733453290046889,35.64164329151428,26.15630274336264
20.782030508433106,29.445653202812945,30.591123199520503,48.417379746103904,9.711459416336472,36.036726646570656,26.156892453759408
20.755972893220033,29.340198649807473,30.51541402648468,50.347139862532806,9.688321342879755,36.43688968132505,26.156221978237024
20.728497685367884,29.233855562637284,30.432742676160103,52.36580483541048,9.664162718285596,36.84243364358822,26.154276613625537
20.699732869883455,29.127719898436602,30.34327500660647,54.47373454529611,9.639093433960426,37.253753963717905,26.15104823194362
20.66981125994017,29.022873387690122,30.247192358124074,56.67106179742974,9.613214048091871,37.67129292191417,26.146527660938172
20.638872225169592,28.920352684197702,30.14469795372988,58.95776954146342,9.586618968525984,38.09549145336684,26.140711143082086
20.607064657439977,28.821120577786186,30.03603188498667,61.333810717801704,9.559397892001845,38.526759098319936,26.133612205862622
20.57454099691304,28.726042562304617,29.92147735718969,63.79932833692708,9.531637420410592,38.96546702740569,26.125263503724558
20.54144555026061,28.635871243178222,29.801350430693873,66.35480284092017,9.503424822318056,39.41196220785129,26.11570852716177
20.507909598866537,28.551245498769756,29.67598590835743,69.00108906939414,9.474852660609328,39.86659667389073,26.10499817254511
20.474057829328995,28.472712211446694,29.54573437708857,71.73945883107547,9.446019973324027,40.329760578414806,26.09320066859287
20.44001549786149,28.400761900274397,29.410968916784093,74.57158590550297,9.417028579143873,40.80191752788984,26.080413403529583
20.40590563721131,28.335852081289012,29.272087358346628,77.49937248747727,9.387978576757625,41.2836546970412,26.066760624745097
20.37184035153347,28.278404908849883,29.129504466450022,80.52475263383813,9.358967731484563,41.77573769608124,26.05237921135564
20.33791814340008,28.228793226165127,28.983646564379217,83.6496014193542,9.330094719850804,42.279135868280214,26.037409433061892
20.304231500109648,28.187333276711808,28.83496188833467,86.8756915617244,9.301461939245796,42.79501811662926,26.02199954413761
20.270876220484435,28.15428451421119,28.683939080966923,90.204718068476,9.273175060881284,43.324757761701015,26.00631398958811
20.237952376086067,28.129845645013773,28.531112438351943,93.63846230956274,9.245341278086117,43.86994830130469,25.990530851632663
20.205557877928996,28.11414284821122,28.37704751818665,97.1789067899435,9.218069627510374,44.4323873892273,25.97482945695859
20.17378397285622,28.107220826855638,28.22232215718438,100.828107186071,9.191473394538082,45.01401941854286,25.959382214988857
20.142717270932685,28.109053600762206,28.067515686038046,104.58798745529893,9.165670782089446,45.616862691755315,25.944358988246695
20.112442329451785,28.119574398268657,27.913202159610364,108.46026829339387,9.140781026164934,46.24293150273013,25.9299345671955
20.08303787562677,28.138698843707594,27.75993816971217,112.44644228095389,9.116917806484123,46.89416254593569,25.91628499587739
20.054569533342463,28.16632386516402,27.608245640394447,116.5476545022477,9.094184358984862,47.57236741670148,25.90357458608218
20.027088636673522,28.20231427169987,27.458598704691962,120.76455756001475,9.072673455061997,48.27922205010248,25.891949513113463
20.000640510477208,28.246494027646744,27.311420405932534,125.09724199308948,9.052470817633711,49.016292094477805,25.88154638425006
19.97527288651496,28.2986430530304,27.16708372295889,129.54520267331077,9.033656546102067,49.78506931178339,25.872504482471204
19.951034392709772,28.358497560960572,27.025907481322385,134.10731302711665,9.016301915090782,50.586973946712895,25.864965484455993
19.927966589493806,28.42576659165199,26.888146856583187,138.78186901202724,9.000465033107913,51.42332697210661,25.8590610580487
19.906101987279964,28.500170161112734,26.753988355733853,143.56669877465117,8.98619066780021,52.295339420759895,25.854903654855537
19.885472671932714,28.58147201970545,26.623558894877764,148.45923309480725,8.973516057207126,53.20413064268198,25.85259024183593
19.866119443260757,28.669480848975894,26.49694586703229,153.45647292137812,8.962478934300536,54.150780546573976,25.85221044486476
19.848090096611646,28.764026988240516,26.37421272427618,158.5548802765165,8.953121795187831,55.1364306471366,25.853844478980104
19.8314291360983,28.86493678003591,26.255401300315064,163.7502842562691,8.94549058018236,56.16238113382129,25.857550892969357
19.816171374315935,28.972025879024397,26.14052951576971,169.0379140559592,8.939632330953467,57.2301143195867,25.863358965920412
19.802346000023007,29.085119809107585,26.029594718019762,174.41253693629506,8.935597056981296,58.341249976277254,25.871274946509914
19.789983027627255,29.20407864484484,25.92257887144533,179.86854412290927,8.933441507062179,59.497459303357054,25.88129246124696
19.779111149261283,29.328795476789278,25.819446246362258,185.39996674049655,8.933227919272252,60.70035464914121,25.89339234480843
19.76974888005629,29.45916941532798,25.720133152440066,191.00056218351892,8.935017061471305,61.951389276791566,25.90753209627383
19.76190082109447,29.595076164054774,25.624538028875808,196.66394568839598,8.93886187889981,63.25178751520768,25.923638861621296
19.755564676042738,29.73635300392255,25.532520845737704,202.38357680249703,8.944806628841913,64.60250370090863,25.941615876985644
19.750740155402426,29.88279720750924,25.443911919645178,208.15257925873163,8.952889972956232,66.00421491265865,25.961354936554912
19.7474280235992,30.034164122472863,25.35851908707404,213.96356658398702,8.963146373736917,67.45733366534247,25.98273976290896
19.745620170246312,30.190155871130344,25.276125183407764,219.80859009058054,8.975602699898213,68.96200468638544,26.00563919908228
19.74529229013462,30.350407944907673,25.196482293840226,225.67920703381623,8.99027274860521,70.51808833607977,26.029903878490853
19.746406285785707,30.514488350694148,25.11931529143279,231.56661388185688,9.007154103949821,72.12518107778102,26.055373397566697
19.748916109923528,30.68191103129906,25.044336042506448,237.4617414943481,9.0262281931151,73.7827183175497,26.08188369170355
19.75276738691238,30.85214777792916,24.971254716641013,243.35524145703783,9.047460802597188,75.4901267850558,26.109263221456
19.7578922461259,31.024629021022143,24.899779069065914,249.23741936087103,9.07080108310742,77.2469083340208,26.137322819163987
19.764209967604355,31.198743044911637,24.829611108595273,255.09821777067145,9.096179764474398,79.05261107786801,26.165854378061198
19.771637788976125,31.373843071037157,24.7604526729445,260.927309670589,9.123508404313498,80.90679957738182,26.1946433064774
19.78010169304127,31.549257994115823,24.69201520645973,266.71429346788676,9.152681547652646,82.80910392139113,26.22348090782658
19.789535744113863,31.724298382895174,24.624022099886677,272.4488802202298,9.183581650945099,84.75928523285094,26.252163486478242
19.799872626699315,31.898258289086435,24.55620329293047,278.1209643176777,9.216083753907817,86.75726814560545,26.280484701899148
19.811037195154807,32.07042502177549,24.488293138811834,283.7205869843752,9.250058249458469,88.80318070383255,26.308237721600335
19.822949510442637,32.24010597627975,24.420038148632575,289.23784986373994,9.285374091202712,90.89741663967548,26.335230754126858
19.83553137613657,32.40665997123387,24.351207782989043,294.66282046672274,9.321904742030611,93.0406720634862,26.36130021879349
19.848705733044472,32.56950961058105,24.281597910819503,299.98549266436044,9.359534356404744,95.23391661810379,26.386307650196454
19.862387803244143,32.72812936927658,24.21102590148322,305.1958428238736,9.398159161475487,97.47829382607608,26.41012756073438
19.876478064848772,32.88202515156237,24.139326135878385,310.28392780633595,9.437682990967978,99.7749627373728,26.4326443766745
19.89086674776589,33.03072146178277,24.066356756419598,315.2399699272582,9.478011371607046,102.12490350101803,26.45376345983034
19.905447123704533,33.1737585425846,23.992016799226498,320.0544528384509,9.519049950399523,104.52873272609885,26.47342149571012
19.920124364586073,33.31069093917681,23.916257643247476,324.71822537700467,9.560709067154956,106.98660264340054,26.49158220610913
19.93481330715839,33.44108414960673,23.839078461816868,329.22255277946323,9.60291000869931,109.49822209868076,26.50822243749758
19.949433423904146,33.56451831248404,23.760515146179365,333.5591072959198,9.6455873700464,112.06293400821622,26.52332511632266
19.963912024353125,33.68060299173649,23.68063732359249,337.7199534308736,9.688686965614933,114.67974788308115,26.536885508988075
19.978194108695448,33.78898964180679,23.599554159714735,341.6975533553646,9.732162707875728,117.34733236293677,26.548917927191095
19.992246762447266,33.889368666773045,23.51741607805494,345.48475854851586,9.775974722530005,120.06411653238109,26.55944885060621
20.006053445253063,33.98145718650996,23.434404673827665,349.07476022076816,9.820087012630351,122.82856750982303,26.568501648759163
20.01960837466922,34.06499485911632,23.35071895423148,352.4610309130418,9.864462087305146,125.63942886312768,26.57609069772083
20.03292068604182,34.139757578882545,23.266568952439197,355.6373040882677,9.90905362010717,128.4957163338534,26.582231941362984
20.04602282309382,34.20558021093025,23.182175452734715,358.59758269118373,9.953800621736287,131.39658283446644,26.58695531062566
20.058970427258348,34.26236769588525,23.097766024294184,361.33614441216173,9.998625409132522,134.34123943188558,26.590302178253445
20.071832827702156,34.31008543479625,23.01356390178673,363.8475443057413,10.043435543334988,137.32894746572322,26.592312259377593
20.084686571411893,34.34874127323332,22.92977785667562,366.12661519699225,10.088127638113393,140.35904713842453,26.593018784525057
20.0976189828035,34.37837580310499,22.84660335231867,368.1684524572663,10.132589530531172,143.4310301365443,26.592459043060224
20.110732654034788,34.39906446839093,22.76423383860616,369.9683975295785,10.176699196004831,146.5446079741133,26.59068563391443
20.1241394942941,34.41092192178051,22.682868740756316,371.5220505123966,10.220321990781063,149.69968479811223,26.58776331995646
20.13794716352979,34.414099165665725,22.60270898089071,372.82532515830104,10.263308088883422,152.89622487237656,26.58375647730427
20.152251040693486,34.40877535840576,22.523945779415186,373.87454159403245,10.305490554528332,156.1340789136343,26.578723576708796
20.167137493981105,34.39515106774108,22.44675513886116,374.66651653711295,10.34668426609331,159.41285858891047,26.57272522179843
20.182688741286963,34.37344131294314,22.371301944353245,375.19859009729726,10.386686531365553,162.73194188437296,26.565833897007334
20.198978770798,34.34386312873251,22.29774385590826,375.46858048092145,10.425282078850142,166.0905954352474,26.55813097900198
20.216063940789375,34.30662090947939,22.22622656932463,375.474725269776,10.462255208324072,169.48812009836007,26.5496943439593
20.233979033319606,34.26189942225553,22.15687740307844,375.2156845079687,10.497405138514905,172.92395732448523,26.54059341339908
20.252742182377148,34.209869720596956,22.089808339832736,374.69063092915684,10.530555153259142,176.39776009541276,26.530897945072315
20.272361287424935,34.150700484932514,22.025126331929254,373.8993630633347,10.561552173456846,179.90951338462656,26.520686238796504
20.29283327804479,34.084563166605854,21.96293838440529,372.84236697099794,10.590262295708145,183.4597460283797,26.51003930578462
20.314137435012363,34.01163224867528,21.90334618758558,371.52084845147044,10.61656838489951,187.04966570504956,26.499027473166905
20.3362326638806,33.93209057943348,21.846440709349256,369.93682344232946,10.640370863404197,190.6810704813674,26.48770419491665
20.359064021819623,33.84613914280565,21.792312691907423,368.09328069299806,10.661589321837008,194.35615654187112,26.47611020274115
20.38257046883115,33.75400009856369,21.741078501149484,365.9942949878148,10.6801627252239,198.0773696916997,26.464276964561435
20.406683742734117,33.65590775161331,21.6928979692853,363.6449936638214,10.696048046494592,201.84726668819914,26.452220186778984
20.431321105031994,33.552092387790765,21.647966916993298,361.0514257037748,10.709219114054028,205.66833756313306,26.439929252150808
20.456383657046427,33.44276372378512,21.606494646499026,358.22041648846897,10.71966807539994,209.54284553664027,26.42736696078323
20.481766020577286,33.328097338201225,21.568687415236766,355.1594539216073,10.72740881558633,213.47271799248958,26.41448326341021
20.507369308807515,33.20822462853965,21.53474614722001,351.87663287318566,10.732478367475943,217.45944222803055,26.40122867708448
20.533104769992597,33.083229800525274,21.504868895342625,348.3806347827307,10.734935008391245,221.50394585250086,26.387553532083015
20.55888744607346,32.953167320085534,21.47924589411232,344.6807093446367,10.734856099125349,225.6064963267648,26.37339824513177
20.584631541871644,32.81810809693014,21.45805068259683,340.7866953813962,10.732338435763982,229.76663716518314,26.358691482567448
20.610254721973586,32.67819174792381,21.441439015337316,336.7091102783733,10.72750035078416,233.98314354551846,26.343362390243485
20.63568379515449,32.53364950349162,21.429553886264834,332.45924503641015,10.720482198654594,238.2540165435968,26.327353256633522
20.66085154192298,32.38479194357371,21.42252395041264,328.0492011484404,10.71144359063262,242.5765939446955,26.310618078516658
20.68568704566194,32.23198385636139,21.42045226259016,323.4918663895434,10.700560977335927,246.94776405945444,26.293111398245202
20.71011078482918,32.075627376206356,21.423405729462907,318.80083378206166,10.688031082260274,251.36411280644865,26.274784022946193
20.734039802503133,31.916159027711448,21.431413758824565,313.99026842644224,10.674078611168857,255.82189828621964,26.255592699103445
20.75739505856468,31.754049995219752,21.44447217399248,309.0747495474443,10.658959015306564,260.31691965582246,26.235510980579676
20.78010055006033,31.589796105146597,21.46254286129,304.0691087740263,10.642951845661445,264.8444084960754,26.214526376087726
20.802075731043523,31.423899006533144,21.48554767717272,298.9882653842748,10.626350841933878,269.3990904590922,26.192627691599377
20.8232322201452,31.25685875290675,21.513365945929102,293.84707016263457,10.609459763370129,273.97546469312914,26.169799487656256
20.843481793846934,31.089203680605575,21.54584418418017,288.6601738794244,10.592596609790446,278.5681237613418,26.1460315161873
20.86274965904993,30.921552018573863,21.582812553069974,283.4419133963825,10.576099304230748,283.17193230278565,26.121331002173715
20.880980008141332,30.754655380397395,21.624092584908258,278.20620692864316,10.560324036939436,287.78208886251855,26.095722389120528
20.89813082745243,30.589392261213543,21.669490897244607,272.9664663971678,10.545635854864706,292.39416702053796,26.06923751682451
20.914168273230565,30.42674192087427,21.718789999200055,267.7355353107726,10.532397938942015,297.00416287870917,26.041911964869115
20.929067827087227,30.26778317576383,21.771748698944155,262.5256511067263,10.520964861607426,301.60851193233873,26.013793390288807
20.942816352710622,30.11371635115498,21.82811104896791,257.34843448059905,10.511679477341339,306.20401455028104,25.984949065580203
20.955406854938236,29.96587065405902,21.88761129442084,252.21491299426145,10.50486944689969,310.78771205833664,25.955459611356943
20.966827644152563,29.825685366877085,21.949968182573677,247.13555369350885,10.500844202737538,315.35685305986965,25.925405213579616
20.977055799933474,29.6946955382127,22.014876405654814,242.12026512122995,10.499901671678295,319.90894201863205,25.8948620599456
20.986062801853212,29.574534680664925,22.082007401211417,237.17840192905513,10.502348518422467,324.44171128306914,25.863914082902813
20.99382769438956,29.466923225685044,22.15102254892577,232.31886694506522,10.508519390010187,328.9529494031388,25.832664381838594
21.000343703987024,29.373623727270722,22.22158787769097,227.55032668440614,10.518778842255204,333.44025243033167,25.8012315348155
21.005613288813393,29.296386793910113,22.293378378892818,222.8814067886215,10.53350809929173,337.9008235955537,25.769736602067997
21.009642491313237,29.23691241539449,22.366076064251505,218.32072502424649,10.553089110708088,342.33143198538653,25.738298053980458
21.01244361748784,29.19681937582654,22.43937527502885,213.87677645716474,10.577893030982965,346.72848991574494,25.70704110398764
21.01403951293148,29.17760680014895,22.51299557035574,209.5577859512562,10.60827237197056,351.0880927778102,25.676108733957587
21.01445903795982,29.180610976188657,22.58668782894372,205.37159063981076,10.644552776608894,355.4059571909146,25.64565939371298
21.01372611301878,29.206972877534856,22.6602279115534,201.32553677711348,10.687022748685385,359.6773070476864,25.615853708395235
21.011854277448915,29.257625305771636,22.733410013837965,197.42637256962146,10.735924089879791,363.89675699542687,25.58684611563557
21.008852353638424,29.333292657692247,22.806051514170726,193.6801721238349,10.791446506835586,368.0582101720356,25.55879001414876
21.004732445000577,29.434488323159258,22.878004659689253,190.09232711898287,10.853726033841282,372.1547614843699,25.531845447056003
20.999508998974473,29.561508765815166,22.949159784417187,186.6675599102102,10.922843398218212,376.1786218358431,25.50617489492713
20.99319018796891,29.714436987168842,23.01943434944399,183.4099024518223,10.998819579471455,380.1211370671569,25.48193024376928
20.985772658970763,29.893155017013978,23.08876005978795,180.3226829457421,11.081610572884008,383.97293886118365,25.459246189863634
20.9772459077331,30.09735089575669,23.157081895531892,177.40856161999892,11.171107081399168,387.72417266365034,25.438247283684557
20.967599294084664,30.326517050872148,23.224365652635043,174.66955487015525,11.267141555054739,391.36471529035333,25.41905813061061
20.956820937008782,30.579949615786134,23.290599007286765,172.1069975774781,11.369496699804023,394.8842922485106,25.40180244238447
20.944888924107982,30.856751468133005,23.355781839856128,169.72148653212867,11.477908595471568,398.27247285914694,25.38659286671804
20.931766030896,31.15584213916028,23.41991783656414,167.51284827749186,11.59206541738458,401.518662460841,25.373527015161354
20.91740594556651,31.475995850430895,23.4830167555597,165.48013332791263,11.71160766395219,404.6121996589572,25.362696209883005
20.901764993314234,31.815913650749696,23.545100069558544,163.6216553743882,11.836132786560576,407.54249679892763,25.354193760226018
20.884806362011915,32.174286195582994,23.606197474354847,161.93510499896772,11.965201359838222,410.2991216691529,25.348108487407053
20.866494067714957,32.54980653083002,23.666334373662117,160.41774104951523,12.098340664848365,412.8718314264709,25.344509440985128
20.846787320490165,32.941148520874535,23.725521840699532,159.06663547309373,12.235045474647483,415.25062402798153,25.34344117972872
20.825644259306678,33.346953427817,23.78375786635692,157.87890704895432,12.37477944069566,417.4258354319167,25.344936848922057
20.803030291241598,33.76586298590078,23.841035780073817,156.85186651449644,12.516980654589567,419.38824825068536,25.349032965561094
20.778920693379334,34.19662992159281,23.897346874176243,155.9830549880128,12.661070973549057,421.12915401030597,25.355768269805196
20.753296447361873,34.63827835174395,23.952672976452703,155.2702112526944,12.806464230401529,422.6403888830893,25.365171483744806
20.726141795699906,35.09021901443196,24.006980034858046,154.71120460149226,12.952569764511452,423.91441244229276,25.37725689400069
20.697449200213374,35.552313227420676,24.06022213785376,154.30398066590516,13.0987929133201,424.9444051834853,25.39203507291091
20.6672260477406,36.02501310665031,24.112349933580116,154.0465548245764,13.244537240921275,425.72429566133144,25.40952533903963
20.63549371239436,36.50959785420289,24.163312072390703,153.936997471882,13.389211285091342,426.248706612326,25.4297543762693
20.602279570534577,37.00836500968574,24.21304971805961,153.97333796567514,13.532236725245129,426.5129060006592,25.452743301051328
20.567612064514044,37.5247274435214,24.261495258622492,154.15340829456562,13.673052972805296,426.5128529453061,25.478498938641586
20.531524838307888,38.06325082390639,24.308580706657892,154.4746837527398,13.811118089266005,426.2453311005822,25.50701777241091
20.494063322627206,38.62957710908807,24.35424614448646,154.9341517865174,13.945910079751162,425.7080911528377,25.538292458052318
20.45528330616141,39.23021095237966,24.398436815319382,155.52822841995797,14.076930502982101,424.89999241257664,25.572307593742472
20.415242033257552,39.87226097139521,24.441091271038985,156.25271489124293,14.20370706282805,423.8211645004979,25.609028160723877
20.373992970094633,40.563186546649504,24.48213341061417,157.10276293790298,14.325791663099677,422.47310199509803,25.648395611660003
20.331590699282465,41.31053860505658,24.521476925975115,158.07285374810905,14.442755875015981,420.8586053442051,25.690337198980714
20.288098709763172,42.12172122209135,24.559035748454342,159.15681938359032,14.554189248812667,418.9816515247116,25.734775940210742
20.243589516989736,43.00381152874426,24.594726892263616,160.34788327140882,14.659704986712484,416.8473291646989,25.781627395372425
20.198137156794893,43.96342138304447,24.628464067171414,161.63867432661766,14.758951380124616,414.4618210452762,25.83078778173369
20.151811572747835,45.006562905693976,24.660154033911134,163.02122264808546,14.851620010704409,411.83232414802774,25.88213041686435
20.10468141910197,46.13850965730825,24.689701908644913,164.48697747328833,14.937445178216088,408.96688686818607,25.935517441915827
20.056820160402346,47.36366622872362,24.717016508947435,166.02686423136356,15.016199938880073,405.87423122659817,25.99081339721429
20.008306216673795,48.68545655970952,24.742006842122084,167.6313650030517,15.087696324154294,402.56360828725417,26.047884501842894
19.959217562163193,50.106236388408576,24.764573600669937,169.29059542834543,15.151789614070285,399.04469533185124,26.106586824846396
19.909630419593064,51.6272319165806,24.784605008943174,170.99436242681196,15.208380527763174,395.32755679964356,26.16676091539313
19.859626732200102,53.24850359925802,24.80198037673362,172.73221707347744,15.257411845234595,391.42272803667424,26.228240214408014
19.80930215723789,54.96894314332026,24.816575699658202,174.4935208782607,15.298862538028473,387.34139717543104,26.290860017579206
19.758764712195422,56.78635970326311,24.82826366736099,176.26752192461444,15.33274467693895,383.09552156418295,26.354453467615993
19.70812458184361,58.69773908283345,24.836908714431804,178.04346979859886,15.359104389827955,378.6978221983832,26.418839886209128
19.657480679451837,60.69962374325861,24.84236571253506,179.81080088884073,15.378022554426341,374.1617579358761,26.48382089346521
19.606908329957342,62.78838965686139,24.84448695534296,181.55932103995536,15.389611436823184,369.5014666779642,26.54918961152825
19.556452716305717,64.96029417632133,24.843130382806372,183.2792982056907,15.394009131353897,364.73159263087217,26.614740652410802
19.50612934439947,67.21140421754849,24.838159603491253,184.96148600923794,15.391375796914977,359.86705604483194,26.68026758021996
19.455927823405766,69.5375503349399,24.8294364147769,186.5971311274672,15.381893566826138,354.9228495366191,26.74555196841739
19.40582900357227,71.93432750114431,24.816813573736187,188.17798967894097,15.365768348385222,349.913857224436,26.81035894764561
19.35586424568173,74.39708390268406,24.800132525001498,189.6963720176393,15.343228771079108,344.854674028246,26.874445196989516
19.306213078973162,76.9208654001251,24.779224155336813,191.14520533265488,15.314519684500116,339.75942566823164,26.937569115754275
19.25727678223353,79.50033858725554,24.753908102822905,192.51807169888247,15.279892927038897,334.64161868514594,26.99949082599516
19.20968172673638,82.12972221530345,24.723989976442386,193.809200794327,15.239600622315105,329.5140820789414,27.059964698861318
19.164236565834386,84.80274892080207,24.689260332790838,195.0134337453343,15.19389363046569,324.3890098700094,27.118739061731908
19.121884505364434,87.5126979566287,24.64950271418125,196.12619805683053,15.143022063558771,319.27802126787134,27.17556950336251
19.083660077664707,90.25251730545054,24.604522219381266,197.14352441318647,15.087233681023182,314.19219607578236,27.230233158782923
19.05064480781672,93.014977251862,24.554195983599932,198.06208717524834,15.026771662983965,309.1421172213773,27.28252944783429
19.02392362102204,95.79279551044122,24.49852038569013,198.87924336374957,14.961875839472743,304.1379048591461,27.332270950595085
19.00455003037016,98.57873494443362,24.437625774130773,199.59306737769026,14.89278671436867,299.1892074196438,27.37928074085753
18.99352613953134,101.36567889931591,24.37175966851099,200.20234930244948,14.819748170556899,294.30517236254224,27.4234031558003
18.99179347876083,104.14668843707538,24.301265650191958,200.7065192997926,14.74300741488227,289.4944181889719,27.464514628421497
19.00022176804224,106.91506390560318,24.22658647049555,201.10551731971995,14.662813878392887,284.7650023202263,27.502519189712253
19.01959040680612,109.66439340433872,24.148292284148948,201.39965783436367,14.57941849153047,280.12439721693084,27.53733354898924
19.05057308311364,112.38853944736421,24.067103941218406,201.58952130710895,14.493073945086465,275.57949204047304,27.568879901842564
19.093736248233636,115.08156622037153,23.983901746073546,201.67587232245862,14.404036010886143,271.1365975315417,27.597094241277485
19.14954658200115,117.7376641329418,23.899742958038303,201.6596022924492,14.312563796199221,266.8014263720278,27.621937820865526
19.218372477568355,120.3511203676133,23.815882614118173,201.5417280786948,14.218916403780105,262.5790634274096,27.64339607190809
19.300474341841785,122.91634865269617,23.733764603104856,201.32345619750356,14.123347521949084,258.47394164689416,27.661467008658448
19.395994299418266,125.42795316422999,23.65498469447053,201.00624154612535,14.026102209514187,254.48981479189302,27.67615546477018
19.50495640293752,127.88078143262356,23.581251407386222,200.59177416004206,13.927416612917572,250.6297249105145,27.687481525242905
19.627275262357415,130.26997598524602,23.51435306208694,200.08191711007996,13.827516698745324,246.89598345469352,27.695491712453304
19.762762300584107,132.59106645400294,23.456149108519487,199.4786470092132,13.726614043036191,243.2901907367633,27.700258113354515
19.911123711605036,134.84007160646485,23.40863254183602,198.78400896160562,13.624902415691881,239.8132888312915,27.701867518236753
20.071954918147046,137.01358755487763,23.374072220436975,198.00008673214188,13.522559959726989,236.46561514232792,27.700415309416726
20.244743637930508,139.1088963511306,23.355151474017372,197.12901044943857,13.419756583265855,233.2469397215404,27.69601130980543
20.42889101434723,141.12404224469955,23.354996096317517,196.17300095144643,13.316660736676736,230.1564881053936,27.688786198744445
20.623748165969186,143.05777553496927,23.3770827673958,195.13439600624775,13.21344082305068,227.19296260801636,27.67888417319506
20.82865891170689,144.9093861596681,23.425123129920546,194.01562889709274,13.110262196761344,224.35458456313629,27.66644612312375
21.04299975215422,146.67852344060802,23.503011522692972,192.81921033376315,13.007284537070234,221.63914447392207,27.65160120502412
21.26620387814186,148.3650553901454,23.614831017987633,191.54776537846917,12.904663634440615,219.04401298184828,27.63447490364629
21.497758807593765,149.9689672809124,23.764840864426997,190.20410412909536,12.802556336334362,216.5661105416959,27.615200929083027
21.7371842597449,151.49027468047052,23.95739172424143,188.79126859556604,12.701123506936614,214.2018926701212,27.593920722130033
21.9840056501534,152.92895585767607,24.19678738996249,187.31252120818135,12.600529270436711,211.94739002661237,27.57077257336817
22.237731267239447,154.2849717091307,24.487138853543087,185.77129139137284,12.500939389090167,209.79827764092337,27.54588734994416
22.497833442763007,155.55839635014905,24.832250362155275,184.17114530641408,12.402520307899694,207.7499233216182,27.519399845461756
22.76373338079741,156.7495380074281,25.235585194338707,182.5158190407417,12.305437668724238,205.79740242293656,27.49146305481998
23.034791896395948,157.85893335302168,25.700316774099353,180.8092751861092,12.209853328117529,203.9355053858108,27.46224790531515
23.31030848414845,158.88725118374776,26.229387455477035,179.0557267471612,12.115920798069341,202.15877355114398,27.431930421915837
23.58954813792616,159.83520713076692,26.825533057911667,177.25960971308695,12.023780566298553,200.46158301290885,27.400684016173702
23.871851972783425,160.7035451992873,27.491316279199047,175.42550638270046,11.933558928568345,198.83824932942966,27.36868583555241
24.156840958975142,161.49307702208935,28.22916392531585,173.55804377001127,11.84537215258402,197.28309375004758,27.336125121442198
24.444591630267798,162.20471765058673,29.04135486585675,171.66181145441638,11.7593326206365,195.79045956617497,27.303198823470122
24.735666128338917,162.83946568129545,29.92996718929985,169.74132466383978,11.675552277799497,194.35473933539546,27.27009863691023
25.031026463256456,163.3983424461914,30.896815691175707,167.8010172628126,11.594142188601687,192.97045447391076,27.23700616043362
25.331922205975136,163.88233476105216,31.94338952112199,165.8452418600811,11.515210814947416,191.63234032690661,27.20410289082256
25.63981038967434,164.29235385586674,33.070839633861794,163.87827550102128,11.438864931686432,190.3353822861162,27.171581579288794
25.956372534521854,164.6292110708169,34.280056220298576,161.90432011132438,11.365213078732134,189.074834082676,27.139642231745682
26.283638833473944,164.8936251370624,35.57175405771079,159.92747243587584,11.294366409950246,187.8462593774474,27.10847536314971
26.624088905986287,165.08624982179276,36.94646245302749,157.9516695710737,11.226434279517338,186.64555529257544,27.078251125547546
26.98062365935241,165.20767895716503,38.40445806601219,155.9806538726396,11.16151777405643,185.46891414292816,27.049124943695613
27.35649398501738,165.2584125934074,39.945746324754325,154.01798440273137,11.099705341900146,184.31275487035953,27.021248136615778
27.755309052799692,165.23882250402966,41.57009496958881,152.0670626390608,11.041071303016784,183.17367770757008,26.994766442869377
28.181086760998166,165.14918374902115,43.277042335153375,150.13112701398586,10.985674851709634,182.04849241064488,26.969808294890175
28.638224682287632,164.98978638722812,45.06587343723167,148.2132352731211,10.93355786710403,180.93434230666236,26.946480110839552
29.131372584295672,164.76103995359463,46.93561620950651,146.31628909908042,10.884742887938867,179.8288389221259,26.9248767544562
29.665291789487107,164.4635094196186,48.88504233235139,144.44309239962527,10.839233576674346,178.73008747883532,26.905094716256166
30.244755232109657,164.09795427071344,50.91262375372631,142.5963775112355,10.797017901301318,177.6365988507875,26.887232517645213
30.87446860069333,163.66542674135857,53.01645255676845,140.7787803243978,10.758070921132354,176.5471667780008,26.87138013222037
31.5589784056995,163.1673763009783,55.1941543348429,138.9928013488728,10.722353693157817,175.4607728183889,26.85761236204307
32.302560282987564,162.6057724551393,57.44280882566339,137.2407795735772,10.689809182702419,174.37654133398962,26.845994640253274
33.10910692685205,161.9833132680926,59.758889281021744,135.52490665583858,10.660360966489495,173.2937327473242,26.8365921073759
33.98204840533996,161.3036094404296,62.13824715339121,133.84729612830915,10.633919673527807,172.21176761928876,26.829467927467736
34.92432920935459,160.57116641036686,64.57617993282751,132.21005086983263,10.610393879788642,171.13028326893982,26.824671634174784
35.93842005265123,159.7912004017942,67.06756597952226,130.61526610936383,10.58969686490922,170.04919836915514,26.822232149521742
37.026306344325306,158.96948385062603,69.60697712431478,129.06498492806136,10.57174648271983,168.96878973788836,26.82216450578706
38.18943211151289,158.11233666030597,72.18872873224879,127.56116567342211,10.556463471123976,167.8898004134209,26.82448033202584
39.42863586312263,157.22668391022899,74.80691433227958,126.10568671783771,10.543773794948821,166.81349522276457,26.829186337251304
40.744121271255274,156.3200235445683,77.45544009151524,124.70035950847539,10.533613961567038,165.74158632178117,26.836271405826267
42.13547502786779,155.4002665056957,80.12803571566367,123.34691994831684,10.525932835340281,164.67610915578607,26.8456983214651
43.60171106938076,154.4755171001271,82.81828507667468,122.04699639535491,10.520686623816191,163.6193446035034,26.857410138240926
45.14130853237801,153.5538440005074,85.51974508233629,120.80205496930654,10.517831081192925,162.57376453793603,26.87134191466268
46.75225804585151,152.6430772092997,88.2261176494932,119.61333741695778,10.517318349315481,161.54195465227352,26.88742254678954
48.432206048394725,151.75070571951485,90.93138269922345,118.48183410270484,10.519102516070825,160.52652623827066,26.905566602747555
50.1787204848948,150.8839232450715,93.62986224577296,117.40831557075984,10.523149206776502,159.53005449301207,26.92567061517356
51.98952852979562,150.04972748865507,96.31623332989427,116.39338699646754,10.529439888564564,158.55509173779026,26.947622304130707
53.86259441657387,149.25491799863926,98.98553360153791,115.43750995757809,10.537967839035415,157.6042835056613,26.971311941968317
55.796073815711516,148.50596559714253,101.63320041827271,114.54099019710578,10.548731295770727,156.6805074864013,26.996630509386513
57.78824403836927,147.80887077164235,104.25510292625529,113.70396733457916,10.561730782674896,155.7869104532557,27.02345738009149
59.83746046055315,147.16915347828012,106.84752113330052,112.92641094825093,10.57697137701192,154.92684199500255,27.051655670353167
61.942112601366745,146.59199228826046,109.40711160750479,112.2081090758286,10.594463546262592,154.10376790140305,27.081084370908243
64.1005306260638,146.08235440981622,111.93088063498303,111.54865793643852,10.614218057693115,153.32119607639927,27.111613813026306
66.31086076298361,145.64501003894955,114.4161292103321,110.94746749816984,10.636239118095382,152.58260200351242,27.143126785844284
68.5709840331475,145.2845643370367,116.86037883807384,110.40377897662039,10.660522965462635,151.89133825912185,27.17550723881605
70.87851409653831,145.00561585712353,119.2613329902544,109.91668380521656,10.687062159978794,151.25053855181122,27.208633271431005
73.2308271750646,144.81290376821684,121.61690970282133,109.48513847944251,10.715848089691823,150.66305834366165,27.24238282679336
75.62505732362224,144.71135513164504,123.92532380509783,109.10796549424163,10.746866695814969,150.1314690030681,27.27664180392082
78.05807037094576,144.70613573081283,126.18512755767803,108.78383359896851,10.780090642291938,149.6580650460447,27.311301000507864
80.52652729929767,144.80271542267903,128.39514366947955,108.51122699728181,10.815474288678564,149.24482917138192,27.34624399595456
83.02708422113173,145.00685686666574,130.55433951669661,108.28841876487475,10.85295471627936,148.89336708453862,27.381340866256924
85.55657405345134,145.3245469381745,132.66172921043943,108.11346456578919,10.892456071480947,148.6049081986457,27.416456536149283
88.1120124909311,145.76192381509307,134.71633525030208,107.98422280824438,10.933891275412028,148.38040518634944,27.45146389813519
90.69048300566992,146.32514636157694,136.71719984475294,107.89837368617441,10.977159132474537,148.2206154338627,27.48624596444939
93.28902431379207,147.02015221006295,138.66343120790108,107.85340664731383,11.02214100360329,148.12607029641498,27.520688889771407
95.9045443876105,147.85237271865884,140.55425402301483,107.84658789351928,11.068701538667316,148.09698655410838,27.55468282997569
98.53373603245396,148.82652218417877,142.38902945804148,107.87494391301642,11.11669232524562,148.13320540490864,27.588135946634875
101.17299185815257,149.94650350214295,144.16727750487252,107.93528758954339,11.165953811112875,148.23417096927136,27.620984929503717
103.81833716233494,151.21536244963676,145.88874536108267,108.02428827209636,11.216314177830132,148.39892478895428,27.65318743646228
106.46539926008049,152.63520481651034,147.55345537866108,108.1385722641671,11.267588068038224,148.6261099925052,27.684704630862505
109.10942263683684,154.20710003852736,149.16165143964764,108.2748443240381,11.319578216413303,148.91399225375244,27.715493411075503
111.74534121558658,155.93108955259436,150.71368716477784,108.42999883894304,11.372079983267621,149.26050846173692,27.745514275357102
114.36789893675537,157.80634061568642,152.20997117590414,108.60117012232435,11.424885349481798,149.66333807278556,27.77473962083225
116.97175877402888,159.8312990486367,153.65103214072647,108.78571789283504,11.477783570318632,150.11994438495958,27.80314788973471
119.55155426463791,162.00368304945346,155.03763398518342,108.98119110285548,11.530559915431297,150.62754928424246,27.830710057525483
122.10189606259321,164.3203544528073,156.3708019500405,109.18530279010274,11.582996944131704,151.1830997139339,27.857386908510367
124.61735224874528,166.77718816680542,157.65173710501105,109.39591442312782,11.63488135786169,151.7833125771409,27.883142891070175
127.09241859454069,169.36902864955482,158.88174877842096,109.61100803423543,11.686013119325281,152.42479212274952,27.907960256887428
129.52150196328708,172.08986860430892,160.06228673528997,109.82865303665258,11.736210160575377,153.1041147305021,27.931837188154212
131.89891647430062,174.9332685866699,161.19498401959504,110.04702382836051,11.785307771099703,153.81782426750746,27.954776665466163
134.21887729071878,177.8927187314901,162.28161180597556,110.26449163537465,11.833158110581147,154.5624191341366,27.9767855703514
136.47549259375657,180.9616990349508,163.32400503022424,110.47971503210522,11.87963374541164,155.33440169059142,27.997889459270144
138.6627688702513,184.13356747823477,164.3240516152584,110.69164628021517,11.924632493588685,156.1303220588425,28.018146302938217
140.77464310789026,187.401457958767,165.28370214668277,110.89947859452002,11.968077542839193,156.94673704432512,28.03764271893907
142.8050332583404,190.7581805613464,166.2049155514416,111.10261846685005,12.009911114497958,157.78013125327345,28.056478523298015
144.74787842499876,194.1960901531808,167.0895864994276,111.30070904177293,12.050086341443908,158.62690144520846,28.074758792824987
146.5971662002439,197.70696639736738,167.93957980788588,111.49365875143971,12.088563781703897,159.4834172385882,28.09260030965445
148.34700155378218,201.28196169264825,168.75687560495328,111.68162796060652,12.125314749971887,160.34607066427816,28.110138103408197
149.99176529773064,204.91168786031668,169.54367470424813,111.8649691238612,12.160326488733125,161.21125143268603,28.127517177071258
151.52630450450476,208.5865265594686,170.30236142466472,112.04414204553999,12.1936023703191,162.07528141042312,28.144874170137758
152.94604668993517,212.29706991476053,171.03536752620366,112.21962591998214,12.225156805845476,162.9343816582914,28.162326438886005
154.24703570166392,216.03442178104476,171.74502612790286,112.39184301971906,12.255010652341747,163.7847175352242,28.179976605732676
155.42596260637785,219.79030032019355,172.4334877927014,112.56110116858476,12.283191162847796,164.62249799361382,28.197920728639797
156.48019010678496,223.55710319145675,173.1027184915416,112.72755947010936,12.309734013448573,165.4440511119061,28.21624506951875
157.40772022669884,227.32796903300047,173.7545246317698,112.89121650274757,12.33468264807655,166.24583343992424,28.23501470779551
158.20712483548667,231.09681951523973,174.39059468896204,113.05191115541598,12.35808421928237,167.0243968353747,28.25427101919292
158.8775132250964,234.85842097564912,175.01262651281584,113.20933368158043,12.37998552666121,167.77636133867014,28.27404444304828
159.41855928678345,238.6083783235742,175.62250118462075,113.36304615831192,12.400433221877963,168.49844796568172,28.294367053472143
159.83053125338577,242.3429783153948,176.22234053584134,113.51250324379177,12.419478573458967,169.18758029051838,28.31526944650139
160.11427181339394,246.05897631398997,176.8144294975958,113.65709162715586,12.43718058175668,169.84099329544912,28.336768674942643
160.27113399865263,249.75339686051396,177.4012115745655,113.79620591255441,12.453602403185462,170.4563005093822,28.35886562135549
160.30290016242924,253.42332245233985,177.985500905337,113.9293083564805,12.468804403378885,171.03150706570486,28.381557310178827
160.21170576769185,257.06570056393565,178.57074690061881,114.05592300957387,12.482840812288025,171.56495371690292,28.404849146258663
159.99998596054212,260.67722931412675,179.16108697291133,114.17559899745002,12.495762497164245,172.0552083699593,28.42875156891971
159.67044758952824,264.25430726268524,179.7611891119229,114.2878892054782,12.507621296605416,172.5009666828818,28.45326661471077
159.22604376778355,267.7929988097546,180.37610324769423,114.39235060234031,12.518469592845863,172.9010182420067,28.478383143916766
158.66994227325955,271.28898877403594,181.0112013839812,114.48855952979436,12.528355056958933,173.2543047452308,28.504087357701728
158.00553021503305,274.73751270553254,181.67207411129675,114.57612404524268,12.537316697127258,173.56003818302605,28.530373966108787
157.23647551302776,278.13327294020917,182.36430383683765,114.65467319002349,12.545386516590757,173.8177775060194,28.557242788478018
156.36677639617199,281.4703784459857,183.09320825043295,114.72382397086886,12.552594102232868,174.0273970267307,28.58468609366687
155.4007325064305,284.74235230295346,183.86366960608123,114.78314459677367,12.558968651621647,174.18899380961992,28.612684726310732
154.3428591503108,287.94224044296254,184.68006523748176,114.83214951288394,12.564537249072508,174.30280885866068,28.641219064275894
153.19779451490137,291.0628043909449,185.54623003528386,114.87034586826873,12.569323226752102,174.3691727696585,28.67027956527246
151.97022096242733,294.09673565144163,186.46538180089883,114.89728488148378,12.573348824029383,174.38844681399664,28.699861347964394
150.6648142115984,297.03685376713236,187.44002534123476,114.91255887160409,12.576641577493184,174.36095242133717,28.729948274239568
149.2862425890231,299.87625118237656,188.471901821957,114.91576197383311,12.579238354856304,174.28691379310118,28.76050541179571
147.83922582761352,302.6083322112014,189.5619980854989,114.90648461927005,12.581182645089823,174.1664335229909,28.791487154991426
146.328618175778,305.22675680592494,190.7105868112278,114.88436114107284,12.582518822031501,173.99949590156126,28.822845944570066
144.75944551553857,307.7253452436414,191.91729659381735,114.849108826098,12.583290941817218,173.78598913668523,28.854526164958227
143.13686304587216,310.09797287744817,193.18122209660365,114.80050900128268,12.58354783179274,173.52576157206354,28.886450128601325
141.4660734897258,312.33848485673104,194.5010353229454,114.73835667667606,12.583348071242094,173.2187162249299,28.918515072663585
139.75227387559974,314.44069434032497,195.8750390253481,114.66242604882795,12.582758961151328,172.86489588698,28.95060653660583
138.00066782527983,316.39850302937964,197.30115004724215,114.57246369108688,12.58185140733087,172.4645342344778,28.9826124315847
136.21652179881016,318.2060963472568,198.77684765762223,114.4681915222538,12.580698591932299,172.01812640492182,29.014422535376664
134.40522397486293,319.8581434193316,200.2991321702282,114.34930449076585,12.579384791893416,171.5265308189811,29.04591854292609
132.57233168273262,321.35001503691336,201.8645080882117,114.21547365426444,12.57801972983629,170.9910175117834,29.07697122118169
130.72358981014844,322.67803910205976,203.4689606356649,114.06637937354874,12.576745371923616,170.41322544646107,29.107450332762067
128.86488671420318,323.8396903114046,205.10791262030807,113.90177404342367,12.575730306744964,169.79508620956472,29.137234385795853
127.0021535665836,324.8336020746425,206.77624844058195,113.72153457551781,12.575160144591385,169.1387752742105,29.166207204931197
125.14125884621356,325.6594270576302,208.46852154849648,113.52567675642553,12.5752328001102,168.4467408413166,29.19424759998607
123.28793983937334,326.31765302058034,210.17927758723698,113.31434513029785,12.576158092590564,167.72180319513055,29.221229435221954
121.44777453285043,326.8094717164828,211.9032540964176,113.08779648823659,12.57815543984309,166.96720331620293,29.24703655669473
119.6261679510803,327.13671955594657,213.63535517007392,112.84639861511793,12.581446768830176,166.18651875648024,29.271576170107217
117.82831744562176,327.3018029464788,215.37052173351015,112.59067115312453,12.586247803222747,165.38352066068174,29.29477472168864
116.05915113739759,327.30753987646455,217.10361742820203,112.32133920357016,12.592762781806513,164.5620653758659,29.31656145393569
114.32328108482653,327.15696318626163,218.8293556004758,112.03932965193621,12.601183427804393,163.72602222274543,29.336858037250288
112.62499934795774,326.8531768310305,220.54226196933362,111.74570053622803,12.61168721422217,162.87920592629936,29.355582833755097
110.96828449858438,326.3993037832709,222.2366560467479,111.44156112860517,12.624431303322856,162.02532371873207,29.37265796493496
109.35677959647778,325.79849961393444,223.9066279915008,111.12802517101534,12.639545110072005,161.16796862814442,29.388004735973794
107.79375300789114,325.0540245158059,225.5460177060395,110.80618776979226,12.657127043617521,160.31064824760722,29.40153154291104
106.28209123450803,324.1693740244984,227.1484377302632,110.47710372431824,12.67724677543826,159.45679532139235,29.41313117773039
