HandOpen,HandClose,Wrist Flexion,Wrist Extension,Supination,Pronation,Rest
371.4565004887586,425.2199413489736,278.5923753665689,4.887585532746823,4.887585532746823,4.887585532746823,254.15444770283483
425.2199413489736,229.7165200391007,288.36754643206257,4.887585532746823,0.0,9.775171065493646,327.4682306940371
415.44477028347995,97.75171065493646,439.8826979472141,4.887585532746823,14.662756598240469,43.98826979472141,381.2316715542522
263.92961876832845,43.98826979472141,391.00684261974584,68.42619745845552,29.325513196480937,112.41446725317694,469.208211143695
127.07722385141741,19.550342130987293,215.05376344086022,166.17790811339196,48.87585532746823,171.0654936461388,522.9716520039101
53.763440860215056,4.887585532746823,87.97653958944282,268.81720430107526,24.437927663734115,195.50342130987292,327.4682306940371
14.662756598240469,9.775171065493646,39.100684261974585,322.5806451612903,34.21309872922776,219.94134897360706,131.96480938416423
4.887585532746823,9.775171065493646,9.775171065493646,322.5806451612903,29.325513196480937,317.6930596285435,48.87585532746823
4.887585532746823,19.550342130987293,9.775171065493646,156.40273704789834,92.86412512218965,322.5806451612903,24.437927663734115
4.887585532746823,146.6275659824047,9.775171065493646,68.42619745845552,63.53861192570871,166.17790811339196,4.887585532746823
4.887585532746823,288.36754643206257,9.775171065493646,43.98826979472141,39.100684261974585,68.42619745845552,0.0
68.42619745845552,366.5689149560117,63.53861192570871,19.550342130987293,19.550342130987293,29.325513196480937,9.775171065493646
229.7165200391007,395.89442815249265,185.7282502443793,4.887585532746823,14.662756598240469,19.550342130987293,24.437927663734115
283.47996089931576,464.3206256109482,259.04203323558164,4.887585532746823,4.887585532746823,14.662756598240469,136.85239491691104
337.2434017595308,366.5689149560117,298.14271749755625,0.0,4.887585532746823,4.887585532746823,288.36754643206257
420.33235581622677,185.7282502443793,322.5806451612903,0.0,0.0,24.437927663734115,376.3440860215054
395.89442815249265,87.97653958944282,430.10752688172045,9.775171065493646,14.662756598240469,53.763440860215056,425.2199413489736
200.39100684261973,34.21309872922776,288.36754643206257,53.763440860215056,29.325513196480937,127.07722385141741,527.8592375366569
78.20136852394917,14.662756598240469,131.96480938416423,146.6275659824047,34.21309872922776,190.6158357771261,488.7585532746823
39.100684261974585,9.775171065493646,53.763440860215056,215.05376344086022,24.437927663734115,190.6158357771261,263.92961876832845
19.550342130987293,9.775171065493646,24.437927663734115,244.37927663734115,19.550342130987293,180.84066471163246,107.52688172043011
4.887585532746823,4.887585532746823,9.775171065493646,171.0654936461388,14.662756598240469,303.03030303030306,43.98826979472141
9.775171065493646,24.437927663734115,9.775171065493646,97.75171065493646,68.42619745845552,249.26686217008796,24.437927663734115
9.775171065493646,136.85239491691104,4.887585532746823,43.98826979472141,58.651026392961874,122.18963831867057,14.662756598240469
34.21309872922776,254.15444770283483,29.325513196480937,19.550342130987293,19.550342130987293,53.763440860215056,9.775171065493646
107.52688172043011,307.91788856304987,87.97653958944282,14.662756598240469,19.550342130987293,24.437927663734115,29.325513196480937
224.82893450635387,327.4682306940371,185.7282502443793,9.775171065493646,9.775171065493646,4.887585532746823,347.0185728250244
351.9061583577713,347.0185728250244,391.00684261974584,9.775171065493646,9.775171065493646,53.763440860215056,454.54545454545456
73.31378299120234,34.21309872922776,63.53861192570871,4.887585532746823,4.887585532746823,200.39100684261973,24.437927663734115
9.775171065493646,0.0,4.887585532746823,112.41446725317694,14.662756598240469,210.16617790811338,4.887585532746823
4.887585532746823,87.97653958944282,122.18963831867057,161.29032258064515,48.87585532746823,9.775171065493646,141.73998044965788
224.82893450635387,381.2316715542522,278.5923753665689,9.775171065493646,68.42619745845552,9.775171065493646,449.65786901270775
303.03030303030306,102.63929618768329,131.96480938416423,0.0,19.550342130987293,136.85239491691104,131.96480938416423
19.550342130987293,9.775171065493646,9.775171065493646,4.887585532746823,63.53861192570871,293.2551319648094,14.662756598240469
9.775171065493646,9.775171065493646,29.325513196480937,171.0654936461388,0.0,53.763440860215056,24.437927663734115
87.97653958944282,307.91788856304987,239.49169110459434,161.29032258064515,0.0,0.0,322.5806451612903
371.4565004887586,381.2316715542522,410.55718475073314,19.550342130987293,48.87585532746823,78.20136852394917,454.54545454545456
68.42619745845552,29.325513196480937,24.437927663734115,9.775171065493646,19.550342130987293,180.84066471163246,29.325513196480937
4.887585532746823,0.0,4.887585532746823,53.763440860215056,48.87585532746823,102.63929618768329,4.887585532746823
48.87585532746823,92.86412512218965,68.42619745845552,195.50342130987292,9.775171065493646,14.662756598240469,112.41446725317694
303.03030303030306,391.00684261974584,224.82893450635387,39.100684261974585,19.550342130987293,34.21309872922776,474.0957966764418
219.94134897360706,117.30205278592375,131.96480938416423,9.775171065493646,43.98826979472141,151.51515151515153,146.6275659824047
14.662756598240469,14.662756598240469,4.887585532746823,0.0,43.98826979472141,273.7047898338221,14.662756598240469
4.887585532746823,4.887585532746823,63.53861192570871,39.100684261974585,53.763440860215056,29.325513196480937,14.662756598240469
200.39100684261973,303.03030303030306,229.7165200391007,180.84066471163246,4.887585532746823,4.887585532746823,298.14271749755625
322.5806451612903,405.6695992179863,234.6041055718475,131.96480938416423,24.437927663734115,78.20136852394917,439.8826979472141
34.21309872922776,24.437927663734115,24.437927663734115,14.662756598240469,34.21309872922776,151.51515151515153,24.437927663734115
4.887585532746823,4.887585532746823,4.887585532746823,4.887585532746823,14.662756598240469,102.63929618768329,4.887585532746823
43.98826979472141,78.20136852394917,171.0654936461388,175.95307917888564,29.325513196480937,9.775171065493646,131.96480938416423
239.49169110459434,366.5689149560117,347.0185728250244,107.52688172043011,0.0,43.98826979472141,420.33235581622677
337.2434017595308,87.97653958944282,68.42619745845552,4.887585532746823,4.887585532746823,161.29032258064515,131.96480938416423
19.550342130987293,4.887585532746823,0.0,4.887585532746823,83.08895405669598,268.81720430107526,9.775171065493646
9.775171065493646,19.550342130987293,97.75171065493646,63.53861192570871,43.98826979472141,29.325513196480937,43.98826979472141
83.08895405669598,327.4682306940371,229.7165200391007,127.07722385141741,24.437927663734115,0.0,347.0185728250244
386.119257086999,405.6695992179863,122.18963831867057,87.97653958944282,14.662756598240469,58.651026392961874,469.208211143695
68.42619745845552,29.325513196480937,4.887585532746823,14.662756598240469,0.0,141.73998044965788,24.437927663734115
9.775171065493646,9.775171065493646,48.87585532746823,4.887585532746823,24.437927663734115,97.75171065493646,0.0
19.550342130987293,83.08895405669598,224.82893450635387,180.84066471163246,4.887585532746823,9.775171065493646,127.07722385141741
268.81720430107526,434.99511241446726,273.7047898338221,273.7047898338221,83.08895405669598,24.437927663734115,483.8709677419355
288.36754643206257,131.96480938416423,9.775171065493646,19.550342130987293,4.887585532746823,122.18963831867057,146.6275659824047
29.325513196480937,4.887585532746823,4.887585532746823,9.775171065493646,4.887585532746823,278.5923753665689,9.775171065493646
4.887585532746823,0.0,151.51515151515153,4.887585532746823,9.775171065493646,24.437927663734115,29.325513196480937
92.86412512218965,356.7937438905181,327.4682306940371,161.29032258064515,9.775171065493646,9.775171065493646,351.9061583577713
322.5806451612903,469.208211143695,63.53861192570871,83.08895405669598,68.42619745845552,102.63929618768329,498.5337243401759
83.08895405669598,24.437927663734115,4.887585532746823,0.0,4.887585532746823,156.40273704789834,14.662756598240469
4.887585532746823,4.887585532746823,68.42619745845552,0.0,14.662756598240469,102.63929618768329,4.887585532746823
4.887585532746823,83.08895405669598,263.92961876832845,107.52688172043011,48.87585532746823,4.887585532746823,254.15444770283483
219.94134897360706,513.1964809384165,146.6275659824047,219.94134897360706,19.550342130987293,34.21309872922776,596.2854349951125
317.6930596285435,63.53861192570871,9.775171065493646,19.550342130987293,39.100684261974585,136.85239491691104,39.100684261974585
19.550342130987293,0.0,24.437927663734115,4.887585532746823,14.662756598240469,259.04203323558164,4.887585532746823
9.775171065493646,92.86412512218965,229.7165200391007,68.42619745845552,4.887585532746823,14.662756598240469,117.30205278592375
68.42619745845552,552.297165200391,434.99511241446726,146.6275659824047,19.550342130987293,0.0,449.65786901270775
322.5806451612903,83.08895405669598,34.21309872922776,151.51515151515153,9.775171065493646,73.31378299120234,146.6275659824047
78.20136852394917,0.0,9.775171065493646,14.662756598240469,63.53861192570871,136.85239491691104,4.887585532746823
4.887585532746823,136.85239491691104,92.86412512218965,9.775171065493646,0.0,87.97653958944282,4.887585532746823
19.550342130987293,596.2854349951125,259.04203323558164,127.07722385141741,0.0,9.775171065493646,351.9061583577713
254.15444770283483,83.08895405669598,151.51515151515153,322.5806451612903,34.21309872922776,19.550342130987293,552.297165200391
244.37927663734115,4.887585532746823,14.662756598240469,29.325513196480937,24.437927663734115,141.73998044965788,14.662756598240469
14.662756598240469,87.97653958944282,39.100684261974585,0.0,83.08895405669598,293.2551319648094,4.887585532746823
4.887585532746823,581.622678396872,219.94134897360706,4.887585532746823,4.887585532746823,29.325513196480937,234.6041055718475
97.75171065493646,87.97653958944282,434.99511241446726,166.17790811339196,4.887585532746823,4.887585532746823,547.4095796676442
327.4682306940371,9.775171065493646,39.100684261974585,92.86412512218965,34.21309872922776,53.763440860215056,34.21309872922776
112.41446725317694,68.42619745845552,4.887585532746823,4.887585532746823,19.550342130987293,229.7165200391007,9.775171065493646
9.775171065493646,557.1847507331378,97.75171065493646,9.775171065493646,87.97653958944282,107.52688172043011,122.18963831867057
9.775171065493646,87.97653958944282,288.36754643206257,4.887585532746823,4.887585532746823,14.662756598240469,444.77028347996094
210.16617790811338,9.775171065493646,151.51515151515153,171.0654936461388,9.775171065493646,29.325513196480937,141.73998044965788
400.78201368523946,78.20136852394917,9.775171065493646,117.30205278592375,34.21309872922776,141.73998044965788,9.775171065493646
24.437927663734115,571.8475073313783,24.437927663734115,4.887585532746823,9.775171065493646,244.37927663734115,19.550342130987293
4.887585532746823,83.08895405669598,224.82893450635387,0.0,68.42619745845552,19.550342130987293,351.9061583577713
53.763440860215056,9.775171065493646,425.2199413489736,73.31378299120234,4.887585532746823,0.0,537.6344086021505
307.91788856304987,73.31378299120234,39.100684261974585,200.39100684261973,9.775171065493646,73.31378299120234,14.662756598240469
97.75171065493646,527.8592375366569,4.887585532746823,34.21309872922776,34.21309872922776,151.51515151515153,9.775171065493646
9.775171065493646,73.31378299120234,68.42619745845552,4.887585532746823,19.550342130987293,97.75171065493646,273.7047898338221
24.437927663734115,9.775171065493646,268.81720430107526,4.887585532746823,78.20136852394917,9.775171065493646,542.5219941348973
224.82893450635387,97.75171065493646,171.0654936461388,180.84066471163246,9.775171065493646,34.21309872922776,29.325513196480937
293.2551319648094,513.1964809384165,9.775171065493646,210.16617790811338,0.0,151.51515151515153,0.0
14.662756598240469,73.31378299120234,24.437927663734115,19.550342130987293,53.763440860215056,293.2551319648094,122.18963831867057
9.775171065493646,4.887585532746823,244.37927663734115,0.0,9.775171065493646,24.437927663734115,430.10752688172045
83.08895405669598,83.08895405669598,430.10752688172045,24.437927663734115,58.651026392961874,9.775171065493646,156.40273704789834
332.35581622678393,434.99511241446726,43.98826979472141,180.84066471163246,4.887585532746823,24.437927663734115,9.775171065493646
102.63929618768329,127.07722385141741,4.887585532746823,102.63929618768329,24.437927663734115,127.07722385141741,14.662756598240469
4.887585532746823,9.775171065493646,39.100684261974585,4.887585532746823,53.763440860215056,195.50342130987292,342.1309872922776
14.662756598240469,4.887585532746823,229.7165200391007,9.775171065493646,43.98826979472141,9.775171065493646,503.42130987292273
244.37927663734115,312.8054740957967,293.2551319648094,63.53861192570871,19.550342130987293,4.887585532746823,9.775171065493646
371.4565004887586,449.65786901270775,24.437927663734115,219.94134897360706,9.775171065493646,102.63929618768329,0.0
24.437927663734115,39.100684261974585,9.775171065493646,24.437927663734115,29.325513196480937,229.7165200391007,278.5923753665689
0.0,4.887585532746823,161.29032258064515,4.887585532746823,29.325513196480937,48.87585532746823,518.0840664711633
87.97653958944282,58.651026392961874,317.6930596285435,34.21309872922776,9.775171065493646,14.662756598240469,39.100684261974585
332.35581622678393,391.00684261974584,83.08895405669598,180.84066471163246,48.87585532746823,68.42619745845552,0.0
107.52688172043011,141.73998044965788,0.0,122.18963831867057,0.0,151.51515151515153,131.96480938416423
14.662756598240469,4.887585532746823,73.31378299120234,4.887585532746823,14.662756598240469,107.52688172043011,415.44477028347995
4.887585532746823,9.775171065493646,288.36754643206257,0.0,53.763440860215056,9.775171065493646,161.29032258064515
249.26686217008796,283.47996089931576,161.29032258064515,43.98826979472141,29.325513196480937,34.21309872922776,4.887585532746823
381.2316715542522,444.77028347996094,19.550342130987293,210.16617790811338,19.550342130987293,141.73998044965788,4.887585532746823
24.437927663734115,29.325513196480937,29.325513196480937,87.97653958944282,9.775171065493646,332.35581622678393,307.91788856304987
9.775171065493646,9.775171065493646,205.27859237536657,9.775171065493646,19.550342130987293,29.325513196480937,537.6344086021505
63.53861192570871,29.325513196480937,376.3440860215054,0.0,14.662756598240469,4.887585532746823,19.550342130987293
332.35581622678393,391.00684261974584,39.100684261974585,87.97653958944282,0.0,53.763440860215056,4.887585532746823
112.41446725317694,337.2434017595308,4.887585532746823,239.49169110459434,34.21309872922776,146.6275659824047,244.37927663734115
4.887585532746823,24.437927663734115,53.763440860215056,24.437927663734115,4.887585532746823,131.96480938416423,508.30889540566966
0.0,9.775171065493646,288.36754643206257,9.775171065493646,4.887585532746823,14.662756598240469,29.325513196480937
205.27859237536657,151.51515151515153,185.7282502443793,4.887585532746823,73.31378299120234,43.98826979472141,9.775171065493646
425.2199413489736,425.2199413489736,4.887585532746823,92.86412512218965,24.437927663734115,117.30205278592375,107.52688172043011
24.437927663734115,63.53861192570871,19.550342130987293,166.17790811339196,53.763440860215056,293.2551319648094,420.33235581622677
4.887585532746823,4.887585532746823,229.7165200391007,14.662756598240469,4.887585532746823,19.550342130987293,156.40273704789834
43.98826979472141,53.763440860215056,400.78201368523946,4.887585532746823,14.662756598240469,9.775171065493646,4.887585532746823
263.92961876832845,376.3440860215054,43.98826979472141,14.662756598240469,39.100684261974585,53.763440860215056,9.775171065493646
254.15444770283483,136.85239491691104,9.775171065493646,175.95307917888564,9.775171065493646,171.0654936461388,303.03030303030306
9.775171065493646,9.775171065493646,68.42619745845552,136.85239491691104,68.42619745845552,136.85239491691104,522.9716520039101
4.887585532746823,0.0,263.92961876832845,9.775171065493646,0.0,14.662756598240469,9.775171065493646
166.17790811339196,278.5923753665689,180.84066471163246,0.0,14.662756598240469,19.550342130987293,4.887585532746823
381.2316715542522,425.2199413489736,9.775171065493646,136.85239491691104,39.100684261974585,127.07722385141741,234.6041055718475
48.87585532746823,24.437927663734115,29.325513196480937,171.0654936461388,9.775171065493646,298.14271749755625,532.7468230694037
9.775171065493646,4.887585532746823,205.27859237536657,24.437927663734115,43.98826979472141,29.325513196480937,39.100684261974585
73.31378299120234,87.97653958944282,371.4565004887586,4.887585532746823,4.887585532746823,9.775171065493646,0.0
420.33235581622677,434.99511241446726,29.325513196480937,0.0,4.887585532746823,92.86412512218965,87.97653958944282
136.85239491691104,151.51515151515153,0.0,180.84066471163246,29.325513196480937,180.84066471163246,454.54545454545456
14.662756598240469,9.775171065493646,112.41446725317694,200.39100684261973,19.550342130987293,107.52688172043011,180.84066471163246
9.775171065493646,0.0,293.2551319648094,9.775171065493646,83.08895405669598,14.662756598240469,14.662756598240469
215.05376344086022,263.92961876832845,195.50342130987292,4.887585532746823,4.887585532746823,19.550342130987293,9.775171065493646
371.4565004887586,478.9833822091887,14.662756598240469,0.0,0.0,146.6275659824047,298.14271749755625
29.325513196480937,39.100684261974585,19.550342130987293,263.92961876832845,53.763440860215056,337.2434017595308,532.7468230694037
4.887585532746823,4.887585532746823,219.94134897360706,278.5923753665689,9.775171065493646,34.21309872922776,14.662756598240469
43.98826979472141,43.98826979472141,371.4565004887586,14.662756598240469,34.21309872922776,4.887585532746823,0.0
288.36754643206257,351.9061583577713,34.21309872922776,9.775171065493646,4.887585532746823,53.763440860215056,244.37927663734115
224.82893450635387,322.5806451612903,9.775171065493646,102.63929618768329,4.887585532746823,190.6158357771261,518.0840664711633
9.775171065493646,19.550342130987293,48.87585532746823,351.9061583577713,73.31378299120234,122.18963831867057,34.21309872922776
0.0,4.887585532746823,263.92961876832845,68.42619745845552,14.662756598240469,4.887585532746823,9.775171065493646
180.84066471163246,200.39100684261973,195.50342130987292,4.887585532746823,29.325513196480937,19.550342130987293,87.97653958944282
342.1309872922776,488.7585532746823,14.662756598240469,43.98826979472141,14.662756598240469,112.41446725317694,381.2316715542522
63.53861192570871,34.21309872922776,14.662756598240469,278.5923753665689,19.550342130987293,322.5806451612903,166.17790811339196
4.887585532746823,9.775171065493646,185.7282502443793,210.16617790811338,73.31378299120234,29.325513196480937,9.775171065493646
39.100684261974585,48.87585532746823,386.119257086999,14.662756598240469,9.775171065493646,14.662756598240469,34.21309872922776
263.92961876832845,420.33235581622677,39.100684261974585,9.775171065493646,34.21309872922776,63.53861192570871,307.91788856304987
219.94134897360706,161.29032258064515,4.887585532746823,131.96480938416423,9.775171065493646,151.51515151515153,508.30889540566966
9.775171065493646,14.662756598240469,78.20136852394917,342.1309872922776,4.887585532746823,127.07722385141741,9.775171065493646
4.887585532746823,9.775171065493646,293.2551319648094,78.20136852394917,63.53861192570871,9.775171065493646,0.0
136.85239491691104,293.2551319648094,210.16617790811338,4.887585532746823,14.662756598240469,43.98826979472141,249.26686217008796
351.9061583577713,469.208211143695,9.775171065493646,58.651026392961874,43.98826979472141,156.40273704789834,527.8592375366569
58.651026392961874,34.21309872922776,14.662756598240469,317.6930596285435,9.775171065493646,307.91788856304987,29.325513196480937
0.0,14.662756598240469,195.50342130987292,156.40273704789834,9.775171065493646,29.325513196480937,9.775171065493646
48.87585532746823,53.763440860215056,400.78201368523946,4.887585532746823,24.437927663734115,9.775171065493646,78.20136852394917
322.5806451612903,464.3206256109482,48.87585532746823,24.437927663734115,43.98826979472141,58.651026392961874,381.2316715542522
136.85239491691104,161.29032258064515,4.887585532746823,249.26686217008796,131.96480938416423,161.29032258064515,175.95307917888564
9.775171065493646,9.775171065493646,107.52688172043011,410.55718475073314,9.775171065493646,127.07722385141741,14.662756598240469
0.0,9.775171065493646,288.36754643206257,34.21309872922776,9.775171065493646,9.775171065493646,19.550342130987293
234.6041055718475,347.0185728250244,112.41446725317694,4.887585532746823,9.775171065493646,39.100684261974585,342.1309872922776
400.78201368523946,508.30889540566966,9.775171065493646,53.763440860215056,4.887585532746823,141.73998044965788,547.4095796676442
39.100684261974585,24.437927663734115,19.550342130987293,303.03030303030306,73.31378299120234,327.4682306940371,19.550342130987293
4.887585532746823,4.887585532746823,224.82893450635387,136.85239491691104,9.775171065493646,34.21309872922776,4.887585532746823
43.98826979472141,161.29032258064515,347.0185728250244,9.775171065493646,4.887585532746823,0.0,263.92961876832845
273.7047898338221,493.6461388074291,19.550342130987293,9.775171065493646,4.887585532746823,63.53861192570871,532.7468230694037
278.5923753665689,39.100684261974585,9.775171065493646,303.03030303030306,0.0,146.6275659824047,43.98826979472141
19.550342130987293,9.775171065493646,122.18963831867057,483.8709677419355,73.31378299120234,127.07722385141741,4.887585532746823
4.887585532746823,39.100684261974585,288.36754643206257,39.100684261974585,9.775171065493646,14.662756598240469,92.86412512218965
127.07722385141741,391.00684261974584,107.52688172043011,14.662756598240469,4.887585532746823,29.325513196480937,405.6695992179863
342.1309872922776,337.2434017595308,0.0,78.20136852394917,43.98826979472141,210.16617790811338,171.0654936461388
83.08895405669598,24.437927663734115,48.87585532746823,347.0185728250244,34.21309872922776,347.0185728250244,4.887585532746823
4.887585532746823,4.887585532746823,303.03030303030306,151.51515151515153,78.20136852394917,43.98826979472141,14.662756598240469
53.763440860215056,161.29032258064515,229.7165200391007,14.662756598240469,4.887585532746823,4.887585532746823,332.35581622678393
293.2551319648094,493.6461388074291,9.775171065493646,9.775171065493646,0.0,29.325513196480937,542.5219941348973
131.96480938416423,48.87585532746823,9.775171065493646,273.7047898338221,29.325513196480937,131.96480938416423,14.662756598240469
9.775171065493646,9.775171065493646,175.95307917888564,547.4095796676442,14.662756598240469,273.7047898338221,9.775171065493646
4.887585532746823,141.73998044965788,395.89442815249265,19.550342130987293,63.53861192570871,19.550342130987293,234.6041055718475
215.05376344086022,493.6461388074291,48.87585532746823,9.775171065493646,4.887585532746823,4.887585532746823,527.8592375366569
410.55718475073314,39.100684261974585,0.0,131.96480938416423,4.887585532746823,97.75171065493646,43.98826979472141
29.325513196480937,0.0,112.41446725317694,430.10752688172045,48.87585532746823,215.05376344086022,9.775171065493646
9.775171065493646,43.98826979472141,268.81720430107526,112.41446725317694,29.325513196480937,53.763440860215056,92.86412512218965
63.53861192570871,405.6695992179863,107.52688172043011,9.775171065493646,73.31378299120234,9.775171065493646,444.77028347996094
366.5689149560117,342.1309872922776,9.775171065493646,43.98826979472141,9.775171065493646,73.31378299120234,180.84066471163246
136.85239491691104,19.550342130987293,39.100684261974585,342.1309872922776,9.775171065493646,185.7282502443793,4.887585532746823
4.887585532746823,4.887585532746823,263.92961876832845,342.1309872922776,39.100684261974585,117.30205278592375,19.550342130987293
4.887585532746823,166.17790811339196,410.55718475073314,19.550342130987293,19.550342130987293,14.662756598240469,327.4682306940371
229.7165200391007,513.1964809384165,29.325513196480937,4.887585532746823,92.86412512218965,39.100684261974585,562.0723362658846
410.55718475073314,53.763440860215056,9.775171065493646,141.73998044965788,9.775171065493646,156.40273704789834,24.437927663734115
34.21309872922776,4.887585532746823,200.39100684261973,503.42130987292273,4.887585532746823,347.0185728250244,0.0
9.775171065493646,131.96480938416423,259.04203323558164,58.651026392961874,19.550342130987293,43.98826979472141,239.49169110459434
43.98826979472141,449.65786901270775,107.52688172043011,9.775171065493646,14.662756598240469,4.887585532746823,547.4095796676442
263.92961876832845,87.97653958944282,4.887585532746823,151.51515151515153,63.53861192570871,24.437927663734115,39.100684261974585
283.47996089931576,9.775171065493646,24.437927663734115,459.4330400782014,9.775171065493646,136.85239491691104,4.887585532746823
14.662756598240469,29.325513196480937,283.47996089931576,87.97653958944282,14.662756598240469,283.47996089931576,102.63929618768329
0.0,405.6695992179863,405.6695992179863,4.887585532746823,19.550342130987293,29.325513196480937,415.44477028347995
122.18963831867057,327.4682306940371,24.437927663734115,43.98826979472141,4.887585532746823,9.775171065493646,190.6158357771261
366.5689149560117,19.550342130987293,4.887585532746823,361.6813294232649,63.53861192570871,92.86412512218965,9.775171065493646
68.42619745845552,4.887585532746823,87.97653958944282,376.3440860215054,4.887585532746823,215.05376344086022,24.437927663734115
0.0,156.40273704789834,263.92961876832845,24.437927663734115,24.437927663734115,58.651026392961874,327.4682306940371
53.763440860215056,459.4330400782014,117.30205278592375,9.775171065493646,24.437927663734115,4.887585532746823,547.4095796676442
278.5923753665689,92.86412512218965,14.662756598240469,156.40273704789834,9.775171065493646,48.87585532746823,14.662756598240469
161.29032258064515,9.775171065493646,34.21309872922776,503.42130987292273,48.87585532746823,151.51515151515153,9.775171065493646
9.775171065493646,39.100684261974585,254.15444770283483,53.763440860215056,0.0,151.51515151515153,210.16617790811338
4.887585532746823,356.7937438905181,347.0185728250244,4.887585532746823,4.887585532746823,14.662756598240469,513.1964809384165
200.39100684261973,351.9061583577713,19.550342130987293,122.18963831867057,39.100684261974585,9.775171065493646,43.98826979472141
415.44477028347995,19.550342130987293,4.887585532746823,493.6461388074291,14.662756598240469,131.96480938416423,0.0
34.21309872922776,9.775171065493646,117.30205278592375,53.763440860215056,48.87585532746823,332.35581622678393,73.31378299120234
9.775171065493646,117.30205278592375,244.37927663734115,4.887585532746823,0.0,43.98826979472141,415.44477028347995
48.87585532746823,391.00684261974584,107.52688172043011,136.85239491691104,24.437927663734115,9.775171065493646,185.7282502443793
322.5806451612903,102.63929618768329,4.887585532746823,381.2316715542522,92.86412512218965,63.53861192570871,9.775171065493646
156.40273704789834,4.887585532746823,43.98826979472141,107.52688172043011,19.550342130987293,166.17790811339196,4.887585532746823
9.775171065493646,34.21309872922776,171.0654936461388,4.887585532746823,39.100684261974585,171.0654936461388,332.35581622678393
9.775171065493646,361.6813294232649,386.119257086999,43.98826979472141,4.887585532746823,14.662756598240469,601.1730205278593
239.49169110459434,332.35581622678393,29.325513196480937,381.2316715542522,9.775171065493646,9.775171065493646,19.550342130987293
395.89442815249265,19.550342130987293,4.887585532746823,366.5689149560117,34.21309872922776,127.07722385141741,4.887585532746823
39.100684261974585,4.887585532746823,78.20136852394917,19.550342130987293,9.775171065493646,303.03030303030306,195.50342130987292
4.887585532746823,136.85239491691104,244.37927663734115,4.887585532746823,58.651026392961874,34.21309872922776,522.9716520039101
24.437927663734115,459.4330400782014,127.07722385141741,136.85239491691104,4.887585532746823,4.887585532746823,39.100684261974585
268.81720430107526,92.86412512218965,9.775171065493646,391.00684261974584,9.775171065493646,68.42619745845552,9.775171065493646
303.03030303030306,9.775171065493646,73.31378299120234,107.52688172043011,24.437927663734115,141.73998044965788,68.42619745845552
24.437927663734115,14.662756598240469,224.82893450635387,4.887585532746823,14.662756598240469,156.40273704789834,464.3206256109482
0.0,342.1309872922776,234.6041055718475,29.325513196480937,102.63929618768329,4.887585532746823,224.82893450635387
102.63929618768329,366.5689149560117,14.662756598240469,268.81720430107526,4.887585532746823,19.550342130987293,9.775171065493646
356.7937438905181,29.325513196480937,9.775171065493646,410.55718475073314,9.775171065493646,151.51515151515153,19.550342130987293
78.20136852394917,9.775171065493646,175.95307917888564,24.437927663734115,83.08895405669598,288.36754643206257,347.0185728250244
4.887585532746823,141.73998044965788,332.35581622678393,4.887585532746823,19.550342130987293,39.100684261974585,596.2854349951125
34.21309872922776,474.0957966764418,63.53861192570871,146.6275659824047,34.21309872922776,4.887585532746823,19.550342130987293
303.03030303030306,97.75171065493646,0.0,381.2316715542522,4.887585532746823,29.325513196480937,4.887585532746823
307.91788856304987,9.775171065493646,92.86412512218965,97.75171065493646,9.775171065493646,117.30205278592375,219.94134897360706
19.550342130987293,48.87585532746823,229.7165200391007,9.775171065493646,53.763440860215056,249.26686217008796,522.9716520039101
4.887585532746823,444.77028347996094,117.30205278592375,34.21309872922776,19.550342130987293,19.550342130987293,43.98826979472141
127.07722385141741,200.39100684261973,14.662756598240469,283.47996089931576,24.437927663734115,0.0,4.887585532746823
327.4682306940371,9.775171065493646,39.100684261974585,366.5689149560117,9.775171065493646,117.30205278592375,73.31378299120234
78.20136852394917,0.0,210.16617790811338,19.550342130987293,24.437927663734115,234.6041055718475,488.7585532746823
9.775171065493646,234.6041055718475,347.0185728250244,4.887585532746823,87.97653958944282,73.31378299120234,107.52688172043011
73.31378299120234,488.7585532746823,19.550342130987293,136.85239491691104,4.887585532746823,4.887585532746823,4.887585532746823
351.9061583577713,19.550342130987293,9.775171065493646,322.5806451612903,29.325513196480937,58.651026392961874,58.651026392961874
166.17790811339196,4.887585532746823,63.53861192570871,83.08895405669598,4.887585532746823,122.18963831867057,425.2199413489736
9.775171065493646,127.07722385141741,244.37927663734115,4.887585532746823,9.775171065493646,151.51515151515153,215.05376344086022
0.0,430.10752688172045,127.07722385141741,48.87585532746823,19.550342130987293,14.662756598240469,9.775171065493646
215.05376344086022,87.97653958944282,9.775171065493646,317.6930596285435,0.0,19.550342130987293,9.775171065493646
420.33235581622677,4.887585532746823,14.662756598240469,205.27859237536657,92.86412512218965,146.6275659824047,283.47996089931576
39.100684261974585,43.98826979472141,205.27859237536657,9.775171065493646,4.887585532746823,268.81720430107526,566.9599217986315
9.775171065493646,366.5689149560117,405.6695992179863,4.887585532746823,9.775171065493646,34.21309872922776,29.325513196480937
24.437927663734115,342.1309872922776,29.325513196480937,259.04203323558164,34.21309872922776,9.775171065493646,4.887585532746823
268.81720430107526,19.550342130987293,9.775171065493646,464.3206256109482,14.662756598240469,63.53861192570871,210.16617790811338
303.03030303030306,9.775171065493646,87.97653958944282,43.98826979472141,73.31378299120234,156.40273704789834,503.42130987292273
19.550342130987293,112.41446725317694,210.16617790811338,9.775171065493646,4.887585532746823,151.51515151515153,43.98826979472141
4.887585532746823,439.8826979472141,127.07722385141741,58.651026392961874,14.662756598240469,14.662756598240469,9.775171065493646
117.30205278592375,97.75171065493646,4.887585532746823,332.35581622678393,48.87585532746823,4.887585532746823,63.53861192570871
386.119257086999,9.775171065493646,39.100684261974585,224.82893450635387,9.775171065493646,127.07722385141741,410.55718475073314
83.08895405669598,19.550342130987293,234.6041055718475,9.775171065493646,39.100684261974585,342.1309872922776,205.27859237536657
4.887585532746823,400.78201368523946,410.55718475073314,29.325513196480937,4.887585532746823,48.87585532746823,14.662756598240469
29.325513196480937,405.6695992179863,39.100684261974585,219.94134897360706,14.662756598240469,9.775171065493646,14.662756598240469
263.92961876832845,24.437927663734115,14.662756598240469,444.77028347996094,34.21309872922776,107.52688172043011,327.4682306940371
322.5806451612903,4.887585532746823,58.651026392961874,48.87585532746823,9.775171065493646,215.05376344086022,566.9599217986315
19.550342130987293,117.30205278592375,244.37927663734115,14.662756598240469,73.31378299120234,83.08895405669598,24.437927663734115
4.887585532746823,464.3206256109482,146.6275659824047,171.0654936461388,4.887585532746823,9.775171065493646,0.0
39.100684261974585,97.75171065493646,9.775171065493646,342.1309872922776,4.887585532746823,29.325513196480937,180.84066471163246
312.8054740957967,4.887585532746823,48.87585532746823,107.52688172043011,39.100684261974585,161.29032258064515,464.3206256109482
249.26686217008796,9.775171065493646,244.37927663734115,4.887585532746823,4.887585532746823,254.15444770283483,97.75171065493646
9.775171065493646,366.5689149560117,259.04203323558164,9.775171065493646,48.87585532746823,19.550342130987293,9.775171065493646
4.887585532746823,405.6695992179863,14.662756598240469,337.2434017595308,14.662756598240469,4.887585532746823,58.651026392961874
195.50342130987292,29.325513196480937,9.775171065493646,449.65786901270775,9.775171065493646,117.30205278592375,395.89442815249265
400.78201368523946,9.775171065493646,171.0654936461388,29.325513196480937,68.42619745845552,210.16617790811338,205.27859237536657
43.98826979472141,122.18963831867057,347.0185728250244,4.887585532746823,9.775171065493646,78.20136852394917,14.662756598240469
0.0,449.65786901270775,73.31378299120234,122.18963831867057,43.98826979472141,9.775171065493646,19.550342130987293
9.775171065493646,102.63929618768329,14.662756598240469,356.7937438905181,4.887585532746823,39.100684261974585,303.03030303030306
239.49169110459434,4.887585532746823,58.651026392961874,117.30205278592375,4.887585532746823,215.05376344086022,547.4095796676442
371.4565004887586,24.437927663734115,249.26686217008796,9.775171065493646,9.775171065493646,288.36754643206257,24.437927663734115
29.325513196480937,347.0185728250244,151.51515151515153,9.775171065493646,9.775171065493646,19.550342130987293,0.0
4.887585532746823,371.4565004887586,4.887585532746823,215.05376344086022,68.42619745845552,0.0,171.0654936461388
63.53861192570871,29.325513196480937,39.100684261974585,425.2199413489736,4.887585532746823,97.75171065493646,493.6461388074291
337.2434017595308,14.662756598240469,239.49169110459434,34.21309872922776,29.325513196480937,234.6041055718475,39.100684261974585
102.63929618768329,92.86412512218965,405.6695992179863,4.887585532746823,58.651026392961874,92.86412512218965,9.775171065493646
4.887585532746823,400.78201368523946,39.100684261974585,112.41446725317694,4.887585532746823,4.887585532746823,68.42619745845552
9.775171065493646,107.52688172043011,0.0,342.1309872922776,14.662756598240469,24.437927663734115,395.89442815249265
249.26686217008796,4.887585532746823,53.763440860215056,102.63929618768329,9.775171065493646,180.84066471163246,210.16617790811338
283.47996089931576,14.662756598240469,278.5923753665689,4.887585532746823,19.550342130987293,278.5923753665689,14.662756598240469
14.662756598240469,361.6813294232649,161.29032258064515,24.437927663734115,43.98826979472141,19.550342130987293,9.775171065493646
14.662756598240469,381.2316715542522,4.887585532746823,278.5923753665689,4.887585532746823,9.775171065493646,288.36754643206257
122.18963831867057,24.437927663734115,24.437927663734115,381.2316715542522,53.763440860215056,97.75171065493646,537.6344086021505
366.5689149560117,4.887585532746823,249.26686217008796,29.325513196480937,9.775171065493646,234.6041055718475,19.550342130987293
102.63929618768329,83.08895405669598,469.208211143695,9.775171065493646,4.887585532746823,92.86412512218965,0.0
9.775171065493646,434.99511241446726,43.98826979472141,117.30205278592375,39.100684261974585,4.887585532746823,229.7165200391007
9.775171065493646,97.75171065493646,14.662756598240469,351.9061583577713,4.887585532746823,48.87585532746823,483.8709677419355
263.92961876832845,9.775171065493646,48.87585532746823,127.07722385141741,68.42619745845552,215.05376344086022,102.63929618768329
327.4682306940371,0.0,244.37927663734115,4.887585532746823,9.775171065493646,205.27859237536657,9.775171065493646
14.662756598240469,351.9061583577713,185.7282502443793,24.437927663734115,14.662756598240469,19.550342130987293,53.763440860215056
4.887585532746823,400.78201368523946,4.887585532746823,298.14271749755625,39.100684261974585,9.775171065493646,376.3440860215054
92.86412512218965,29.325513196480937,29.325513196480937,454.54545454545456,14.662756598240469,166.17790811339196,224.82893450635387
361.6813294232649,9.775171065493646,219.94134897360706,24.437927663734115,39.100684261974585,351.9061583577713,9.775171065493646
97.75171065493646,92.86412512218965,425.2199413489736,9.775171065493646,0.0,43.98826979472141,9.775171065493646
4.887585532746823,430.10752688172045,43.98826979472141,97.75171065493646,14.662756598240469,9.775171065493646,268.81720430107526
4.887585532746823,102.63929618768329,4.887585532746823,351.9061583577713,83.08895405669598,24.437927663734115,537.6344086021505
259.04203323558164,14.662756598240469,48.87585532746823,136.85239491691104,19.550342130987293,166.17790811339196,24.437927663734115
351.9061583577713,4.887585532746823,254.15444770283483,9.775171065493646,83.08895405669598,283.47996089931576,4.887585532746823
19.550342130987293,303.03030303030306,171.0654936461388,53.763440860215056,4.887585532746823,24.437927663734115,131.96480938416423
4.887585532746823,391.00684261974584,9.775171065493646,376.3440860215054,9.775171065493646,9.775171065493646,478.9833822091887
68.42619745845552,24.437927663734115,29.325513196480937,278.5923753665689,34.21309872922776,83.08895405669598,127.07722385141741
342.1309872922776,9.775171065493646,239.49169110459434,14.662756598240469,14.662756598240469,210.16617790811338,14.662756598240469
92.86412512218965,97.75171065493646,434.99511241446726,9.775171065493646,29.325513196480937,83.08895405669598,53.763440860215056
4.887585532746823,405.6695992179863,43.98826979472141,205.27859237536657,14.662756598240469,9.775171065493646,371.4565004887586
53.763440860215056,117.30205278592375,14.662756598240469,503.42130987292273,34.21309872922776,19.550342130987293,205.27859237536657
381.2316715542522,4.887585532746823,53.763440860215056,34.21309872922776,58.651026392961874,195.50342130987292,9.775171065493646
210.16617790811338,9.775171065493646,303.03030303030306,4.887585532746823,9.775171065493646,332.35581622678393,14.662756598240469
14.662756598240469,317.6930596285435,190.6158357771261,131.96480938416423,34.21309872922776,29.325513196480937,317.6930596285435
4.887585532746823,376.3440860215054,14.662756598240469,371.4565004887586,4.887585532746823,9.775171065493646,562.0723362658846
190.6158357771261,24.437927663734115,9.775171065493646,141.73998044965788,48.87585532746823,87.97653958944282,24.437927663734115
395.89442815249265,9.775171065493646,195.50342130987292,4.887585532746823,73.31378299120234,171.0654936461388,4.887585532746823
43.98826979472141,58.651026392961874,474.0957966764418,9.775171065493646,4.887585532746823,87.97653958944282,161.29032258064515
9.775171065493646,488.7585532746823,53.763440860215056,283.47996089931576,14.662756598240469,9.775171065493646,425.2199413489736
4.887585532746823,68.42619745845552,14.662756598240469,439.8826979472141,4.887585532746823,63.53861192570871,102.63929618768329
263.92961876832845,9.775171065493646,112.41446725317694,43.98826979472141,24.437927663734115,175.95307917888564,14.662756598240469
351.9061583577713,92.86412512218965,283.47996089931576,4.887585532746823,29.325513196480937,171.0654936461388,97.75171065493646
29.325513196480937,415.44477028347995,92.86412512218965,83.08895405669598,9.775171065493646,9.775171065493646,386.119257086999
4.887585532746823,102.63929618768329,9.775171065493646,366.5689149560117,43.98826979472141,9.775171065493646,224.82893450635387
83.08895405669598,9.775171065493646,68.42619745845552,136.85239491691104,9.775171065493646,97.75171065493646,9.775171065493646
356.7937438905181,0.0,283.47996089931576,14.662756598240469,24.437927663734115,288.36754643206257,14.662756598240469
107.52688172043011,332.35581622678393,190.6158357771261,24.437927663734115,48.87585532746823,48.87585532746823,283.47996089931576
4.887585532746823,386.119257086999,14.662756598240469,327.4682306940371,4.887585532746823,4.887585532746823,552.297165200391
9.775171065493646,34.21309872922776,24.437927663734115,513.1964809384165,19.550342130987293,92.86412512218965,24.437927663734115
254.15444770283483,4.887585532746823,244.37927663734115,19.550342130987293,9.775171065493646,180.84066471163246,0.0
376.3440860215054,78.20136852394917,415.44477028347995,4.887585532746823,39.100684261974585,83.08895405669598,171.0654936461388
24.437927663734115,434.99511241446726,43.98826979472141,200.39100684261973,83.08895405669598,9.775171065493646,488.7585532746823
9.775171065493646,112.41446725317694,9.775171065493646,439.8826979472141,14.662756598240469,39.100684261974585,53.763440860215056
73.31378299120234,9.775171065493646,48.87585532746823,58.651026392961874,19.550342130987293,219.94134897360706,4.887585532746823
351.9061583577713,9.775171065493646,288.36754643206257,9.775171065493646,9.775171065493646,293.2551319648094,146.6275659824047
112.41446725317694,307.91788856304987,234.6041055718475,92.86412512218965,19.550342130987293,24.437927663734115,464.3206256109482
9.775171065493646,400.78201368523946,19.550342130987293,391.00684261974584,73.31378299120234,0.0,117.30205278592375
43.98826979472141,24.437927663734115,19.550342130987293,146.6275659824047,0.0,87.97653958944282,9.775171065493646
273.7047898338221,4.887585532746823,215.05376344086022,4.887585532746823,58.651026392961874,180.84066471163246,34.21309872922776
371.4565004887586,63.53861192570871,395.89442815249265,4.887585532746823,14.662756598240469,83.08895405669598,347.0185728250244
34.21309872922776,430.10752688172045,48.87585532746823,259.04203323558164,24.437927663734115,9.775171065493646,420.33235581622677
9.775171065493646,102.63929618768329,9.775171065493646,469.208211143695,43.98826979472141,24.437927663734115,29.325513196480937
112.41446725317694,9.775171065493646,141.73998044965788,29.325513196480937,14.662756598240469,171.0654936461388,4.887585532746823
337.2434017595308,9.775171065493646,288.36754643206257,9.775171065493646,4.887585532746823,283.47996089931576,195.50342130987292
112.41446725317694,337.2434017595308,112.41446725317694,92.86412512218965,9.775171065493646,19.550342130987293,478.9833822091887
9.775171065493646,405.6695992179863,14.662756598240469,293.2551319648094,39.100684261974585,4.887585532746823,122.18963831867057
19.550342130987293,29.325513196480937,53.763440860215056,122.18963831867057,87.97653958944282,58.651026392961874,4.887585532746823
298.14271749755625,9.775171065493646,249.26686217008796,9.775171065493646,14.662756598240469,195.50342130987292,53.763440860215056
371.4565004887586,73.31378299120234,219.94134897360706,9.775171065493646,9.775171065493646,107.52688172043011,391.00684261974584
24.437927663734115,454.54545454545456,14.662756598240469,244.37927663734115,0.0,4.887585532746823,239.49169110459434
4.887585532746823,122.18963831867057,19.550342130987293,425.2199413489736,14.662756598240469,0.0,14.662756598240469
63.53861192570871,9.775171065493646,224.82893450635387,29.325513196480937,34.21309872922776,171.0654936461388,19.550342130987293
356.7937438905181,9.775171065493646,415.44477028347995,9.775171065493646,4.887585532746823,327.4682306940371,288.36754643206257
107.52688172043011,327.4682306940371,48.87585532746823,78.20136852394917,0.0,29.325513196480937,518.0840664711633
0.0,444.77028347996094,9.775171065493646,322.5806451612903,9.775171065493646,9.775171065493646,19.550342130987293
0.0,29.325513196480937,78.20136852394917,131.96480938416423,78.20136852394917,68.42619745845552,4.887585532746823
254.15444770283483,4.887585532746823,283.47996089931576,9.775171065493646,43.98826979472141,166.17790811339196,146.6275659824047
395.89442815249265,87.97653958944282,117.30205278592375,4.887585532746823,9.775171065493646,102.63929618768329,454.54545454545456
29.325513196480937,464.3206256109482,4.887585532746823,219.94134897360706,4.887585532746823,9.775171065493646,112.41446725317694
4.887585532746823,127.07722385141741,58.651026392961874,498.5337243401759,4.887585532746823,19.550342130987293,14.662756598240469
53.763440860215056,9.775171065493646,278.5923753665689,19.550342130987293,87.97653958944282,161.29032258064515,43.98826979472141
322.5806451612903,9.775171065493646,234.6041055718475,4.887585532746823,92.86412512218965,332.35581622678393,293.2551319648094
122.18963831867057,307.91788856304987,9.775171065493646,161.29032258064515,4.887585532746823,24.437927663734115,444.77028347996094
4.887585532746823,425.2199413489736,9.775171065493646,405.6695992179863,9.775171065493646,9.775171065493646,19.550342130987293
4.887585532746823,39.100684261974585,185.7282502443793,68.42619745845552,4.887585532746823,73.31378299120234,4.887585532746823
234.6041055718475,9.775171065493646,405.6695992179863,9.775171065493646,87.97653958944282,195.50342130987292,131.96480938416423
298.14271749755625,48.87585532746823,58.651026392961874,102.63929618768329,24.437927663734115,97.75171065493646,425.2199413489736
19.550342130987293,405.6695992179863,0.0,327.4682306940371,9.775171065493646,9.775171065493646,112.41446725317694
0.0,131.96480938416423,107.52688172043011,136.85239491691104,4.887585532746823,14.662756598240469,0.0
87.97653958944282,4.887585532746823,298.14271749755625,14.662756598240469,19.550342130987293,171.0654936461388,43.98826979472141
356.7937438905181,9.775171065493646,122.18963831867057,9.775171065493646,122.18963831867057,288.36754643206257,347.0185728250244
141.73998044965788,327.4682306940371,9.775171065493646,263.92961876832845,34.21309872922776,29.325513196480937,425.2199413489736
9.775171065493646,454.54545454545456,14.662756598240469,513.1964809384165,4.887585532746823,4.887585532746823,29.325513196480937
4.887585532746823,29.325513196480937,205.27859237536657,19.550342130987293,0.0,122.18963831867057,14.662756598240469
215.05376344086022,9.775171065493646,386.119257086999,4.887585532746823,14.662756598240469,200.39100684261973,146.6275659824047
376.3440860215054,63.53861192570871,29.325513196480937,180.84066471163246,122.18963831867057,97.75171065493646,391.00684261974584
29.325513196480937,425.2199413489736,0.0,366.5689149560117,48.87585532746823,0.0,122.18963831867057
0.0,127.07722385141741,97.75171065493646,73.31378299120234,9.775171065493646,19.550342130987293,9.775171065493646
48.87585532746823,4.887585532746823,268.81720430107526,9.775171065493646,4.887585532746823,161.29032258064515,29.325513196480937
303.03030303030306,4.887585532746823,112.41446725317694,73.31378299120234,43.98826979472141,332.35581622678393,312.8054740957967
117.30205278592375,322.5806451612903,4.887585532746823,327.4682306940371,117.30205278592375,29.325513196480937,215.05376344086022
4.887585532746823,439.8826979472141,39.100684261974585,166.17790811339196,24.437927663734115,0.0,29.325513196480937
14.662756598240469,29.325513196480937,239.49169110459434,9.775171065493646,0.0,68.42619745845552,4.887585532746823
224.82893450635387,4.887585532746823,400.78201368523946,14.662756598240469,9.775171065493646,175.95307917888564,34.21309872922776
386.119257086999,83.08895405669598,39.100684261974585,263.92961876832845,43.98826979472141,107.52688172043011,205.27859237536657
29.325513196480937,415.44477028347995,14.662756598240469,439.8826979472141,122.18963831867057,9.775171065493646,87.97653958944282
4.887585532746823,141.73998044965788,83.08895405669598,34.21309872922776,24.437927663734115,24.437927663734115,4.887585532746823
43.98826979472141,9.775171065493646,268.81720430107526,9.775171065493646,4.887585532746823,146.6275659824047,9.775171065493646
303.03030303030306,4.887585532746823,131.96480938416423,136.85239491691104,9.775171065493646,293.2551319648094,107.52688172043011
239.49169110459434,347.0185728250244,4.887585532746823,434.99511241446726,34.21309872922776,29.325513196480937,234.6041055718475
4.887585532746823,425.2199413489736,19.550342130987293,180.84066471163246,102.63929618768329,4.887585532746823,29.325513196480937
4.887585532746823,39.100684261974585,263.92961876832845,9.775171065493646,9.775171065493646,102.63929618768329,4.887585532746823
195.50342130987292,4.887585532746823,410.55718475073314,4.887585532746823,0.0,210.16617790811338,9.775171065493646
356.7937438905181,83.08895405669598,29.325513196480937,293.2551319648094,9.775171065493646,107.52688172043011,161.29032258064515
58.651026392961874,410.55718475073314,9.775171065493646,522.9716520039101,78.20136852394917,9.775171065493646,200.39100684261973
4.887585532746823,122.18963831867057,131.96480938416423,24.437927663734115,102.63929618768329,14.662756598240469,24.437927663734115
53.763440860215056,14.662756598240469,288.36754643206257,0.0,9.775171065493646,146.6275659824047,0.0
303.03030303030306,4.887585532746823,127.07722385141741,195.50342130987292,0.0,322.5806451612903,19.550342130987293
141.73998044965788,288.36754643206257,9.775171065493646,508.30889540566966,0.0,34.21309872922776,185.7282502443793
9.775171065493646,444.77028347996094,48.87585532746823,43.98826979472141,87.97653958944282,4.887585532746823,107.52688172043011
0.0,29.325513196480937,293.2551319648094,9.775171065493646,78.20136852394917,78.20136852394917,9.775171065493646
219.94134897360706,9.775171065493646,249.26686217008796,53.763440860215056,4.887585532746823,171.0654936461388,0.0
400.78201368523946,63.53861192570871,14.662756598240469,400.78201368523946,0.0,117.30205278592375,102.63929618768329
29.325513196480937,420.33235581622677,9.775171065493646,180.84066471163246,19.550342130987293,4.887585532746823,205.27859237536657
9.775171065493646,127.07722385141741,151.51515151515153,14.662756598240469,131.96480938416423,9.775171065493646,14.662756598240469
43.98826979472141,9.775171065493646,395.89442815249265,0.0,68.42619745845552,185.7282502443793,4.887585532746823
298.14271749755625,4.887585532746823,83.08895405669598,307.91788856304987,9.775171065493646,356.7937438905181,4.887585532746823
254.15444770283483,293.2551319648094,4.887585532746823,532.7468230694037,9.775171065493646,24.437927663734115,151.51515151515153
14.662756598240469,488.7585532746823,43.98826979472141,24.437927663734115,34.21309872922776,4.887585532746823,131.96480938416423
4.887585532746823,9.775171065493646,254.15444770283483,4.887585532746823,73.31378299120234,39.100684261974585,9.775171065493646
141.73998044965788,0.0,278.5923753665689,141.73998044965788,4.887585532746823,205.27859237536657,9.775171065493646
400.78201368523946,195.50342130987292,19.550342130987293,508.30889540566966,4.887585532746823,249.26686217008796,24.437927663734115
68.42619745845552,454.54545454545456,9.775171065493646,53.763440860215056,9.775171065493646,24.437927663734115,210.16617790811338
9.775171065493646,53.763440860215056,215.05376344086022,4.887585532746823,48.87585532746823,4.887585532746823,58.651026392961874
24.437927663734115,0.0,342.1309872922776,180.84066471163246,87.97653958944282,97.75171065493646,4.887585532746823
312.8054740957967,87.97653958944282,68.42619745845552,469.208211143695,9.775171065493646,347.0185728250244,0.0
229.7165200391007,439.8826979472141,4.887585532746823,87.97653958944282,4.887585532746823,78.20136852394917,92.86412512218965
24.437927663734115,131.96480938416423,73.31378299120234,4.887585532746823,0.0,0.0,205.27859237536657
4.887585532746823,9.775171065493646,337.2434017595308,19.550342130987293,92.86412512218965,53.763440860215056,19.550342130987293
112.41446725317694,4.887585532746823,146.6275659824047,298.14271749755625,73.31378299120234,224.82893450635387,9.775171065493646
371.4565004887586,273.7047898338221,9.775171065493646,430.10752688172045,9.775171065493646,127.07722385141741,9.775171065493646
78.20136852394917,395.89442815249265,29.325513196480937,29.325513196480937,9.775171065493646,9.775171065493646,166.17790811339196
9.775171065493646,24.437927663734115,224.82893450635387,9.775171065493646,24.437927663734115,4.887585532746823,136.85239491691104
24.437927663734115,14.662756598240469,405.6695992179863,180.84066471163246,122.18963831867057,185.7282502443793,14.662756598240469
293.2551319648094,92.86412512218965,29.325513196480937,454.54545454545456,43.98826979472141,400.78201368523946,0.0
268.81720430107526,425.2199413489736,9.775171065493646,87.97653958944282,9.775171065493646,34.21309872922776,29.325513196480937
19.550342130987293,131.96480938416423,83.08895405669598,4.887585532746823,9.775171065493646,0.0,190.6158357771261
0.0,9.775171065493646,273.7047898338221,68.42619745845552,0.0,63.53861192570871,83.08895405669598
131.96480938416423,14.662756598240469,151.51515151515153,356.7937438905181,83.08895405669598,303.03030303030306,4.887585532746823
395.89442815249265,273.7047898338221,9.775171065493646,190.6158357771261,43.98826979472141,166.17790811339196,4.887585532746823
68.42619745845552,454.54545454545456,4.887585532746823,4.887585532746823,9.775171065493646,14.662756598240469,112.41446725317694
9.775171065493646,34.21309872922776,219.94134897360706,19.550342130987293,4.887585532746823,9.775171065493646,234.6041055718475
24.437927663734115,9.775171065493646,425.2199413489736,249.26686217008796,9.775171065493646,185.7282502443793,24.437927663734115
303.03030303030306,53.763440860215056,34.21309872922776,469.208211143695,131.96480938416423,386.119257086999,0.0
303.03030303030306,420.33235581622677,4.887585532746823,39.100684261974585,68.42619745845552,34.21309872922776,4.887585532746823
24.437927663734115,146.6275659824047,92.86412512218965,4.887585532746823,9.775171065493646,4.887585532746823,171.0654936461388
9.775171065493646,4.887585532746823,249.26686217008796,48.87585532746823,9.775171065493646,63.53861192570871,171.0654936461388
112.41446725317694,4.887585532746823,122.18963831867057,351.9061583577713,24.437927663734115,303.03030303030306,14.662756598240469
366.5689149560117,293.2551319648094,4.887585532746823,166.17790811339196,87.97653958944282,141.73998044965788,4.887585532746823
83.08895405669598,439.8826979472141,14.662756598240469,9.775171065493646,19.550342130987293,9.775171065493646,39.100684261974585
9.775171065493646,29.325513196480937,229.7165200391007,4.887585532746823,4.887585532746823,14.662756598240469,224.82893450635387
19.550342130987293,4.887585532746823,391.00684261974584,200.39100684261973,9.775171065493646,195.50342130987292,102.63929618768329
298.14271749755625,83.08895405669598,39.100684261974585,513.1964809384165,48.87585532746823,391.00684261974584,4.887585532746823
278.5923753665689,444.77028347996094,9.775171065493646,29.325513196480937,107.52688172043011,29.325513196480937,0.0
19.550342130987293,156.40273704789834,83.08895405669598,9.775171065493646,14.662756598240469,4.887585532746823,73.31378299120234
0.0,4.887585532746823,273.7047898338221,131.96480938416423,0.0,53.763440860215056,224.82893450635387
146.6275659824047,0.0,141.73998044965788,366.5689149560117,9.775171065493646,254.15444770283483,29.325513196480937
439.8826979472141,288.36754643206257,9.775171065493646,87.97653958944282,78.20136852394917,141.73998044965788,9.775171065493646
92.86412512218965,459.4330400782014,14.662756598240469,9.775171065493646,102.63929618768329,9.775171065493646,0.0
4.887585532746823,29.325513196480937,249.26686217008796,58.651026392961874,14.662756598240469,14.662756598240469,146.6275659824047
34.21309872922776,9.775171065493646,420.33235581622677,288.36754643206257,0.0,205.27859237536657,161.29032258064515
307.91788856304987,29.325513196480937,29.325513196480937,185.7282502443793,24.437927663734115,430.10752688172045,14.662756598240469
307.91788856304987,356.7937438905181,14.662756598240469,9.775171065493646,122.18963831867057,48.87585532746823,4.887585532746823
19.550342130987293,312.8054740957967,78.20136852394917,4.887585532746823,43.98826979472141,0.0,34.21309872922776
9.775171065493646,24.437927663734115,229.7165200391007,229.7165200391007,9.775171065493646,117.30205278592375,229.7165200391007
112.41446725317694,0.0,141.73998044965788,434.99511241446726,0.0,322.5806451612903,107.52688172043011
332.35581622678393,171.0654936461388,9.775171065493646,43.98826979472141,9.775171065493646,63.53861192570871,4.887585532746823
68.42619745845552,459.4330400782014,14.662756598240469,9.775171065493646,112.41446725317694,4.887585532746823,0.0
4.887585532746823,73.31378299120234,224.82893450635387,48.87585532746823,83.08895405669598,48.87585532746823,87.97653958944282
29.325513196480937,4.887585532746823,478.9833822091887,312.8054740957967,9.775171065493646,215.05376344086022,259.04203323558164
283.47996089931576,53.763440860215056,48.87585532746823,195.50342130987292,4.887585532746823,131.96480938416423,39.100684261974585
288.36754643206257,400.78201368523946,9.775171065493646,14.662756598240469,24.437927663734115,9.775171065493646,0.0
19.550342130987293,122.18963831867057,175.95307917888564,4.887585532746823,122.18963831867057,43.98826979472141,4.887585532746823
4.887585532746823,9.775171065493646,381.2316715542522,244.37927663734115,29.325513196480937,229.7165200391007,156.40273704789834
102.63929618768329,14.662756598240469,83.08895405669598,513.1964809384165,0.0,322.5806451612903,161.29032258064515
337.2434017595308,293.2551319648094,4.887585532746823,29.325513196480937,4.887585532746823,24.437927663734115,14.662756598240469
68.42619745845552,454.54545454545456,39.100684261974585,9.775171065493646,19.550342130987293,4.887585532746823,4.887585532746823
4.887585532746823,34.21309872922776,283.47996089931576,97.75171065493646,117.30205278592375,43.98826979472141,19.550342130987293
19.550342130987293,9.775171065493646,342.1309872922776,376.3440860215054,29.325513196480937,175.95307917888564,239.49169110459434
303.03030303030306,24.437927663734115,19.550342130987293,122.18963831867057,0.0,254.15444770283483,107.52688172043011
317.6930596285435,366.5689149560117,4.887585532746823,4.887585532746823,9.775171065493646,19.550342130987293,14.662756598240469
19.550342130987293,317.6930596285435,175.95307917888564,34.21309872922776,29.325513196480937,4.887585532746823,0.0
0.0,19.550342130987293,337.2434017595308,283.47996089931576,127.07722385141741,131.96480938416423,97.75171065493646
151.51515151515153,4.887585532746823,83.08895405669598,386.119257086999,34.21309872922776,259.04203323558164,229.7165200391007
391.00684261974584,141.73998044965788,4.887585532746823,29.325513196480937,4.887585532746823,58.651026392961874,24.437927663734115
83.08895405669598,459.4330400782014,107.52688172043011,4.887585532746823,4.887585532746823,4.887585532746823,4.887585532746823
9.775171065493646,73.31378299120234,307.91788856304987,185.7282502443793,34.21309872922776,58.651026392961874,0.0
19.550342130987293,4.887585532746823,180.84066471163246,425.2199413489736,127.07722385141741,185.7282502443793,171.0654936461388
259.04203323558164,48.87585532746823,14.662756598240469,117.30205278592375,29.325513196480937,127.07722385141741,185.7282502443793
293.2551319648094,425.2199413489736,4.887585532746823,9.775171065493646,9.775171065493646,9.775171065493646,9.775171065493646
14.662756598240469,156.40273704789834,205.27859237536657,29.325513196480937,9.775171065493646,29.325513196480937,0.0
9.775171065493646,4.887585532746823,449.65786901270775,337.2434017595308,48.87585532746823,146.6275659824047,19.550342130987293
107.52688172043011,4.887585532746823,48.87585532746823,410.55718475073314,117.30205278592375,317.6930596285435,185.7282502443793
366.5689149560117,273.7047898338221,4.887585532746823,29.325513196480937,19.550342130987293,29.325513196480937,68.42619745845552
97.75171065493646,459.4330400782014,107.52688172043011,9.775171065493646,4.887585532746823,9.775171065493646,4.887585532746823
4.887585532746823,34.21309872922776,332.35581622678393,136.85239491691104,4.887585532746823,53.763440860215056,4.887585532746823
14.662756598240469,4.887585532746823,87.97653958944282,464.3206256109482,58.651026392961874,180.84066471163246,122.18963831867057
268.81720430107526,34.21309872922776,9.775171065493646,102.63929618768329,78.20136852394917,166.17790811339196,249.26686217008796
317.6930596285435,395.89442815249265,73.31378299120234,4.887585532746823,4.887585532746823,9.775171065493646,24.437927663734115
24.437927663734115,303.03030303030306,317.6930596285435,63.53861192570871,0.0,9.775171065493646,4.887585532746823
4.887585532746823,19.550342130987293,195.50342130987292,444.77028347996094,9.775171065493646,171.0654936461388,4.887585532746823
97.75171065493646,4.887585532746823,4.887585532746823,273.7047898338221,87.97653958944282,307.91788856304987,146.6275659824047
351.9061583577713,200.39100684261973,19.550342130987293,19.550342130987293,53.763440860215056,29.325513196480937,146.6275659824047
83.08895405669598,532.7468230694037,239.49169110459434,14.662756598240469,9.775171065493646,4.887585532746823,19.550342130987293
4.887585532746823,48.87585532746823,420.33235581622677,263.92961876832845,0.0,102.63929618768329,9.775171065493646
19.550342130987293,4.887585532746823,43.98826979472141,576.7350928641251,43.98826979472141,185.7282502443793,14.662756598240469
283.47996089931576,166.17790811339196,9.775171065493646,29.325513196480937,127.07722385141741,122.18963831867057,185.7282502443793
327.4682306940371,488.7585532746823,9.775171065493646,9.775171065493646,29.325513196480937,14.662756598240469,78.20136852394917
24.437927663734115,39.100684261974585,263.92961876832845,136.85239491691104,4.887585532746823,9.775171065493646,4.887585532746823
9.775171065493646,9.775171065493646,356.7937438905181,527.8592375366569,9.775171065493646,180.84066471163246,9.775171065493646
87.97653958944282,34.21309872922776,24.437927663734115,58.651026392961874,24.437927663734115,351.9061583577713,141.73998044965788
322.5806451612903,405.6695992179863,0.0,9.775171065493646,122.18963831867057,39.100684261974585,185.7282502443793
107.52688172043011,361.6813294232649,151.51515151515153,141.73998044965788,39.100684261974585,9.775171065493646,19.550342130987293
4.887585532746823,24.437927663734115,303.03030303030306,474.0957966764418,4.887585532746823,39.100684261974585,0.0
14.662756598240469,4.887585532746823,112.41446725317694,122.18963831867057,4.887585532746823,195.50342130987292,4.887585532746823
263.92961876832845,166.17790811339196,9.775171065493646,9.775171065493646,43.98826979472141,219.94134897360706,136.85239491691104
317.6930596285435,513.1964809384165,9.775171065493646,19.550342130987293,175.95307917888564,14.662756598240469,146.6275659824047
19.550342130987293,43.98826979472141,259.04203323558164,351.9061583577713,63.53861192570871,4.887585532746823,14.662756598240469
0.0,4.887585532746823,434.99511241446726,454.54545454545456,4.887585532746823,102.63929618768329,9.775171065493646
112.41446725317694,39.100684261974585,29.325513196480937,24.437927663734115,0.0,322.5806451612903,29.325513196480937
342.1309872922776,430.10752688172045,4.887585532746823,0.0,63.53861192570871,87.97653958944282,273.7047898338221
83.08895405669598,327.4682306940371,117.30205278592375,185.7282502443793,117.30205278592375,14.662756598240469,122.18963831867057
9.775171065493646,24.437927663734115,303.03030303030306,518.0840664711633,14.662756598240469,29.325513196480937,4.887585532746823
9.775171065493646,9.775171065493646,73.31378299120234,73.31378299120234,4.887585532746823,215.05376344086022,4.887585532746823
249.26686217008796,161.29032258064515,4.887585532746823,9.775171065493646,4.887585532746823,278.5923753665689,73.31378299120234
356.7937438905181,513.1964809384165,34.21309872922776,112.41446725317694,112.41446725317694,19.550342130987293,195.50342130987292
29.325513196480937,43.98826979472141,268.81720430107526,425.2199413489736,87.97653958944282,0.0,19.550342130987293
9.775171065493646,4.887585532746823,381.2316715542522,117.30205278592375,9.775171065493646,161.29032258064515,9.775171065493646
73.31378299120234,48.87585532746823,19.550342130987293,9.775171065493646,4.887585532746823,322.5806451612903,0.0
332.35581622678393,434.99511241446726,4.887585532746823,34.21309872922776,0.0,78.20136852394917,122.18963831867057
97.75171065493646,205.27859237536657,131.96480938416423,351.9061583577713,58.651026392961874,0.0,127.07722385141741
9.775171065493646,14.662756598240469,298.14271749755625,444.77028347996094,48.87585532746823,24.437927663734115,4.887585532746823
48.87585532746823,4.887585532746823,102.63929618768329,34.21309872922776,9.775171065493646,249.26686217008796,0.0
332.35581622678393,283.47996089931576,4.887585532746823,14.662756598240469,0.0,347.0185728250244,29.325513196480937
195.50342130987292,518.0840664711633,29.325513196480937,112.41446725317694,4.887585532746823,24.437927663734115,200.39100684261973
9.775171065493646,29.325513196480937,200.39100684261973,410.55718475073314,73.31378299120234,9.775171065493646,97.75171065493646
0.0,4.887585532746823,351.9061583577713,122.18963831867057,24.437927663734115,136.85239491691104,9.775171065493646
195.50342130987292,102.63929618768329,34.21309872922776,4.887585532746823,0.0,371.4565004887586,4.887585532746823
410.55718475073314,469.208211143695,4.887585532746823,9.775171065493646,4.887585532746823,83.08895405669598,87.97653958944282
53.763440860215056,127.07722385141741,122.18963831867057,303.03030303030306,0.0,4.887585532746823,200.39100684261973
9.775171065493646,4.887585532746823,312.8054740957967,522.9716520039101,34.21309872922776,63.53861192570871,29.325513196480937
53.763440860215056,29.325513196480937,102.63929618768329,19.550342130987293,34.21309872922776,356.7937438905181,0.0
303.03030303030306,400.78201368523946,4.887585532746823,14.662756598240469,9.775171065493646,234.6041055718475,4.887585532746823
102.63929618768329,337.2434017595308,34.21309872922776,263.92961876832845,9.775171065493646,19.550342130987293,127.07722385141741
9.775171065493646,19.550342130987293,263.92961876832845,508.30889540566966,0.0,9.775171065493646,195.50342130987292
4.887585532746823,4.887585532746823,415.44477028347995,24.437927663734115,14.662756598240469,210.16617790811338,24.437927663734115
219.94134897360706,122.18963831867057,29.325513196480937,4.887585532746823,58.651026392961874,483.8709677419355,0.0
307.91788856304987,454.54545454545456,4.887585532746823,127.07722385141741,14.662756598240469,43.98826979472141,0.0
14.662756598240469,92.86412512218965,92.86412512218965,376.3440860215054,19.550342130987293,4.887585532746823,195.50342130987292
4.887585532746823,0.0,263.92961876832845,112.41446725317694,4.887585532746823,24.437927663734115,97.75171065493646
53.763440860215056,24.437927663734115,92.86412512218965,9.775171065493646,19.550342130987293,273.7047898338221,4.887585532746823
356.7937438905181,376.3440860215054,9.775171065493646,34.21309872922776,78.20136852394917,381.2316715542522,0.0
112.41446725317694,351.9061583577713,39.100684261974585,337.2434017595308,4.887585532746823,29.325513196480937,73.31378299120234
9.775171065493646,24.437927663734115,283.47996089931576,444.77028347996094,14.662756598240469,0.0,219.94134897360706
9.775171065493646,4.887585532746823,434.99511241446726,29.325513196480937,9.775171065493646,117.30205278592375,19.550342130987293
205.27859237536657,127.07722385141741,39.100684261974585,9.775171065493646,19.550342130987293,366.5689149560117,0.0
307.91788856304987,439.8826979472141,9.775171065493646,117.30205278592375,92.86412512218965,112.41446725317694,4.887585532746823
19.550342130987293,107.52688172043011,131.96480938416423,425.2199413489736,14.662756598240469,9.775171065493646,171.0654936461388
9.775171065493646,4.887585532746823,317.6930596285435,146.6275659824047,24.437927663734115,14.662756598240469,215.05376344086022
83.08895405669598,39.100684261974585,122.18963831867057,14.662756598240469,4.887585532746823,259.04203323558164,14.662756598240469
278.5923753665689,351.9061583577713,9.775171065493646,24.437927663734115,14.662756598240469,337.2434017595308,0.0
97.75171065493646,327.4682306940371,39.100684261974585,332.35581622678393,78.20136852394917,19.550342130987293,4.887585532746823
4.887585532746823,19.550342130987293,234.6041055718475,478.9833822091887,9.775171065493646,4.887585532746823,200.39100684261973
4.887585532746823,0.0,420.33235581622677,29.325513196480937,19.550342130987293,107.52688172043011,107.52688172043011
215.05376344086022,141.73998044965788,34.21309872922776,9.775171065493646,9.775171065493646,371.4565004887586,4.887585532746823
347.0185728250244,459.4330400782014,9.775171065493646,107.52688172043011,19.550342130987293,107.52688172043011,0.0
24.437927663734115,92.86412512218965,97.75171065493646,400.78201368523946,87.97653958944282,9.775171065493646,58.651026392961874
9.775171065493646,14.662756598240469,298.14271749755625,131.96480938416423,14.662756598240469,19.550342130987293,210.16617790811338
73.31378299120234,24.437927663734115,117.30205278592375,9.775171065493646,19.550342130987293,263.92961876832845,19.550342130987293
322.5806451612903,327.4682306940371,9.775171065493646,9.775171065493646,9.775171065493646,366.5689149560117,4.887585532746823
107.52688172043011,298.14271749755625,24.437927663734115,322.5806451612903,14.662756598240469,19.550342130987293,0.0
14.662756598240469,19.550342130987293,249.26686217008796,542.5219941348973,53.763440860215056,4.887585532746823,141.73998044965788
9.775171065493646,0.0,386.119257086999,24.437927663734115,4.887585532746823,102.63929618768329,156.40273704789834
215.05376344086022,92.86412512218965,29.325513196480937,0.0,4.887585532746823,332.35581622678393,14.662756598240469
283.47996089931576,391.00684261974584,4.887585532746823,171.0654936461388,0.0,117.30205278592375,9.775171065493646
24.437927663734115,92.86412512218965,146.6275659824047,474.0957966764418,24.437927663734115,0.0,4.887585532746823
0.0,9.775171065493646,283.47996089931576,78.20136852394917,102.63929618768329,9.775171065493646,190.6158357771261
83.08895405669598,19.550342130987293,107.52688172043011,4.887585532746823,19.550342130987293,239.49169110459434,102.63929618768329
337.2434017595308,332.35581622678393,4.887585532746823,156.40273704789834,14.662756598240469,337.2434017595308,4.887585532746823
97.75171065493646,332.35581622678393,63.53861192570871,381.2316715542522,14.662756598240469,29.325513196480937,4.887585532746823
9.775171065493646,19.550342130987293,278.5923753665689,136.85239491691104,14.662756598240469,4.887585532746823,68.42619745845552
4.887585532746823,9.775171065493646,229.7165200391007,9.775171065493646,68.42619745845552,68.42619745845552,205.27859237536657
268.81720430107526,127.07722385141741,9.775171065493646,4.887585532746823,9.775171065493646,303.03030303030306,24.437927663734115
391.00684261974584,430.10752688172045,9.775171065493646,332.35581622678393,0.0,112.41446725317694,0.0
19.550342130987293,87.97653958944282,131.96480938416423,459.4330400782014,9.775171065493646,14.662756598240469,0.0
4.887585532746823,9.775171065493646,342.1309872922776,29.325513196480937,19.550342130987293,24.437927663734115,141.73998044965788
39.100684261974585,48.87585532746823,107.52688172043011,14.662756598240469,73.31378299120234,205.27859237536657,190.6158357771261
303.03030303030306,400.78201368523946,9.775171065493646,122.18963831867057,0.0,347.0185728250244,14.662756598240469
244.37927663734115,205.27859237536657,73.31378299120234,415.44477028347995,53.763440860215056,29.325513196480937,4.887585532746823
9.775171065493646,14.662756598240469,278.5923753665689,161.29032258064515,4.887585532746823,4.887585532746823,4.887585532746823
4.887585532746823,4.887585532746823,122.18963831867057,4.887585532746823,29.325513196480937,97.75171065493646,175.95307917888564
161.29032258064515,278.5923753665689,9.775171065493646,14.662756598240469,29.325513196480937,317.6930596285435,97.75171065493646
356.7937438905181,449.65786901270775,19.550342130987293,288.36754643206257,4.887585532746823,117.30205278592375,4.887585532746823
53.763440860215056,34.21309872922776,205.27859237536657,454.54545454545456,24.437927663734115,9.775171065493646,0.0
9.775171065493646,4.887585532746823,410.55718475073314,34.21309872922776,4.887585532746823,14.662756598240469,68.42619745845552
58.651026392961874,24.437927663734115,29.325513196480937,9.775171065493646,4.887585532746823,210.16617790811338,234.6041055718475
307.91788856304987,366.5689149560117,9.775171065493646,97.75171065493646,53.763440860215056,327.4682306940371,34.21309872922776
102.63929618768329,386.119257086999,92.86412512218965,356.7937438905181,14.662756598240469,19.550342130987293,0.0
14.662756598240469,29.325513196480937,293.2551319648094,141.73998044965788,24.437927663734115,9.775171065493646,4.887585532746823
9.775171065493646,0.0,141.73998044965788,14.662756598240469,4.887585532746823,97.75171065493646,175.95307917888564
263.92961876832845,92.86412512218965,9.775171065493646,19.550342130987293,14.662756598240469,298.14271749755625,205.27859237536657
391.00684261974584,469.208211143695,68.42619745845552,312.8054740957967,78.20136852394917,87.97653958944282,14.662756598240469
29.325513196480937,127.07722385141741,273.7047898338221,498.5337243401759,9.775171065493646,9.775171065493646,9.775171065493646
0.0,4.887585532746823,303.03030303030306,19.550342130987293,14.662756598240469,19.550342130987293,4.887585532746823
48.87585532746823,14.662756598240469,19.550342130987293,9.775171065493646,4.887585532746823,205.27859237536657,195.50342130987292
317.6930596285435,386.119257086999,9.775171065493646,219.94134897360706,14.662756598240469,342.1309872922776,127.07722385141741
117.30205278592375,410.55718475073314,161.29032258064515,508.30889540566966,58.651026392961874,29.325513196480937,9.775171065493646
4.887585532746823,29.325513196480937,420.33235581622677,43.98826979472141,4.887585532746823,4.887585532746823,0.0
9.775171065493646,9.775171065493646,63.53861192570871,4.887585532746823,63.53861192570871,97.75171065493646,43.98826979472141
219.94134897360706,117.30205278592375,14.662756598240469,97.75171065493646,14.662756598240469,273.7047898338221,205.27859237536657
337.2434017595308,483.8709677419355,58.651026392961874,371.4565004887586,29.325513196480937,87.97653958944282,73.31378299120234
29.325513196480937,102.63929618768329,293.2551319648094,156.40273704789834,83.08895405669598,4.887585532746823,4.887585532746823
4.887585532746823,9.775171065493646,136.85239491691104,4.887585532746823,9.775171065493646,4.887585532746823,0.0
68.42619745845552,14.662756598240469,4.887585532746823,0.0,29.325513196480937,210.16617790811338,131.96480938416423
312.8054740957967,361.6813294232649,34.21309872922776,205.27859237536657,14.662756598240469,244.37927663734115,234.6041055718475
122.18963831867057,391.00684261974584,259.04203323558164,527.8592375366569,9.775171065493646,19.550342130987293,29.325513196480937
4.887585532746823,29.325513196480937,425.2199413489736,24.437927663734115,34.21309872922776,4.887585532746823,4.887585532746823
0.0,4.887585532746823,34.21309872922776,9.775171065493646,9.775171065493646,156.40273704789834,9.775171065493646
210.16617790811338,112.41446725317694,4.887585532746823,229.7165200391007,34.21309872922776,356.7937438905181,210.16617790811338
386.119257086999,513.1964809384165,68.42619745845552,469.208211143695,14.662756598240469,68.42619745845552,117.30205278592375
24.437927663734115,63.53861192570871,273.7047898338221,78.20136852394917,0.0,14.662756598240469,4.887585532746823
4.887585532746823,0.0,161.29032258064515,0.0,58.651026392961874,48.87585532746823,4.887585532746823
14.662756598240469,127.07722385141741,4.887585532746823,78.20136852394917,19.550342130987293,283.47996089931576,63.53861192570871
332.35581622678393,410.55718475073314,34.21309872922776,351.9061583577713,9.775171065493646,117.30205278592375,200.39100684261973
366.5689149560117,97.75171065493646,249.26686217008796,151.51515151515153,0.0,14.662756598240469,19.550342130987293
24.437927663734115,9.775171065493646,444.77028347996094,9.775171065493646,9.775171065493646,14.662756598240469,4.887585532746823
4.887585532746823,29.325513196480937,34.21309872922776,29.325513196480937,83.08895405669598,127.07722385141741,4.887585532746823
127.07722385141741,376.3440860215054,4.887585532746823,259.04203323558164,4.887585532746823,439.8826979472141,161.29032258064515
351.9061583577713,391.00684261974584,63.53861192570871,478.9833822091887,73.31378299120234,107.52688172043011,229.7165200391007
58.651026392961874,29.325513196480937,298.14271749755625,43.98826979472141,4.887585532746823,14.662756598240469,24.437927663734115
4.887585532746823,4.887585532746823,200.39100684261973,14.662756598240469,4.887585532746823,161.29032258064515,0.0
29.325513196480937,97.75171065493646,14.662756598240469,107.52688172043011,58.651026392961874,444.77028347996094,9.775171065493646
307.91788856304987,483.8709677419355,19.550342130987293,351.9061583577713,9.775171065493646,127.07722385141741,200.39100684261973
244.37927663734115,122.18963831867057,224.82893450635387,156.40273704789834,39.100684261974585,9.775171065493646,107.52688172043011
9.775171065493646,0.0,415.44477028347995,4.887585532746823,9.775171065493646,434.99511241446726,14.662756598240469
9.775171065493646,9.775171065493646,43.98826979472141,9.775171065493646,14.662756598240469,293.2551319648094,4.887585532746823
131.96480938416423,347.0185728250244,9.775171065493646,405.6695992179863,68.42619745845552,249.26686217008796,53.763440860215056
356.7937438905181,415.44477028347995,53.763440860215056,547.4095796676442,9.775171065493646,19.550342130987293,219.94134897360706
58.651026392961874,24.437927663734115,342.1309872922776,24.437927663734115,34.21309872922776,117.30205278592375,24.437927663734115
4.887585532746823,4.887585532746823,166.17790811339196,9.775171065493646,4.887585532746823,200.39100684261973,0.0
34.21309872922776,87.97653958944282,9.775171065493646,180.84066471163246,34.21309872922776,454.54545454545456,0.0
268.81720430107526,410.55718475073314,9.775171065493646,434.99511241446726,78.20136852394917,87.97653958944282,136.85239491691104
229.7165200391007,97.75171065493646,356.7937438905181,83.08895405669598,4.887585532746823,29.325513196480937,166.17790811339196
14.662756598240469,0.0,356.7937438905181,4.887585532746823,14.662756598240469,9.775171065493646,9.775171065493646
0.0,4.887585532746823,29.325513196480937,53.763440860215056,4.887585532746823,405.6695992179863,9.775171065493646
141.73998044965788,317.6930596285435,9.775171065493646,342.1309872922776,48.87585532746823,229.7165200391007,9.775171065493646
376.3440860215054,356.7937438905181,73.31378299120234,156.40273704789834,58.651026392961874,14.662756598240469,190.6158357771261
73.31378299120234,19.550342130987293,303.03030303030306,14.662756598240469,4.887585532746823,146.6275659824047,107.52688172043011
0.0,4.887585532746823,97.75171065493646,34.21309872922776,9.775171065493646,249.26686217008796,0.0
14.662756598240469,97.75171065493646,4.887585532746823,298.14271749755625,4.887585532746823,342.1309872922776,4.887585532746823
234.6041055718475,449.65786901270775,58.651026392961874,508.30889540566966,48.87585532746823,14.662756598240469,34.21309872922776
307.91788856304987,107.52688172043011,298.14271749755625,24.437927663734115,24.437927663734115,4.887585532746823,180.84066471163246
24.437927663734115,4.887585532746823,303.03030303030306,9.775171065493646,4.887585532746823,713.5874877810362,73.31378299120234
4.887585532746823,14.662756598240469,19.550342130987293,205.27859237536657,53.763440860215056,239.49169110459434,4.887585532746823
141.73998044965788,312.8054740957967,4.887585532746823,439.8826979472141,9.775171065493646,4.887585532746823,9.775171065493646
410.55718475073314,376.3440860215054,263.92961876832845,78.20136852394917,83.08895405669598,552.297165200391,122.18963831867057
58.651026392961874,24.437927663734115,307.91788856304987,9.775171065493646,19.550342130987293,180.84066471163246,166.17790811339196
4.887585532746823,4.887585532746823,39.100684261974585,68.42619745845552,48.87585532746823,205.27859237536657,14.662756598240469
48.87585532746823,78.20136852394917,4.887585532746823,347.0185728250244,4.887585532746823,43.98826979472141,0.0
307.91788856304987,415.44477028347995,53.763440860215056,200.39100684261973,34.21309872922776,4.887585532746823,4.887585532746823
127.07722385141741,136.85239491691104,239.49169110459434,9.775171065493646,78.20136852394917,78.20136852394917,190.6158357771261
4.887585532746823,4.887585532746823,610.9481915933529,4.887585532746823,14.662756598240469,122.18963831867057,107.52688172043011
9.775171065493646,0.0,24.437927663734115,171.0654936461388,39.100684261974585,312.8054740957967,4.887585532746823
283.47996089931576,298.14271749755625,4.887585532746823,542.5219941348973,9.775171065493646,43.98826979472141,0.0
434.99511241446726,347.0185728250244,224.82893450635387,14.662756598240469,34.21309872922776,14.662756598240469,48.87585532746823
39.100684261974585,29.325513196480937,645.1612903225806,9.775171065493646,39.100684261974585,9.775171065493646,239.49169110459434
0.0,9.775171065493646,29.325513196480937,268.81720430107526,19.550342130987293,259.04203323558164,39.100684261974585
4.887585532746823,83.08895405669598,4.887585532746823,522.9716520039101,24.437927663734115,24.437927663734115,4.887585532746823
381.2316715542522,395.89442815249265,351.9061583577713,53.763440860215056,14.662756598240469,4.887585532746823,9.775171065493646
307.91788856304987,127.07722385141741,317.6930596285435,0.0,0.0,547.4095796676442,131.96480938416423
19.550342130987293,4.887585532746823,112.41446725317694,161.29032258064515,43.98826979472141,58.651026392961874,224.82893450635387
9.775171065493646,9.775171065493646,4.887585532746823,449.65786901270775,19.550342130987293,39.100684261974585,19.550342130987293
48.87585532746823,303.03030303030306,4.887585532746823,92.86412512218965,0.0,9.775171065493646,0.0
386.119257086999,420.33235581622677,596.2854349951125,4.887585532746823,58.651026392961874,298.14271749755625,0.0
48.87585532746823,24.437927663734115,161.29032258064515,53.763440860215056,0.0,239.49169110459434,185.7282502443793
0.0,4.887585532746823,9.775171065493646,405.6695992179863,58.651026392961874,532.7468230694037,122.18963831867057
4.887585532746823,53.763440860215056,503.42130987292273,185.7282502443793,19.550342130987293,14.662756598240469,9.775171065493646
337.2434017595308,415.44477028347995,391.00684261974584,9.775171065493646,24.437927663734115,63.53861192570871,9.775171065493646
464.3206256109482,161.29032258064515,53.763440860215056,9.775171065493646,4.887585532746823,386.119257086999,48.87585532746823
29.325513196480937,9.775171065493646,4.887585532746823,278.5923753665689,0.0,444.77028347996094,244.37927663734115
9.775171065493646,4.887585532746823,9.775171065493646,537.6344086021505,92.86412512218965,53.763440860215056,39.100684261974585
9.775171065493646,317.6930596285435,131.96480938416423,34.21309872922776,19.550342130987293,14.662756598240469,4.887585532746823
356.7937438905181,430.10752688172045,1598.2404692082112,4.887585532746823,9.775171065493646,53.763440860215056,0.0
219.94134897360706,29.325513196480937,73.31378299120234,166.17790811339196,4.887585532746823,918.8660801564027,136.85239491691104
9.775171065493646,9.775171065493646,34.21309872922776,434.99511241446726,9.775171065493646,39.100684261974585,190.6158357771261
92.86412512218965,83.08895405669598,366.5689149560117,102.63929618768329,24.437927663734115,34.21309872922776,9.775171065493646
249.26686217008796,454.54545454545456,180.84066471163246,9.775171065493646,9.775171065493646,4.887585532746823,4.887585532746823
249.26686217008796,127.07722385141741,63.53861192570871,63.53861192570871,9.775171065493646,703.8123167155426,9.775171065493646
14.662756598240469,14.662756598240469,640.2737047898338,410.55718475073314,19.550342130987293,127.07722385141741,146.6275659824047
4.887585532746823,0.0,43.98826979472141,175.95307917888564,4.887585532746823,4.887585532746823,200.39100684261973
263.92961876832845,356.7937438905181,215.05376344086022,9.775171065493646,34.21309872922776,14.662756598240469,14.662756598240469
454.54545454545456,493.6461388074291,117.30205278592375,29.325513196480937,63.53861192570871,131.96480938416423,9.775171065493646
53.763440860215056,14.662756598240469,39.100684261974585,303.03030303030306,9.775171065493646,596.2854349951125,63.53861192570871
9.775171065493646,4.887585532746823,283.47996089931576,557.1847507331378,39.100684261974585,34.21309872922776,239.49169110459434
4.887585532746823,219.94134897360706,351.9061583577713,34.21309872922776,9.775171065493646,9.775171065493646,34.21309872922776
689.149560117302,488.7585532746823,83.08895405669598,9.775171065493646,24.437927663734115,386.119257086999,9.775171065493646
591.3978494623656,34.21309872922776,4.887585532746823,151.51515151515153,53.763440860215056,566.9599217986315,4.887585532746823
24.437927663734115,9.775171065493646,391.00684261974584,503.42130987292273,9.775171065493646,205.27859237536657,117.30205278592375
9.775171065493646,107.52688172043011,527.8592375366569,58.651026392961874,29.325513196480937,19.550342130987293,166.17790811339196
78.20136852394917,459.4330400782014,273.7047898338221,9.775171065493646,0.0,171.0654936461388,9.775171065493646
552.297165200391,136.85239491691104,307.91788856304987,122.18963831867057,34.21309872922776,371.4565004887586,0.0
34.21309872922776,14.662756598240469,127.07722385141741,474.0957966764418,9.775171065493646,34.21309872922776,9.775171065493646
9.775171065493646,9.775171065493646,14.662756598240469,122.18963831867057,53.763440860215056,58.651026392961874,200.39100684261973
146.6275659824047,322.5806451612903,307.91788856304987,9.775171065493646,24.437927663734115,4.887585532746823,136.85239491691104
444.77028347996094,439.8826979472141,728.2502443792766,43.98826979472141,0.0,591.3978494623656,14.662756598240469
24.437927663734115,24.437927663734115,53.763440860215056,386.119257086999,43.98826979472141,606.0606060606061,4.887585532746823
9.775171065493646,4.887585532746823,1392.9618768328444,400.78201368523946,14.662756598240469,24.437927663734115,39.100684261974585
0.0,87.97653958944282,175.95307917888564,24.437927663734115,39.100684261974585,146.6275659824047,219.94134897360706
361.6813294232649,454.54545454545456,9.775171065493646,4.887585532746823,39.100684261974585,254.15444770283483,48.87585532746823
205.27859237536657,131.96480938416423,29.325513196480937,171.0654936461388,4.887585532746823,234.6041055718475,4.887585532746823
4.887585532746823,4.887585532746823,1158.357771260997,513.1964809384165,48.87585532746823,14.662756598240469,4.887585532746823
68.42619745845552,4.887585532746823,283.47996089931576,63.53861192570871,161.29032258064515,14.662756598240469,127.07722385141741
288.36754643206257,254.15444770283483,439.8826979472141,4.887585532746823,19.550342130987293,9.775171065493646,166.17790811339196
200.39100684261973,508.30889540566966,97.75171065493646,146.6275659824047,24.437927663734115,381.2316715542522,9.775171065493646
68.42619745845552,14.662756598240469,1153.4701857282503,478.9833822091887,48.87585532746823,102.63929618768329,4.887585532746823
4.887585532746823,0.0,43.98826979472141,112.41446725317694,195.50342130987292,92.86412512218965,9.775171065493646
73.31378299120234,229.7165200391007,58.651026392961874,9.775171065493646,48.87585532746823,58.651026392961874,190.6158357771261
175.95307917888564,488.7585532746823,215.05376344086022,34.21309872922776,234.6041055718475,131.96480938416423,122.18963831867057
43.98826979472141,29.325513196480937,747.800586510264,288.36754643206257,14.662756598240469,205.27859237536657,9.775171065493646
4.887585532746823,0.0,48.87585532746823,439.8826979472141,68.42619745845552,19.550342130987293,4.887585532746823
180.84066471163246,58.651026392961874,78.20136852394917,29.325513196480937,151.51515151515153,190.6158357771261,39.100684261974585
444.77028347996094,444.77028347996094,14.662756598240469,9.775171065493646,83.08895405669598,24.437927663734115,268.81720430107526
200.39100684261973,146.6275659824047,39.100684261974585,136.85239491691104,4.887585532746823,591.3978494623656,87.97653958944282
19.550342130987293,9.775171065493646,459.4330400782014,430.10752688172045,0.0,19.550342130987293,4.887585532746823
24.437927663734115,4.887585532746823,449.65786901270775,107.52688172043011,58.651026392961874,9.775171065493646,4.887585532746823
190.6158357771261,303.03030303030306,19.550342130987293,4.887585532746823,14.662756598240469,156.40273704789834,136.85239491691104
459.4330400782014,444.77028347996094,322.5806451612903,53.763440860215056,210.16617790811338,679.3743890518084,200.39100684261973
78.20136852394917,34.21309872922776,830.8895405669599,410.55718475073314,78.20136852394917,63.53861192570871,14.662756598240469
9.775171065493646,0.0,73.31378299120234,229.7165200391007,34.21309872922776,117.30205278592375,0.0
24.437927663734115,78.20136852394917,865.1026392961877,9.775171065493646,9.775171065493646,307.91788856304987,4.887585532746823
395.89442815249265,430.10752688172045,58.651026392961874,14.662756598240469,4.887585532746823,361.6813294232649,161.29032258064515
337.2434017595308,131.96480938416423,151.51515151515153,249.26686217008796,239.49169110459434,34.21309872922776,205.27859237536657
19.550342130987293,4.887585532746823,19.550342130987293,527.8592375366569,29.325513196480937,43.98826979472141,9.775171065493646
9.775171065493646,9.775171065493646,826.0019550342131,24.437927663734115,24.437927663734115,376.3440860215054,0.0
224.82893450635387,298.14271749755625,78.20136852394917,4.887585532746823,29.325513196480937,263.92961876832845,34.21309872922776
190.6158357771261,420.33235581622677,127.07722385141741,127.07722385141741,4.887585532746823,58.651026392961874,215.05376344086022
151.51515151515153,39.100684261974585,9.775171065493646,444.77028347996094,410.55718475073314,0.0,87.97653958944282
9.775171065493646,9.775171065493646,459.4330400782014,112.41446725317694,131.96480938416423,801.5640273704789,4.887585532746823
14.662756598240469,53.763440860215056,478.9833822091887,9.775171065493646,312.8054740957967,356.7937438905181,4.887585532746823
361.6813294232649,464.3206256109482,317.6930596285435,58.651026392961874,29.325513196480937,73.31378299120234,122.18963831867057
244.37927663734115,141.73998044965788,53.763440860215056,263.92961876832845,24.437927663734115,19.550342130987293,229.7165200391007
19.550342130987293,14.662756598240469,9.775171065493646,288.36754643206257,19.550342130987293,48.87585532746823,24.437927663734115
9.775171065493646,9.775171065493646,576.7350928641251,19.550342130987293,9.775171065493646,244.37927663734115,9.775171065493646
68.42619745845552,303.03030303030306,1192.570869990225,9.775171065493646,259.04203323558164,273.7047898338221,0.0
625.6109481915934,478.9833822091887,39.100684261974585,234.6041055718475,39.100684261974585,24.437927663734115,171.0654936461388
43.98826979472141,34.21309872922776,0.0,503.42130987292273,4.887585532746823,112.41446725317694,122.18963831867057
4.887585532746823,4.887585532746823,263.92961876832845,24.437927663734115,224.82893450635387,14.662756598240469,4.887585532746823
4.887585532746823,39.100684261974585,689.149560117302,9.775171065493646,146.6275659824047,992.179863147605,9.775171065493646
410.55718475073314,371.4565004887586,73.31378299120234,131.96480938416423,19.550342130987293,43.98826979472141,43.98826979472141
478.9833822091887,347.0185728250244,601.1730205278593,430.10752688172045,9.775171065493646,112.41446725317694,263.92961876832845
29.325513196480937,19.550342130987293,420.33235581622677,127.07722385141741,298.14271749755625,146.6275659824047,83.08895405669598
9.775171065493646,0.0,156.40273704789834,9.775171065493646,68.42619745845552,552.297165200391,9.775171065493646
327.4682306940371,180.84066471163246,68.42619745845552,34.21309872922776,205.27859237536657,19.550342130987293,0.0
381.2316715542522,513.1964809384165,826.0019550342131,317.6930596285435,9.775171065493646,4.887585532746823,151.51515151515153
195.50342130987292,39.100684261974585,63.53861192570871,376.3440860215054,117.30205278592375,34.21309872922776,224.82893450635387
9.775171065493646,4.887585532746823,48.87585532746823,29.325513196480937,351.9061583577713,493.6461388074291,24.437927663734115
259.04203323558164,43.98826979472141,4.887585532746823,0.0,185.7282502443793,112.41446725317694,0.0
581.622678396872,337.2434017595308,738.0254154447704,146.6275659824047,34.21309872922776,29.325513196480937,4.887585532746823
53.763440860215056,303.03030303030306,332.35581622678393,405.6695992179863,63.53861192570871,4.887585532746823,166.17790811339196
4.887585532746823,19.550342130987293,102.63929618768329,102.63929618768329,24.437927663734115,395.89442815249265,122.18963831867057
312.8054740957967,4.887585532746823,0.0,4.887585532746823,9.775171065493646,322.5806451612903,9.775171065493646
366.5689149560117,180.84066471163246,288.36754643206257,200.39100684261973,14.662756598240469,141.73998044965788,0.0
249.26686217008796,469.208211143695,733.1378299120234,254.15444770283483,180.84066471163246,34.21309872922776,34.21309872922776
14.662756598240469,78.20136852394917,224.82893450635387,102.63929618768329,229.7165200391007,371.4565004887586,200.39100684261973
0.0,0.0,185.7282502443793,9.775171065493646,156.40273704789834,342.1309872922776,78.20136852394917
68.42619745845552,48.87585532746823,43.98826979472141,87.97653958944282,19.550342130987293,14.662756598240469,4.887585532746823
400.78201368523946,415.44477028347995,9.775171065493646,283.47996089931576,4.887585532746823,14.662756598240469,0.0
53.763440860215056,195.50342130987292,288.36754643206257,312.8054740957967,39.100684261974585,219.94134897360706,117.30205278592375
234.6041055718475,9.775171065493646,439.8826979472141,24.437927663734115,112.41446725317694,606.0606060606061,195.50342130987292
92.86412512218965,4.887585532746823,195.50342130987292,4.887585532746823,24.437927663734115,112.41446725317694,24.437927663734115
58.651026392961874,317.6930596285435,53.763440860215056,151.51515151515153,366.5689149560117,161.29032258064515,0.0
29.325513196480937,493.6461388074291,171.0654936461388,591.3978494623656,180.84066471163246,151.51515151515153,4.887585532746823
0.0,19.550342130987293,102.63929618768329,87.97653958944282,161.29032258064515,317.6930596285435,146.6275659824047
0.0,4.887585532746823,654.9364613880742,9.775171065493646,4.887585532746823,112.41446725317694,136.85239491691104
493.6461388074291,151.51515151515153,107.52688172043011,151.51515151515153,34.21309872922776,24.437927663734115,4.887585532746823
483.8709677419355,488.7585532746823,58.651026392961874,469.208211143695,210.16617790811338,97.75171065493646,4.887585532746823
34.21309872922776,34.21309872922776,34.21309872922776,146.6275659824047,58.651026392961874,219.94134897360706,43.98826979472141
9.775171065493646,0.0,249.26686217008796,14.662756598240469,0.0,200.39100684261973,215.05376344086022
136.85239491691104,68.42619745845552,894.4281524926687,9.775171065493646,4.887585532746823,48.87585532746823,63.53861192570871
444.77028347996094,405.6695992179863,122.18963831867057,513.1964809384165,522.9716520039101,161.29032258064515,9.775171065493646
83.08895405669598,156.40273704789834,19.550342130987293,263.92961876832845,92.86412512218965,391.00684261974584,4.887585532746823
9.775171065493646,4.887585532746823,9.775171065493646,19.550342130987293,53.763440860215056,439.8826979472141,78.20136852394917
166.17790811339196,0.0,415.44477028347995,9.775171065493646,29.325513196480937,24.437927663734115,215.05376344086022
151.51515151515153,234.6041055718475,1036.1681329423266,195.50342130987292,4.887585532746823,68.42619745845552,34.21309872922776
73.31378299120234,488.7585532746823,317.6930596285435,977.5171065493646,9.775171065493646,175.95307917888564,4.887585532746823
9.775171065493646,19.550342130987293,19.550342130987293,83.08895405669598,14.662756598240469,200.39100684261973,4.887585532746823
131.96480938416423,0.0,694.0371456500488,249.26686217008796,107.52688172043011,83.08895405669598,171.0654936461388
63.53861192570871,175.95307917888564,58.651026392961874,195.50342130987292,112.41446725317694,63.53861192570871,131.96480938416423
239.49169110459434,493.6461388074291,400.78201368523946,322.5806451612903,107.52688172043011,92.86412512218965,9.775171065493646
9.775171065493646,34.21309872922776,39.100684261974585,24.437927663734115,14.662756598240469,381.2316715542522,4.887585532746823
102.63929618768329,4.887585532746823,43.98826979472141,4.887585532746823,0.0,24.437927663734115,29.325513196480937
34.21309872922776,19.550342130987293,24.437927663734115,53.763440860215056,127.07722385141741,4.887585532746823,210.16617790811338
224.82893450635387,342.1309872922776,645.1612903225806,620.7233626588466,151.51515151515153,146.6275659824047,78.20136852394917
78.20136852394917,351.9061583577713,19.550342130987293,112.41446725317694,73.31378299120234,161.29032258064515,4.887585532746823
9.775171065493646,19.550342130987293,200.39100684261973,14.662756598240469,4.887585532746823,219.94134897360706,4.887585532746823
141.73998044965788,4.887585532746823,889.5405669599219,122.18963831867057,175.95307917888564,19.550342130987293,117.30205278592375
444.77028347996094,175.95307917888564,43.98826979472141,415.44477028347995,14.662756598240469,9.775171065493646,185.7282502443793
83.08895405669598,464.3206256109482,131.96480938416423,102.63929618768329,180.84066471163246,361.6813294232649,19.550342130987293
9.775171065493646,87.97653958944282,1392.9618768328444,9.775171065493646,156.40273704789834,478.9833822091887,0.0
215.05376344086022,4.887585532746823,366.5689149560117,19.550342130987293,68.42619745845552,24.437927663734115,4.887585532746823
376.3440860215054,14.662756598240469,518.0840664711633,366.5689149560117,34.21309872922776,180.84066471163246,180.84066471163246
171.0654936461388,400.78201368523946,131.96480938416423,307.91788856304987,14.662756598240469,63.53861192570871,141.73998044965788
14.662756598240469,190.6158357771261,171.0654936461388,14.662756598240469,34.21309872922776,151.51515151515153,9.775171065493646
9.775171065493646,14.662756598240469,366.5689149560117,9.775171065493646,14.662756598240469,127.07722385141741,4.887585532746823
224.82893450635387,24.437927663734115,34.21309872922776,342.1309872922776,4.887585532746823,14.662756598240469,4.887585532746823
229.7165200391007,166.17790811339196,122.18963831867057,478.9833822091887,19.550342130987293,210.16617790811338,205.27859237536657
19.550342130987293,410.55718475073314,698.9247311827957,601.1730205278593,171.0654936461388,913.9784946236559,102.63929618768329
34.21309872922776,63.53861192570871,488.7585532746823,19.550342130987293,420.33235581622677,53.763440860215056,4.887585532746823
24.437927663734115,4.887585532746823,34.21309872922776,244.37927663734115,19.550342130987293,9.775171065493646,0.0
117.30205278592375,14.662756598240469,161.29032258064515,625.6109481915934,19.550342130987293,175.95307917888564,92.86412512218965
322.5806451612903,371.4565004887586,131.96480938416423,122.18963831867057,131.96480938416423,430.10752688172045,244.37927663734115
39.100684261974585,557.1847507331378,454.54545454545456,4.887585532746823,488.7585532746823,200.39100684261973,34.21309872922776
9.775171065493646,14.662756598240469,68.42619745845552,4.887585532746823,78.20136852394917,9.775171065493646,0.0
9.775171065493646,4.887585532746823,4.887585532746823,307.91788856304987,9.775171065493646,19.550342130987293,4.887585532746823
161.29032258064515,430.10752688172045,327.4682306940371,400.78201368523946,4.887585532746823,303.03030303030306,156.40273704789834
87.97653958944282,738.0254154447704,948.1915933528836,73.31378299120234,58.651026392961874,391.00684261974584,146.6275659824047
14.662756598240469,34.21309872922776,112.41446725317694,39.100684261974585,278.5923753665689,29.325513196480937,9.775171065493646
425.2199413489736,4.887585532746823,9.775171065493646,122.18963831867057,29.325513196480937,4.887585532746823,0.0
127.07722385141741,9.775171065493646,131.96480938416423,865.1026392961877,112.41446725317694,171.0654936461388,34.21309872922776
337.2434017595308,283.47996089931576,229.7165200391007,58.651026392961874,9.775171065493646,752.6881720430108,229.7165200391007
39.100684261974585,493.6461388074291,474.0957966764418,9.775171065493646,4.887585532746823,53.763440860215056,83.08895405669598
9.775171065493646,9.775171065493646,195.50342130987292,694.0371456500488,9.775171065493646,14.662756598240469,9.775171065493646
78.20136852394917,4.887585532746823,391.00684261974584,615.8357771260997,141.73998044965788,273.7047898338221,0.0
317.6930596285435,122.18963831867057,48.87585532746823,29.325513196480937,312.8054740957967,234.6041055718475,97.75171065493646
195.50342130987292,400.78201368523946,508.30889540566966,4.887585532746823,83.08895405669598,87.97653958944282,229.7165200391007
14.662756598240469,39.100684261974585,29.325513196480937,14.662756598240469,19.550342130987293,9.775171065493646,19.550342130987293
58.651026392961874,4.887585532746823,405.6695992179863,801.5640273704789,9.775171065493646,53.763440860215056,4.887585532746823
513.1964809384165,107.52688172043011,400.78201368523946,78.20136852394917,24.437927663734115,430.10752688172045,14.662756598240469
122.18963831867057,464.3206256109482,29.325513196480937,19.550342130987293,58.651026392961874,156.40273704789834,185.7282502443793
9.775171065493646,58.651026392961874,439.8826979472141,43.98826979472141,161.29032258064515,9.775171065493646,185.7282502443793
24.437927663734115,9.775171065493646,967.741935483871,366.5689149560117,73.31378299120234,9.775171065493646,19.550342130987293
469.208211143695,4.887585532746823,34.21309872922776,298.14271749755625,146.6275659824047,112.41446725317694,0.0
376.3440860215054,185.7282502443793,620.7233626588466,14.662756598240469,43.98826979472141,664.7116324535679,4.887585532746823
29.325513196480937,522.9716520039101,112.41446725317694,0.0,29.325513196480937,58.651026392961874,175.95307917888564
9.775171065493646,19.550342130987293,175.95307917888564,249.26686217008796,68.42619745845552,9.775171065493646,97.75171065493646
185.7282502443793,9.775171065493646,268.81720430107526,786.9012707722385,9.775171065493646,351.9061583577713,9.775171065493646
581.622678396872,347.0185728250244,48.87585532746823,39.100684261974585,39.100684261974585,273.7047898338221,4.887585532746823
136.85239491691104,625.6109481915934,268.81720430107526,4.887585532746823,4.887585532746823,43.98826979472141,83.08895405669598
9.775171065493646,34.21309872922776,19.550342130987293,469.208211143695,68.42619745845552,0.0,195.50342130987292
29.325513196480937,0.0,508.30889540566966,410.55718475073314,87.97653958944282,58.651026392961874,19.550342130987293
606.0606060606061,180.84066471163246,53.763440860215056,53.763440860215056,4.887585532746823,303.03030303030306,0.0
219.94134897360706,762.4633431085044,58.651026392961874,0.0,180.84066471163246,454.54545454545456,9.775171065493646
4.887585532746823,68.42619745845552,303.03030303030306,239.49169110459434,259.04203323558164,39.100684261974585,156.40273704789834
131.96480938416423,4.887585532746823,190.6158357771261,469.208211143695,34.21309872922776,9.775171065493646,156.40273704789834
997.0674486803518,117.30205278592375,78.20136852394917,273.7047898338221,9.775171065493646,166.17790811339196,4.887585532746823
210.16617790811338,566.9599217986315,4.887585532746823,19.550342130987293,53.763440860215056,498.5337243401759,4.887585532746823
14.662756598240469,97.75171065493646,229.7165200391007,4.887585532746823,4.887585532746823,19.550342130987293,19.550342130987293
0.0,4.887585532746823,449.65786901270775,293.2551319648094,24.437927663734115,29.325513196480937,195.50342130987292
415.44477028347995,48.87585532746823,566.9599217986315,630.4985337243402,234.6041055718475,317.6930596285435,83.08895405669598
733.1378299120234,591.3978494623656,19.550342130987293,14.662756598240469,102.63929618768329,591.3978494623656,4.887585532746823
19.550342130987293,122.18963831867057,239.49169110459434,4.887585532746823,112.41446725317694,127.07722385141741,0.0
9.775171065493646,4.887585532746823,68.42619745845552,361.6813294232649,29.325513196480937,78.20136852394917,166.17790811339196
273.7047898338221,9.775171065493646,434.99511241446726,899.3157380254155,4.887585532746823,347.0185728250244,254.15444770283483
361.6813294232649,298.14271749755625,117.30205278592375,53.763440860215056,4.887585532746823,410.55718475073314,29.325513196480937
107.52688172043011,527.8592375366569,9.775171065493646,68.42619745845552,136.85239491691104,73.31378299120234,4.887585532746823
9.775171065493646,19.550342130987293,342.1309872922776,136.85239491691104,14.662756598240469,43.98826979472141,0.0
24.437927663734115,0.0,782.0136852394917,742.9130009775172,78.20136852394917,43.98826979472141,146.6275659824047
151.51515151515153,791.7888563049853,29.325513196480937,68.42619745845552,122.18963831867057,249.26686217008796,141.73998044965788
733.1378299120234,166.17790811339196,34.21309872922776,19.550342130987293,4.887585532746823,200.39100684261973,9.775171065493646
43.98826979472141,4.887585532746823,498.5337243401759,630.4985337243402,146.6275659824047,14.662756598240469,0.0
14.662756598240469,48.87585532746823,478.9833822091887,249.26686217008796,19.550342130987293,151.51515151515153,29.325513196480937
136.85239491691104,205.27859237536657,39.100684261974585,19.550342130987293,19.550342130987293,63.53861192570871,205.27859237536657
498.5337243401759,464.3206256109482,9.775171065493646,4.887585532746823,0.0,664.7116324535679,73.31378299120234
19.550342130987293,29.325513196480937,263.92961876832845,415.44477028347995,0.0,19.550342130987293,9.775171065493646
4.887585532746823,4.887585532746823,865.1026392961877,738.0254154447704,146.6275659824047,53.763440860215056,0.0
254.15444770283483,298.14271749755625,127.07722385141741,34.21309872922776,63.53861192570871,175.95307917888564,63.53861192570871
410.55718475073314,342.1309872922776,68.42619745845552,9.775171065493646,24.437927663734115,640.2737047898338,259.04203323558164
87.97653958944282,215.05376344086022,68.42619745845552,215.05376344086022,19.550342130987293,19.550342130987293,39.100684261974585
4.887585532746823,9.775171065493646,874.8778103616814,263.92961876832845,0.0,180.84066471163246,0.0
9.775171065493646,9.775171065493646,48.87585532746823,34.21309872922776,19.550342130987293,254.15444770283483,4.887585532746823
361.6813294232649,312.8054740957967,4.887585532746823,14.662756598240469,19.550342130987293,366.5689149560117,156.40273704789834
175.95307917888564,586.5102639296188,322.5806451612903,166.17790811339196,112.41446725317694,53.763440860215056,146.6275659824047
9.775171065493646,53.763440860215056,478.9833822091887,293.2551319648094,43.98826979472141,48.87585532746823,9.775171065493646
14.662756598240469,312.8054740957967,24.437927663734115,317.6930596285435,102.63929618768329,107.52688172043011,0.0
488.7585532746823,127.07722385141741,9.775171065493646,24.437927663734115,68.42619745845552,493.6461388074291,24.437927663734115
303.03030303030306,175.95307917888564,689.149560117302,0.0,24.437927663734115,19.550342130987293,219.94134897360706
24.437927663734115,4.887585532746823,180.84066471163246,249.26686217008796,87.97653958944282,185.7282502443793,107.52688172043011
9.775171065493646,4.887585532746823,342.1309872922776,620.7233626588466,9.775171065493646,337.2434017595308,9.775171065493646
29.325513196480937,68.42619745845552,19.550342130987293,112.41446725317694,9.775171065493646,381.2316715542522,4.887585532746823
361.6813294232649,562.0723362658846,210.16617790811338,4.887585532746823,92.86412512218965,73.31378299120234,92.86412512218965
386.119257086999,107.52688172043011,151.51515151515153,185.7282502443793,317.6930596285435,9.775171065493646,195.50342130987292
34.21309872922776,9.775171065493646,733.1378299120234,679.3743890518084,63.53861192570871,219.94134897360706,19.550342130987293
4.887585532746823,650.0488758553274,34.21309872922776,224.82893450635387,9.775171065493646,723.3626588465298,9.775171065493646
107.52688172043011,312.8054740957967,9.775171065493646,19.550342130987293,9.775171065493646,39.100684261974585,0.0
366.5689149560117,14.662756598240469,425.2199413489736,210.16617790811338,68.42619745845552,68.42619745845552,117.30205278592375
73.31378299120234,9.775171065493646,596.2854349951125,386.119257086999,29.325513196480937,131.96480938416423,215.05376344086022
9.775171065493646,376.3440860215054,24.437927663734115,48.87585532746823,68.42619745845552,493.6461388074291,19.550342130987293
0.0,391.00684261974584,34.21309872922776,43.98826979472141,63.53861192570871,19.550342130987293,4.887585532746823
97.75171065493646,171.0654936461388,654.9364613880742,9.775171065493646,53.763440860215056,0.0,19.550342130987293
508.30889540566966,9.775171065493646,136.85239491691104,625.6109481915934,53.763440860215056,9.775171065493646,210.16617790811338
14.662756598240469,259.04203323558164,4.887585532746823,249.26686217008796,19.550342130987293,342.1309872922776,87.97653958944282
9.775171065493646,19.550342130987293,200.39100684261973,9.775171065493646,4.887585532746823,488.7585532746823,9.775171065493646
171.0654936461388,542.5219941348973,87.97653958944282,39.100684261974585,4.887585532746823,19.550342130987293,0.0
337.2434017595308,63.53861192570871,229.7165200391007,166.17790811339196,200.39100684261973,239.49169110459434,68.42619745845552
24.437927663734115,4.887585532746823,58.651026392961874,185.7282502443793,278.5923753665689,190.6158357771261,190.6158357771261
14.662756598240469,151.51515151515153,9.775171065493646,102.63929618768329,19.550342130987293,317.6930596285435,29.325513196480937
14.662756598240469,249.26686217008796,87.97653958944282,4.887585532746823,0.0,19.550342130987293,9.775171065493646
366.5689149560117,351.9061583577713,391.00684261974584,83.08895405669598,68.42619745845552,9.775171065493646,4.887585532746823
151.51515151515153,48.87585532746823,351.9061583577713,444.77028347996094,307.91788856304987,283.47996089931576,122.18963831867057
4.887585532746823,4.887585532746823,19.550342130987293,669.5992179863147,317.6930596285435,327.4682306940371,180.84066471163246
9.775171065493646,742.9130009775172,9.775171065493646,24.437927663734115,24.437927663734115,78.20136852394917,14.662756598240469
190.6158357771261,87.97653958944282,171.0654936461388,4.887585532746823,14.662756598240469,9.775171065493646,0.0
112.41446725317694,39.100684261974585,708.6999022482894,303.03030303030306,43.98826979472141,298.14271749755625,9.775171065493646
24.437927663734115,474.0957966764418,24.437927663734115,356.7937438905181,34.21309872922776,327.4682306940371,215.05376344086022
9.775171065493646,742.9130009775172,9.775171065493646,29.325513196480937,112.41446725317694,322.5806451612903,97.75171065493646
430.10752688172045,39.100684261974585,73.31378299120234,141.73998044965788,14.662756598240469,53.763440860215056,9.775171065493646
141.73998044965788,4.887585532746823,757.5757575757576,161.29032258064515,19.550342130987293,107.52688172043011,9.775171065493646
259.04203323558164,166.17790811339196,63.53861192570871,444.77028347996094,210.16617790811338,303.03030303030306,87.97653958944282
19.550342130987293,635.386119257087,14.662756598240469,19.550342130987293,171.0654936461388,48.87585532746823,224.82893450635387
9.775171065493646,127.07722385141741,127.07722385141741,9.775171065493646,24.437927663734115,0.0,24.437927663734115
53.763440860215056,19.550342130987293,430.10752688172045,63.53861192570871,4.887585532746823,0.0,0.0
376.3440860215054,14.662756598240469,102.63929618768329,953.0791788856305,9.775171065493646,322.5806451612903,4.887585532746823
73.31378299120234,527.8592375366569,43.98826979472141,180.84066471163246,146.6275659824047,654.9364613880742,175.95307917888564
4.887585532746823,210.16617790811338,219.94134897360706,4.887585532746823,97.75171065493646,19.550342130987293,185.7282502443793
48.87585532746823,14.662756598240469,117.30205278592375,9.775171065493646,39.100684261974585,4.887585532746823,19.550342130987293
205.27859237536657,0.0,244.37927663734115,483.8709677419355,9.775171065493646,112.41446725317694,0.0
180.84066471163246,92.86412512218965,24.437927663734115,620.7233626588466,4.887585532746823,527.8592375366569,14.662756598240469
9.775171065493646,650.0488758553274,4.887585532746823,48.87585532746823,171.0654936461388,43.98826979472141,210.16617790811338
39.100684261974585,58.651026392961874,273.7047898338221,87.97653958944282,303.03030303030306,9.775171065493646,73.31378299120234
146.6275659824047,4.887585532746823,449.65786901270775,796.6764418377321,19.550342130987293,9.775171065493646,4.887585532746823
83.08895405669598,83.08895405669598,102.63929618768329,58.651026392961874,0.0,337.2434017595308,0.0
337.2434017595308,483.8709677419355,14.662756598240469,4.887585532746823,4.887585532746823,141.73998044965788,87.97653958944282
19.550342130987293,48.87585532746823,322.5806451612903,9.775171065493646,254.15444770283483,34.21309872922776,234.6041055718475
39.100684261974585,48.87585532746823,112.41446725317694,454.54545454545456,24.437927663734115,9.775171065493646,29.325513196480937
420.33235581622677,376.3440860215054,39.100684261974585,767.3509286412512,259.04203323558164,312.8054740957967,4.887585532746823
332.35581622678393,444.77028347996094,34.21309872922776,19.550342130987293,34.21309872922776,376.3440860215054,0.0
14.662756598240469,29.325513196480937,63.53861192570871,83.08895405669598,29.325513196480937,151.51515151515153,151.51515151515153
4.887585532746823,48.87585532746823,83.08895405669598,395.89442815249265,278.5923753665689,14.662756598240469,146.6275659824047
376.3440860215054,107.52688172043011,615.8357771260997,757.5757575757576,63.53861192570871,19.550342130987293,14.662756598240469
298.14271749755625,332.35581622678393,34.21309872922776,24.437927663734115,29.325513196480937,542.5219941348973,4.887585532746823
166.17790811339196,68.42619745845552,9.775171065493646,0.0,9.775171065493646,78.20136852394917,14.662756598240469
9.775171065493646,0.0,410.55718475073314,576.7350928641251,175.95307917888564,14.662756598240469,219.94134897360706
19.550342130987293,454.54545454545456,87.97653958944282,850.4398826979472,48.87585532746823,146.6275659824047,107.52688172043011
347.0185728250244,601.1730205278593,58.651026392961874,43.98826979472141,4.887585532746823,566.9599217986315,9.775171065493646
361.6813294232649,24.437927663734115,97.75171065493646,4.887585532746823,68.42619745845552,131.96480938416423,0.0
29.325513196480937,4.887585532746823,29.325513196480937,14.662756598240469,97.75171065493646,14.662756598240469,92.86412512218965
87.97653958944282,9.775171065493646,835.7771260997067,855.327468230694,29.325513196480937,122.18963831867057,278.5923753665689
229.7165200391007,620.7233626588466,117.30205278592375,107.52688172043011,0.0,195.50342130987292,39.100684261974585
342.1309872922776,420.33235581622677,9.775171065493646,4.887585532746823,0.0,219.94134897360706,4.887585532746823
19.550342130987293,58.651026392961874,166.17790811339196,4.887585532746823,117.30205278592375,58.651026392961874,0.0
14.662756598240469,4.887585532746823,298.14271749755625,801.5640273704789,122.18963831867057,24.437927663734115,166.17790811339196
268.81720430107526,454.54545454545456,131.96480938416423,127.07722385141741,4.887585532746823,278.5923753665689,210.16617790811338
444.77028347996094,728.2502443792766,14.662756598240469,4.887585532746823,9.775171065493646,469.208211143695,9.775171065493646
58.651026392961874,24.437927663734115,288.36754643206257,14.662756598240469,122.18963831867057,34.21309872922776,4.887585532746823
4.887585532746823,239.49169110459434,83.08895405669598,728.2502443792766,268.81720430107526,9.775171065493646,9.775171065493646
92.86412512218965,195.50342130987292,161.29032258064515,141.73998044965788,53.763440860215056,14.662756598240469,205.27859237536657
464.3206256109482,1138.8074291300097,205.27859237536657,9.775171065493646,39.100684261974585,151.51515151515153,83.08895405669598
273.7047898338221,73.31378299120234,43.98826979472141,0.0,29.325513196480937,425.2199413489736,14.662756598240469
14.662756598240469,9.775171065493646,254.15444770283483,34.21309872922776,63.53861192570871,19.550342130987293,4.887585532746823
4.887585532746823,718.475073313783,469.208211143695,884.6529814271751,48.87585532746823,29.325513196480937,83.08895405669598
444.77028347996094,283.47996089931576,200.39100684261973,92.86412512218965,48.87585532746823,327.4682306940371,283.47996089931576
615.8357771260997,19.550342130987293,14.662756598240469,9.775171065493646,58.651026392961874,596.2854349951125,39.100684261974585
39.100684261974585,24.437927663734115,263.92961876832845,478.9833822091887,9.775171065493646,39.100684261974585,0.0
4.887585532746823,366.5689149560117,718.475073313783,361.6813294232649,259.04203323558164,4.887585532746823,0.0
19.550342130987293,327.4682306940371,53.763440860215056,107.52688172043011,151.51515151515153,180.84066471163246,136.85239491691104
386.119257086999,83.08895405669598,381.2316715542522,9.775171065493646,19.550342130987293,327.4682306940371,171.0654936461388
518.0840664711633,14.662756598240469,73.31378299120234,303.03030303030306,9.775171065493646,386.119257086999,14.662756598240469
14.662756598240469,9.775171065493646,24.437927663734115,723.3626588465298,68.42619745845552,19.550342130987293,0.0
29.325513196480937,420.33235581622677,92.86412512218965,73.31378299120234,9.775171065493646,278.5923753665689,14.662756598240469
351.9061583577713,400.78201368523946,9.775171065493646,4.887585532746823,9.775171065493646,87.97653958944282,219.94134897360706
298.14271749755625,24.437927663734115,53.763440860215056,117.30205278592375,9.775171065493646,488.7585532746823,92.86412512218965
48.87585532746823,381.2316715542522,786.9012707722385,1226.7839687194526,9.775171065493646,19.550342130987293,9.775171065493646
9.775171065493646,97.75171065493646,161.29032258064515,87.97653958944282,332.35581622678393,19.550342130987293,0.0
356.7937438905181,410.55718475073314,14.662756598240469,4.887585532746823,48.87585532746823,190.6158357771261,68.42619745845552
679.3743890518084,92.86412512218965,210.16617790811338,156.40273704789834,58.651026392961874,552.297165200391,219.94134897360706
24.437927663734115,4.887585532746823,591.3978494623656,92.86412512218965,102.63929618768329,43.98826979472141,24.437927663734115
4.887585532746823,156.40273704789834,43.98826979472141,307.91788856304987,4.887585532746823,19.550342130987293,4.887585532746823
474.0957966764418,547.4095796676442,4.887585532746823,39.100684261974585,9.775171065493646,68.42619745845552,4.887585532746823
405.6695992179863,29.325513196480937,239.49169110459434,151.51515151515153,24.437927663734115,571.8475073313783,146.6275659824047
136.85239491691104,4.887585532746823,371.4565004887586,48.87585532746823,39.100684261974585,58.651026392961874,156.40273704789834
