HandOpen,HandClose,Wrist Flexion,Wrist Extension,Supination,Pronation,Rest
112.41446725317694,0.0,9.775171065493646,4.887585532746823,68.42619745845552,4.887585532746823,0.0
63.53861192570871,4.887585532746823,9.775171065493646,0.0,24.437927663734115,0.0,73.31378299120234
24.437927663734115,24.437927663734115,0.0,4.887585532746823,14.662756598240469,43.98826979472141,166.17790811339196
9.775171065493646,97.75171065493646,48.87585532746823,4.887585532746823,9.775171065493646,43.98826979472141,229.7165200391007
4.887585532746823,161.29032258064515,146.6275659824047,39.100684261974585,4.887585532746823,78.20136852394917,273.7047898338221
4.887585532746823,175.95307917888564,205.27859237536657,83.08895405669598,0.0,53.763440860215056,244.37927663734115
4.887585532746823,156.40273704789834,161.29032258064515,102.63929618768329,4.887585532746823,53.763440860215056,171.0654936461388
9.775171065493646,112.41446725317694,112.41446725317694,87.97653958944282,4.887585532746823,48.87585532746823,78.20136852394917
14.662756598240469,58.651026392961874,43.98826979472141,48.87585532746823,0.0,19.550342130987293,34.21309872922776
68.42619745845552,24.437927663734115,24.437927663734115,43.98826979472141,34.21309872922776,9.775171065493646,9.775171065493646
127.07722385141741,14.662756598240469,9.775171065493646,43.98826979472141,78.20136852394917,0.0,4.887585532746823
166.17790811339196,4.887585532746823,9.775171065493646,19.550342130987293,122.18963831867057,0.0,4.887585532746823
171.0654936461388,4.887585532746823,0.0,14.662756598240469,122.18963831867057,4.887585532746823,4.887585532746823
141.73998044965788,4.887585532746823,0.0,4.887585532746823,97.75171065493646,0.0,9.775171065493646
92.86412512218965,0.0,9.775171065493646,9.775171065493646,68.42619745845552,9.775171065493646,14.662756598240469
39.100684261974585,4.887585532746823,9.775171065493646,4.887585532746823,29.325513196480937,0.0,87.97653958944282
19.550342130987293,24.437927663734115,24.437927663734115,0.0,9.775171065493646,58.651026392961874,175.95307917888564
9.775171065493646,87.97653958944282,87.97653958944282,4.887585532746823,4.887585532746823,136.85239491691104,219.94134897360706
0.0,141.73998044965788,166.17790811339196,19.550342130987293,4.887585532746823,107.52688172043011,254.15444770283483
0.0,161.29032258064515,239.49169110459434,58.651026392961874,4.887585532746823,48.87585532746823,229.7165200391007
9.775171065493646,161.29032258064515,210.16617790811338,83.08895405669598,9.775171065493646,24.437927663734115,156.40273704789834
0.0,127.07722385141741,107.52688172043011,68.42619745845552,9.775171065493646,29.325513196480937,78.20136852394917
4.887585532746823,83.08895405669598,48.87585532746823,78.20136852394917,19.550342130987293,63.53861192570871,34.21309872922776
68.42619745845552,39.100684261974585,19.550342130987293,73.31378299120234,63.53861192570871,78.20136852394917,19.550342130987293
131.96480938416423,19.550342130987293,14.662756598240469,39.100684261974585,107.52688172043011,102.63929618768329,14.662756598240469
185.7282502443793,9.775171065493646,4.887585532746823,19.550342130987293,136.85239491691104,102.63929618768329,4.887585532746823
171.0654936461388,4.887585532746823,9.775171065493646,4.887585532746823,136.85239491691104,48.87585532746823,9.775171065493646
151.51515151515153,9.775171065493646,4.887585532746823,4.887585532746823,131.96480938416423,29.325513196480937,9.775171065493646
58.651026392961874,9.775171065493646,9.775171065493646,4.887585532746823,87.97653958944282,9.775171065493646,146.6275659824047
4.887585532746823,87.97653958944282,9.775171065493646,9.775171065493646,9.775171065493646,107.52688172043011,239.49169110459434
0.0,117.30205278592375,146.6275659824047,0.0,4.887585532746823,24.437927663734115,19.550342130987293
97.75171065493646,19.550342130987293,24.437927663734115,78.20136852394917,0.0,4.887585532746823,4.887585532746823
136.85239491691104,4.887585532746823,14.662756598240469,53.763440860215056,107.52688172043011,0.0,9.775171065493646
4.887585532746823,0.0,0.0,4.887585532746823,73.31378299120234,48.87585532746823,200.39100684261973
4.887585532746823,107.52688172043011,4.887585532746823,0.0,9.775171065493646,180.84066471163246,180.84066471163246
4.887585532746823,117.30205278592375,146.6275659824047,4.887585532746823,4.887585532746823,53.763440860215056,14.662756598240469
117.30205278592375,9.775171065493646,68.42619745845552,97.75171065493646,43.98826979472141,9.775171065493646,4.887585532746823
112.41446725317694,0.0,4.887585532746823,68.42619745845552,122.18963831867057,4.887585532746823,53.763440860215056
4.887585532746823,9.775171065493646,0.0,4.887585532746823,29.325513196480937,43.98826979472141,259.04203323558164
9.775171065493646,161.29032258064515,92.86412512218965,4.887585532746823,9.775171065493646,97.75171065493646,43.98826979472141
29.325513196480937,83.08895405669598,107.52688172043011,48.87585532746823,0.0,29.325513196480937,4.887585532746823
166.17790811339196,4.887585532746823,9.775171065493646,63.53861192570871,34.21309872922776,4.887585532746823,4.887585532746823
58.651026392961874,4.887585532746823,0.0,4.887585532746823,117.30205278592375,39.100684261974585,151.51515151515153
0.0,73.31378299120234,4.887585532746823,4.887585532746823,29.325513196480937,58.651026392961874,234.6041055718475
9.775171065493646,146.6275659824047,122.18963831867057,9.775171065493646,9.775171065493646,19.550342130987293,19.550342130987293
87.97653958944282,24.437927663734115,48.87585532746823,83.08895405669598,4.887585532746823,34.21309872922776,4.887585532746823
131.96480938416423,9.775171065493646,0.0,117.30205278592375,29.325513196480937,4.887585532746823,4.887585532746823
14.662756598240469,9.775171065493646,14.662756598240469,9.775171065493646,102.63929618768329,4.887585532746823,215.05376344086022
14.662756598240469,117.30205278592375,14.662756598240469,4.887585532746823,34.21309872922776,83.08895405669598,175.95307917888564
0.0,127.07722385141741,136.85239491691104,9.775171065493646,14.662756598240469,78.20136852394917,4.887585532746823
131.96480938416423,4.887585532746823,34.21309872922776,122.18963831867057,4.887585532746823,0.0,9.775171065493646
107.52688172043011,9.775171065493646,9.775171065493646,29.325513196480937,39.100684261974585,9.775171065493646,48.87585532746823
4.887585532746823,9.775171065493646,0.0,9.775171065493646,127.07722385141741,29.325513196480937,249.26686217008796
9.775171065493646,161.29032258064515,4.887585532746823,9.775171065493646,29.325513196480937,175.95307917888564,48.87585532746823
43.98826979472141,97.75171065493646,161.29032258064515,4.887585532746823,4.887585532746823,39.100684261974585,4.887585532746823
180.84066471163246,4.887585532746823,112.41446725317694,97.75171065493646,4.887585532746823,4.887585532746823,4.887585532746823
43.98826979472141,4.887585532746823,4.887585532746823,63.53861192570871,39.100684261974585,9.775171065493646,195.50342130987292
4.887585532746823,68.42619745845552,4.887585532746823,4.887585532746823,136.85239491691104,43.98826979472141,161.29032258064515
0.0,146.6275659824047,14.662756598240469,9.775171065493646,24.437927663734115,97.75171065493646,4.887585532746823
58.651026392961874,19.550342130987293,122.18963831867057,43.98826979472141,0.0,63.53861192570871,4.887585532746823
161.29032258064515,0.0,39.100684261974585,83.08895405669598,4.887585532746823,9.775171065493646,53.763440860215056
19.550342130987293,0.0,4.887585532746823,14.662756598240469,24.437927663734115,0.0,239.49169110459434
4.887585532746823,122.18963831867057,0.0,9.775171065493646,127.07722385141741,24.437927663734115,34.21309872922776
0.0,122.18963831867057,34.21309872922776,4.887585532746823,39.100684261974585,131.96480938416423,4.887585532746823
102.63929618768329,4.887585532746823,117.30205278592375,24.437927663734115,14.662756598240469,34.21309872922776,4.887585532746823
127.07722385141741,0.0,34.21309872922776,78.20136852394917,9.775171065493646,14.662756598240469,156.40273704789834
9.775171065493646,9.775171065493646,4.887585532746823,19.550342130987293,19.550342130987293,4.887585532746823,254.15444770283483
4.887585532746823,156.40273704789834,4.887585532746823,9.775171065493646,117.30205278592375,29.325513196480937,24.437927663734115
4.887585532746823,78.20136852394917,73.31378299120234,0.0,29.325513196480937,73.31378299120234,9.775171065493646
127.07722385141741,9.775171065493646,161.29032258064515,34.21309872922776,0.0,19.550342130987293,0.0
107.52688172043011,0.0,4.887585532746823,102.63929618768329,4.887585532746823,9.775171065493646,195.50342130987292
9.775171065493646,63.53861192570871,4.887585532746823,14.662756598240469,4.887585532746823,4.887585532746823,185.7282502443793
9.775171065493646,161.29032258064515,9.775171065493646,4.887585532746823,117.30205278592375,53.763440860215056,4.887585532746823
19.550342130987293,19.550342130987293,53.763440860215056,0.0,39.100684261974585,78.20136852394917,0.0
171.0654936461388,4.887585532746823,97.75171065493646,34.21309872922776,9.775171065493646,9.775171065493646,43.98826979472141
68.42619745845552,4.887585532746823,4.887585532746823,73.31378299120234,4.887585532746823,9.775171065493646,254.15444770283483
4.887585532746823,146.6275659824047,4.887585532746823,14.662756598240469,43.98826979472141,4.887585532746823,107.52688172043011
4.887585532746823,122.18963831867057,68.42619745845552,4.887585532746823,131.96480938416423,63.53861192570871,9.775171065493646
83.08895405669598,4.887585532746823,131.96480938416423,0.0,43.98826979472141,73.31378299120234,4.887585532746823
127.07722385141741,4.887585532746823,39.100684261974585,39.100684261974585,4.887585532746823,9.775171065493646,122.18963831867057
9.775171065493646,9.775171065493646,4.887585532746823,73.31378299120234,4.887585532746823,4.887585532746823,229.7165200391007
9.775171065493646,171.0654936461388,4.887585532746823,24.437927663734115,39.100684261974585,0.0,19.550342130987293
4.887585532746823,92.86412512218965,48.87585532746823,4.887585532746823,102.63929618768329,63.53861192570871,4.887585532746823
131.96480938416423,0.0,117.30205278592375,0.0,34.21309872922776,239.49169110459434,4.887585532746823
102.63929618768329,4.887585532746823,24.437927663734115,43.98826979472141,9.775171065493646,24.437927663734115,190.6158357771261
14.662756598240469,53.763440860215056,9.775171065493646,131.96480938416423,0.0,4.887585532746823,215.05376344086022
4.887585532746823,141.73998044965788,4.887585532746823,29.325513196480937,43.98826979472141,9.775171065493646,9.775171065493646
29.325513196480937,19.550342130987293,146.6275659824047,4.887585532746823,112.41446725317694,4.887585532746823,0.0
156.40273704789834,0.0,97.75171065493646,0.0,43.98826979472141,78.20136852394917,29.325513196480937
58.651026392961874,4.887585532746823,4.887585532746823,43.98826979472141,4.887585532746823,48.87585532746823,234.6041055718475
4.887585532746823,117.30205278592375,9.775171065493646,63.53861192570871,4.887585532746823,4.887585532746823,112.41446725317694
0.0,117.30205278592375,9.775171065493646,48.87585532746823,29.325513196480937,229.7165200391007,4.887585532746823
68.42619745845552,14.662756598240469,156.40273704789834,9.775171065493646,136.85239491691104,48.87585532746823,9.775171065493646
156.40273704789834,0.0,136.85239491691104,4.887585532746823,43.98826979472141,4.887585532746823,117.30205278592375
24.437927663734115,9.775171065493646,9.775171065493646,58.651026392961874,9.775171065493646,4.887585532746823,234.6041055718475
0.0,166.17790811339196,4.887585532746823,48.87585532746823,0.0,9.775171065493646,24.437927663734115
9.775171065493646,87.97653958944282,87.97653958944282,4.887585532746823,29.325513196480937,87.97653958944282,9.775171065493646
107.52688172043011,4.887585532746823,122.18963831867057,0.0,156.40273704789834,24.437927663734115,0.0
102.63929618768329,4.887585532746823,9.775171065493646,9.775171065493646,43.98826979472141,9.775171065493646,195.50342130987292
14.662756598240469,73.31378299120234,0.0,83.08895405669598,4.887585532746823,9.775171065493646,195.50342130987292
4.887585532746823,136.85239491691104,9.775171065493646,29.325513196480937,0.0,4.887585532746823,9.775171065493646
24.437927663734115,14.662756598240469,112.41446725317694,9.775171065493646,24.437927663734115,112.41446725317694,4.887585532746823
161.29032258064515,0.0,87.97653958944282,4.887585532746823,117.30205278592375,14.662756598240469,24.437927663734115
68.42619745845552,4.887585532746823,14.662756598240469,4.887585532746823,29.325513196480937,0.0,244.37927663734115
4.887585532746823,83.08895405669598,0.0,83.08895405669598,14.662756598240469,9.775171065493646,117.30205278592375
4.887585532746823,117.30205278592375,19.550342130987293,48.87585532746823,9.775171065493646,131.96480938416423,14.662756598240469
92.86412512218965,9.775171065493646,131.96480938416423,0.0,24.437927663734115,195.50342130987292,9.775171065493646
131.96480938416423,4.887585532746823,43.98826979472141,4.887585532746823,117.30205278592375,24.437927663734115,122.18963831867057
19.550342130987293,14.662756598240469,4.887585532746823,9.775171065493646,34.21309872922776,9.775171065493646,249.26686217008796
9.775171065493646,166.17790811339196,9.775171065493646,97.75171065493646,4.887585532746823,9.775171065493646,29.325513196480937
9.775171065493646,92.86412512218965,4.887585532746823,39.100684261974585,0.0,63.53861192570871,0.0
146.6275659824047,4.887585532746823,97.75171065493646,4.887585532746823,29.325513196480937,117.30205278592375,4.887585532746823
117.30205278592375,0.0,83.08895405669598,0.0,127.07722385141741,4.887585532746823,200.39100684261973
9.775171065493646,63.53861192570871,14.662756598240469,29.325513196480937,43.98826979472141,9.775171065493646,185.7282502443793
9.775171065493646,171.0654936461388,4.887585532746823,87.97653958944282,4.887585532746823,4.887585532746823,14.662756598240469
24.437927663734115,24.437927663734115,87.97653958944282,4.887585532746823,0.0,39.100684261974585,0.0
161.29032258064515,4.887585532746823,205.27859237536657,4.887585532746823,24.437927663734115,166.17790811339196,39.100684261974585
78.20136852394917,4.887585532746823,19.550342130987293,4.887585532746823,107.52688172043011,43.98826979472141,229.7165200391007
4.887585532746823,97.75171065493646,4.887585532746823,83.08895405669598,19.550342130987293,4.887585532746823,127.07722385141741
4.887585532746823,131.96480938416423,4.887585532746823,122.18963831867057,0.0,0.0,9.775171065493646
92.86412512218965,14.662756598240469,68.42619745845552,19.550342130987293,0.0,43.98826979472141,4.887585532746823
127.07722385141741,9.775171065493646,87.97653958944282,4.887585532746823,24.437927663734115,102.63929618768329,87.97653958944282
14.662756598240469,9.775171065493646,14.662756598240469,0.0,127.07722385141741,24.437927663734115,239.49169110459434
9.775171065493646,146.6275659824047,4.887585532746823,68.42619745845552,53.763440860215056,0.0,29.325513196480937
0.0,92.86412512218965,4.887585532746823,53.763440860215056,4.887585532746823,9.775171065493646,4.887585532746823
141.73998044965788,9.775171065493646,200.39100684261973,9.775171065493646,4.887585532746823,34.21309872922776,0.0
117.30205278592375,4.887585532746823,34.21309872922776,0.0,73.31378299120234,68.42619745845552,166.17790811339196
4.887585532746823,63.53861192570871,9.775171065493646,0.0,78.20136852394917,9.775171065493646,205.27859237536657
0.0,151.51515151515153,0.0,87.97653958944282,4.887585532746823,9.775171065493646,19.550342130987293
19.550342130987293,29.325513196480937,4.887585532746823,58.651026392961874,9.775171065493646,63.53861192570871,9.775171065493646
175.95307917888564,4.887585532746823,219.94134897360706,9.775171065493646,4.887585532746823,24.437927663734115,29.325513196480937
73.31378299120234,0.0,63.53861192570871,0.0,112.41446725317694,117.30205278592375,234.6041055718475
9.775171065493646,122.18963831867057,9.775171065493646,43.98826979472141,73.31378299120234,29.325513196480937,127.07722385141741
0.0,151.51515151515153,9.775171065493646,83.08895405669598,9.775171065493646,4.887585532746823,9.775171065493646
68.42619745845552,9.775171065493646,68.42619745845552,9.775171065493646,0.0,9.775171065493646,0.0
136.85239491691104,9.775171065493646,102.63929618768329,9.775171065493646,14.662756598240469,24.437927663734115,68.42619745845552
9.775171065493646,0.0,43.98826979472141,4.887585532746823,122.18963831867057,4.887585532746823,239.49169110459434
0.0,136.85239491691104,4.887585532746823,48.87585532746823,48.87585532746823,141.73998044965788,24.437927663734115
0.0,97.75171065493646,0.0,78.20136852394917,0.0,9.775171065493646,0.0
156.40273704789834,4.887585532746823,48.87585532746823,19.550342130987293,4.887585532746823,14.662756598240469,0.0
127.07722385141741,0.0,117.30205278592375,0.0,68.42619745845552,131.96480938416423,171.0654936461388
4.887585532746823,43.98826979472141,4.887585532746823,4.887585532746823,92.86412512218965,29.325513196480937,185.7282502443793
0.0,166.17790811339196,0.0,39.100684261974585,19.550342130987293,4.887585532746823,9.775171065493646
19.550342130987293,48.87585532746823,29.325513196480937,97.75171065493646,9.775171065493646,9.775171065493646,0.0
166.17790811339196,0.0,175.95307917888564,43.98826979472141,4.887585532746823,4.887585532746823,24.437927663734115
73.31378299120234,9.775171065493646,122.18963831867057,9.775171065493646,112.41446725317694,92.86412512218965,234.6041055718475
4.887585532746823,97.75171065493646,9.775171065493646,9.775171065493646,73.31378299120234,112.41446725317694,141.73998044965788
9.775171065493646,131.96480938416423,0.0,68.42619745845552,9.775171065493646,14.662756598240469,4.887585532746823
68.42619745845552,14.662756598240469,4.887585532746823,48.87585532746823,0.0,9.775171065493646,9.775171065493646
161.29032258064515,4.887585532746823,127.07722385141741,4.887585532746823,34.21309872922776,14.662756598240469,92.86412512218965
14.662756598240469,4.887585532746823,68.42619745845552,0.0,146.6275659824047,131.96480938416423,249.26686217008796
9.775171065493646,127.07722385141741,0.0,4.887585532746823,58.651026392961874,87.97653958944282,24.437927663734115
0.0,112.41446725317694,4.887585532746823,127.07722385141741,4.887585532746823,4.887585532746823,4.887585532746823
127.07722385141741,0.0,83.08895405669598,14.662756598240469,4.887585532746823,0.0,4.887585532746823
102.63929618768329,4.887585532746823,39.100684261974585,4.887585532746823,73.31378299120234,63.53861192570871,180.84066471163246
14.662756598240469,39.100684261974585,29.325513196480937,0.0,73.31378299120234,175.95307917888564,215.05376344086022
4.887585532746823,156.40273704789834,0.0,24.437927663734115,4.887585532746823,19.550342130987293,14.662756598240469
34.21309872922776,34.21309872922776,0.0,87.97653958944282,9.775171065493646,0.0,4.887585532746823
161.29032258064515,4.887585532746823,161.29032258064515,34.21309872922776,4.887585532746823,9.775171065493646,24.437927663734115
73.31378299120234,4.887585532746823,117.30205278592375,9.775171065493646,117.30205278592375,87.97653958944282,229.7165200391007
9.775171065493646,48.87585532746823,9.775171065493646,0.0,83.08895405669598,68.42619745845552,146.6275659824047
4.887585532746823,171.0654936461388,4.887585532746823,9.775171065493646,9.775171065493646,9.775171065493646,4.887585532746823
78.20136852394917,14.662756598240469,0.0,87.97653958944282,0.0,4.887585532746823,0.0
156.40273704789834,4.887585532746823,102.63929618768329,87.97653958944282,24.437927663734115,19.550342130987293,83.08895405669598
19.550342130987293,9.775171065493646,48.87585532746823,9.775171065493646,117.30205278592375,43.98826979472141,273.7047898338221
0.0,73.31378299120234,9.775171065493646,0.0,48.87585532746823,87.97653958944282,39.100684261974585
0.0,131.96480938416423,0.0,24.437927663734115,9.775171065493646,9.775171065493646,4.887585532746823
136.85239491691104,19.550342130987293,34.21309872922776,92.86412512218965,4.887585532746823,9.775171065493646,4.887585532746823
102.63929618768329,0.0,136.85239491691104,9.775171065493646,78.20136852394917,39.100684261974585,156.40273704789834
9.775171065493646,4.887585532746823,19.550342130987293,4.887585532746823,92.86412512218965,83.08895405669598,219.94134897360706
4.887585532746823,190.6158357771261,9.775171065493646,4.887585532746823,14.662756598240469,29.325513196480937,14.662756598240469
19.550342130987293,43.98826979472141,4.887585532746823,24.437927663734115,0.0,9.775171065493646,9.775171065493646
166.17790811339196,4.887585532746823,43.98826979472141,122.18963831867057,4.887585532746823,9.775171065493646,14.662756598240469
73.31378299120234,9.775171065493646,141.73998044965788,19.550342130987293,141.73998044965788,92.86412512218965,219.94134897360706
4.887585532746823,4.887585532746823,24.437927663734115,4.887585532746823,73.31378299120234,68.42619745845552,156.40273704789834
4.887585532746823,146.6275659824047,4.887585532746823,0.0,9.775171065493646,9.775171065493646,4.887585532746823
68.42619745845552,87.97653958944282,0.0,39.100684261974585,9.775171065493646,4.887585532746823,4.887585532746823
156.40273704789834,4.887585532746823,19.550342130987293,92.86412512218965,9.775171065493646,0.0,83.08895405669598
9.775171065493646,0.0,151.51515151515153,19.550342130987293,151.51515151515153,34.21309872922776,263.92961876832845
4.887585532746823,34.21309872922776,63.53861192570871,0.0,19.550342130987293,229.7165200391007,29.325513196480937
9.775171065493646,161.29032258064515,9.775171065493646,0.0,4.887585532746823,24.437927663734115,4.887585532746823
146.6275659824047,43.98826979472141,4.887585532746823,19.550342130987293,9.775171065493646,9.775171065493646,4.887585532746823
112.41446725317694,4.887585532746823,107.52688172043011,78.20136852394917,29.325513196480937,4.887585532746823,161.29032258064515
9.775171065493646,0.0,141.73998044965788,39.100684261974585,97.75171065493646,34.21309872922776,215.05376344086022
0.0,43.98826979472141,14.662756598240469,0.0,53.763440860215056,122.18963831867057,19.550342130987293
14.662756598240469,166.17790811339196,0.0,4.887585532746823,0.0,19.550342130987293,0.0
141.73998044965788,48.87585532746823,4.887585532746823,19.550342130987293,4.887585532746823,0.0,4.887585532746823
87.97653958944282,9.775171065493646,117.30205278592375,83.08895405669598,122.18963831867057,9.775171065493646,219.94134897360706
14.662756598240469,9.775171065493646,78.20136852394917,19.550342130987293,73.31378299120234,43.98826979472141,161.29032258064515
0.0,107.52688172043011,9.775171065493646,0.0,4.887585532746823,29.325513196480937,9.775171065493646
63.53861192570871,146.6275659824047,0.0,0.0,0.0,19.550342130987293,0.0
151.51515151515153,14.662756598240469,39.100684261974585,14.662756598240469,0.0,58.651026392961874,63.53861192570871
19.550342130987293,9.775171065493646,171.0654936461388,92.86412512218965,122.18963831867057,0.0,254.15444770283483
4.887585532746823,0.0,43.98826979472141,29.325513196480937,68.42619745845552,92.86412512218965,34.21309872922776
4.887585532746823,136.85239491691104,4.887585532746823,0.0,4.887585532746823,53.763440860215056,4.887585532746823
127.07722385141741,127.07722385141741,9.775171065493646,9.775171065493646,0.0,9.775171065493646,4.887585532746823
97.75171065493646,14.662756598240469,14.662756598240469,19.550342130987293,48.87585532746823,19.550342130987293,166.17790811339196
4.887585532746823,4.887585532746823,156.40273704789834,102.63929618768329,102.63929618768329,0.0,210.16617790811338
4.887585532746823,48.87585532746823,73.31378299120234,43.98826979472141,39.100684261974585,87.97653958944282,19.550342130987293
53.763440860215056,151.51515151515153,4.887585532746823,9.775171065493646,9.775171065493646,151.51515151515153,4.887585532746823
146.6275659824047,29.325513196480937,9.775171065493646,4.887585532746823,0.0,9.775171065493646,14.662756598240469
24.437927663734115,4.887585532746823,63.53861192570871,29.325513196480937,63.53861192570871,4.887585532746823,215.05376344086022
0.0,4.887585532746823,107.52688172043011,73.31378299120234,87.97653958944282,0.0,151.51515151515153
4.887585532746823,73.31378299120234,19.550342130987293,9.775171065493646,14.662756598240469,151.51515151515153,4.887585532746823
63.53861192570871,127.07722385141741,9.775171065493646,0.0,9.775171065493646,29.325513196480937,0.0
156.40273704789834,9.775171065493646,9.775171065493646,9.775171065493646,0.0,4.887585532746823,87.97653958944282
19.550342130987293,0.0,185.7282502443793,73.31378299120234,58.651026392961874,9.775171065493646,249.26686217008796
0.0,9.775171065493646,127.07722385141741,63.53861192570871,68.42619745845552,9.775171065493646,34.21309872922776
0.0,122.18963831867057,9.775171065493646,14.662756598240469,14.662756598240469,107.52688172043011,0.0
107.52688172043011,53.763440860215056,0.0,9.775171065493646,4.887585532746823,73.31378299120234,4.887585532746823
131.96480938416423,9.775171065493646,34.21309872922776,4.887585532746823,9.775171065493646,4.887585532746823,146.6275659824047
9.775171065493646,9.775171065493646,166.17790811339196,63.53861192570871,112.41446725317694,0.0,219.94134897360706
9.775171065493646,122.18963831867057,63.53861192570871,78.20136852394917,53.763440860215056,68.42619745845552,19.550342130987293
24.437927663734115,166.17790811339196,4.887585532746823,9.775171065493646,4.887585532746823,117.30205278592375,0.0
166.17790811339196,24.437927663734115,0.0,9.775171065493646,9.775171065493646,43.98826979472141,0.0
83.08895405669598,9.775171065493646,63.53861192570871,4.887585532746823,68.42619745845552,4.887585532746823,205.27859237536657
0.0,4.887585532746823,107.52688172043011,87.97653958944282,87.97653958944282,14.662756598240469,151.51515151515153
9.775171065493646,73.31378299120234,4.887585532746823,29.325513196480937,14.662756598240469,92.86412512218965,9.775171065493646
68.42619745845552,146.6275659824047,4.887585532746823,9.775171065493646,4.887585532746823,122.18963831867057,9.775171065493646
131.96480938416423,14.662756598240469,19.550342130987293,4.887585532746823,0.0,19.550342130987293,68.42619745845552
19.550342130987293,4.887585532746823,122.18963831867057,14.662756598240469,92.86412512218965,4.887585532746823,263.92961876832845
9.775171065493646,0.0,78.20136852394917,83.08895405669598,122.18963831867057,4.887585532746823,39.100684261974585
0.0,161.29032258064515,14.662756598240469,43.98826979472141,4.887585532746823,161.29032258064515,9.775171065493646
117.30205278592375,117.30205278592375,0.0,9.775171065493646,0.0,29.325513196480937,9.775171065493646
131.96480938416423,9.775171065493646,9.775171065493646,0.0,29.325513196480937,9.775171065493646,127.07722385141741
9.775171065493646,0.0,210.16617790811338,4.887585532746823,151.51515151515153,0.0,239.49169110459434
0.0,29.325513196480937,122.18963831867057,68.42619745845552,39.100684261974585,14.662756598240469,24.437927663734115
14.662756598240469,171.0654936461388,14.662756598240469,58.651026392961874,4.887585532746823,117.30205278592375,4.887585532746823
161.29032258064515,53.763440860215056,9.775171065493646,14.662756598240469,4.887585532746823,68.42619745845552,9.775171065493646
92.86412512218965,4.887585532746823,34.21309872922776,0.0,0.0,4.887585532746823,215.05376344086022
9.775171065493646,0.0,171.0654936461388,39.100684261974585,107.52688172043011,4.887585532746823,171.0654936461388
0.0,92.86412512218965,48.87585532746823,87.97653958944282,87.97653958944282,14.662756598240469,9.775171065493646
53.763440860215056,141.73998044965788,0.0,53.763440860215056,4.887585532746823,141.73998044965788,4.887585532746823
156.40273704789834,19.550342130987293,4.887585532746823,4.887585532746823,4.887585532746823,43.98826979472141,68.42619745845552
24.437927663734115,4.887585532746823,92.86412512218965,4.887585532746823,43.98826979472141,4.887585532746823,244.37927663734115
9.775171065493646,0.0,219.94134897360706,83.08895405669598,136.85239491691104,9.775171065493646,29.325513196480937
4.887585532746823,151.51515151515153,24.437927663734115,43.98826979472141,34.21309872922776,102.63929618768329,4.887585532746823
107.52688172043011,122.18963831867057,0.0,9.775171065493646,4.887585532746823,63.53861192570871,4.887585532746823
146.6275659824047,14.662756598240469,34.21309872922776,4.887585532746823,0.0,9.775171065493646,127.07722385141741
24.437927663734115,4.887585532746823,136.85239491691104,4.887585532746823,48.87585532746823,4.887585532746823,229.7165200391007
4.887585532746823,24.437927663734115,43.98826979472141,43.98826979472141,78.20136852394917,9.775171065493646,19.550342130987293
14.662756598240469,161.29032258064515,9.775171065493646,68.42619745845552,4.887585532746823,107.52688172043011,0.0
156.40273704789834,73.31378299120234,0.0,4.887585532746823,4.887585532746823,58.651026392961874,9.775171065493646
107.52688172043011,0.0,24.437927663734115,9.775171065493646,4.887585532746823,4.887585532746823,205.27859237536657
4.887585532746823,4.887585532746823,171.0654936461388,9.775171065493646,87.97653958944282,34.21309872922776,180.84066471163246
0.0,92.86412512218965,43.98826979472141,14.662756598240469,73.31378299120234,24.437927663734115,14.662756598240469
58.651026392961874,146.6275659824047,4.887585532746823,107.52688172043011,0.0,43.98826979472141,9.775171065493646
146.6275659824047,14.662756598240469,4.887585532746823,24.437927663734115,0.0,68.42619745845552,53.763440860215056
24.437927663734115,4.887585532746823,9.775171065493646,9.775171065493646,19.550342130987293,14.662756598240469,259.04203323558164
0.0,9.775171065493646,171.0654936461388,9.775171065493646,127.07722385141741,4.887585532746823,39.100684261974585
9.775171065493646,151.51515151515153,43.98826979472141,48.87585532746823,19.550342130987293,107.52688172043011,4.887585532746823
122.18963831867057,102.63929618768329,0.0,53.763440860215056,4.887585532746823,141.73998044965788,14.662756598240469
127.07722385141741,4.887585532746823,4.887585532746823,9.775171065493646,9.775171065493646,9.775171065493646,131.96480938416423
14.662756598240469,14.662756598240469,14.662756598240469,4.887585532746823,53.763440860215056,9.775171065493646,219.94134897360706
0.0,19.550342130987293,58.651026392961874,4.887585532746823,102.63929618768329,34.21309872922776,24.437927663734115
9.775171065493646,200.39100684261973,127.07722385141741,92.86412512218965,24.437927663734115,92.86412512218965,0.0
151.51515151515153,58.651026392961874,9.775171065493646,39.100684261974585,0.0,34.21309872922776,4.887585532746823
78.20136852394917,4.887585532746823,4.887585532746823,4.887585532746823,4.887585532746823,4.887585532746823,190.6158357771261
4.887585532746823,4.887585532746823,131.96480938416423,0.0,87.97653958944282,4.887585532746823,171.0654936461388
0.0,73.31378299120234,136.85239491691104,9.775171065493646,97.75171065493646,4.887585532746823,4.887585532746823
48.87585532746823,146.6275659824047,9.775171065493646,112.41446725317694,4.887585532746823,92.86412512218965,9.775171065493646
146.6275659824047,19.550342130987293,9.775171065493646,68.42619745845552,0.0,102.63929618768329,39.100684261974585
14.662756598240469,9.775171065493646,14.662756598240469,9.775171065493646,14.662756598240469,19.550342130987293,224.82893450635387
4.887585532746823,0.0,127.07722385141741,4.887585532746823,53.763440860215056,0.0,102.63929618768329
4.887585532746823,127.07722385141741,112.41446725317694,29.325513196480937,68.42619745845552,4.887585532746823,9.775171065493646
102.63929618768329,102.63929618768329,14.662756598240469,112.41446725317694,4.887585532746823,29.325513196480937,0.0
117.30205278592375,9.775171065493646,4.887585532746823,19.550342130987293,0.0,102.63929618768329,122.18963831867057
9.775171065493646,0.0,4.887585532746823,0.0,0.0,53.763440860215056,249.26686217008796
4.887585532746823,19.550342130987293,136.85239491691104,4.887585532746823,112.41446725317694,9.775171065493646,24.437927663734115
4.887585532746823,180.84066471163246,68.42619745845552,19.550342130987293,63.53861192570871,4.887585532746823,4.887585532746823
151.51515151515153,63.53861192570871,4.887585532746823,122.18963831867057,9.775171065493646,92.86412512218965,4.887585532746823
78.20136852394917,4.887585532746823,4.887585532746823,29.325513196480937,0.0,14.662756598240469,205.27859237536657
9.775171065493646,9.775171065493646,73.31378299120234,9.775171065493646,53.763440860215056,14.662756598240469,200.39100684261973
9.775171065493646,78.20136852394917,131.96480938416423,4.887585532746823,141.73998044965788,4.887585532746823,9.775171065493646
48.87585532746823,136.85239491691104,14.662756598240469,19.550342130987293,14.662756598240469,9.775171065493646,4.887585532746823
131.96480938416423,19.550342130987293,0.0,87.97653958944282,0.0,63.53861192570871,48.87585532746823
24.437927663734115,0.0,4.887585532746823,29.325513196480937,0.0,34.21309872922776,259.04203323558164
9.775171065493646,9.775171065493646,107.52688172043011,9.775171065493646,83.08895405669598,9.775171065493646,48.87585532746823
0.0,117.30205278592375,58.651026392961874,9.775171065493646,78.20136852394917,4.887585532746823,9.775171065493646
112.41446725317694,117.30205278592375,0.0,19.550342130987293,4.887585532746823,97.75171065493646,4.887585532746823
136.85239491691104,9.775171065493646,4.887585532746823,83.08895405669598,0.0,43.98826979472141,195.50342130987292
4.887585532746823,4.887585532746823,68.42619745845552,53.763440860215056,14.662756598240469,117.30205278592375,185.7282502443793
4.887585532746823,19.550342130987293,73.31378299120234,4.887585532746823,171.0654936461388,9.775171065493646,14.662756598240469
4.887585532746823,166.17790811339196,4.887585532746823,9.775171065493646,48.87585532746823,0.0,9.775171065493646
127.07722385141741,73.31378299120234,0.0,43.98826979472141,9.775171065493646,0.0,39.100684261974585
87.97653958944282,4.887585532746823,9.775171065493646,92.86412512218965,9.775171065493646,112.41446725317694,229.7165200391007
9.775171065493646,4.887585532746823,24.437927663734115,9.775171065493646,48.87585532746823,83.08895405669598,117.30205278592375
0.0,73.31378299120234,146.6275659824047,9.775171065493646,161.29032258064515,9.775171065493646,9.775171065493646
43.98826979472141,151.51515151515153,24.437927663734115,4.887585532746823,9.775171065493646,9.775171065493646,4.887585532746823
161.29032258064515,14.662756598240469,4.887585532746823,83.08895405669598,4.887585532746823,122.18963831867057,92.86412512218965
73.31378299120234,0.0,4.887585532746823,43.98826979472141,4.887585532746823,73.31378299120234,249.26686217008796
0.0,4.887585532746823,48.87585532746823,14.662756598240469,83.08895405669598,14.662756598240469,19.550342130987293
4.887585532746823,131.96480938416423,102.63929618768329,9.775171065493646,102.63929618768329,4.887585532746823,4.887585532746823
92.86412512218965,146.6275659824047,24.437927663734115,4.887585532746823,9.775171065493646,29.325513196480937,9.775171065493646
127.07722385141741,9.775171065493646,14.662756598240469,78.20136852394917,4.887585532746823,244.37927663734115,185.7282502443793
24.437927663734115,0.0,0.0,68.42619745845552,14.662756598240469,78.20136852394917,190.6158357771261
0.0,9.775171065493646,83.08895405669598,9.775171065493646,151.51515151515153,9.775171065493646,9.775171065493646
4.887585532746823,171.0654936461388,122.18963831867057,9.775171065493646,68.42619745845552,4.887585532746823,0.0
151.51515151515153,73.31378299120234,4.887585532746823,4.887585532746823,4.887585532746823,48.87585532746823,48.87585532746823
107.52688172043011,9.775171065493646,0.0,78.20136852394917,4.887585532746823,63.53861192570871,224.82893450635387
4.887585532746823,0.0,14.662756598240469,63.53861192570871,43.98826979472141,39.100684261974585,58.651026392961874
0.0,68.42619745845552,122.18963831867057,4.887585532746823,131.96480938416423,4.887585532746823,4.887585532746823
48.87585532746823,146.6275659824047,68.42619745845552,0.0,39.100684261974585,0.0,0.0
171.0654936461388,14.662756598240469,9.775171065493646,19.550342130987293,4.887585532746823,43.98826979472141,185.7282502443793
19.550342130987293,0.0,4.887585532746823,112.41446725317694,0.0,122.18963831867057,190.6158357771261
4.887585532746823,0.0,63.53861192570871,53.763440860215056,58.651026392961874,29.325513196480937,14.662756598240469
0.0,131.96480938416423,131.96480938416423,9.775171065493646,92.86412512218965,9.775171065493646,4.887585532746823
112.41446725317694,112.41446725317694,14.662756598240469,9.775171065493646,4.887585532746823,4.887585532746823,39.100684261974585
127.07722385141741,9.775171065493646,4.887585532746823,53.763440860215056,0.0,48.87585532746823,234.6041055718475
14.662756598240469,9.775171065493646,34.21309872922776,78.20136852394917,0.0,141.73998044965788,127.07722385141741
4.887585532746823,24.437927663734115,122.18963831867057,14.662756598240469,117.30205278592375,24.437927663734115,9.775171065493646
0.0,171.0654936461388,63.53861192570871,0.0,68.42619745845552,14.662756598240469,4.887585532746823
151.51515151515153,83.08895405669598,4.887585532746823,4.887585532746823,4.887585532746823,4.887585532746823,107.52688172043011
107.52688172043011,4.887585532746823,4.887585532746823,92.86412512218965,4.887585532746823,127.07722385141741,244.37927663734115
9.775171065493646,0.0,73.31378299120234,43.98826979472141,19.550342130987293,24.437927663734115,24.437927663734115
4.887585532746823,68.42619745845552,78.20136852394917,4.887585532746823,73.31378299120234,14.662756598240469,4.887585532746823
19.550342130987293,146.6275659824047,39.100684261974585,9.775171065493646,53.763440860215056,0.0,4.887585532746823
166.17790811339196,19.550342130987293,4.887585532746823,4.887585532746823,4.887585532746823,48.87585532746823,190.6158357771261
53.763440860215056,0.0,9.775171065493646,83.08895405669598,0.0,146.6275659824047,185.7282502443793
4.887585532746823,0.0,68.42619745845552,43.98826979472141,92.86412512218965,39.100684261974585,14.662756598240469
4.887585532746823,136.85239491691104,73.31378299120234,4.887585532746823,107.52688172043011,9.775171065493646,4.887585532746823
117.30205278592375,151.51515151515153,9.775171065493646,9.775171065493646,14.662756598240469,4.887585532746823,39.100684261974585
127.07722385141741,14.662756598240469,9.775171065493646,4.887585532746823,4.887585532746823,9.775171065493646,224.82893450635387
14.662756598240469,4.887585532746823,9.775171065493646,92.86412512218965,0.0,9.775171065493646,131.96480938416423
4.887585532746823,19.550342130987293,117.30205278592375,53.763440860215056,87.97653958944282,43.98826979472141,9.775171065493646
9.775171065493646,175.95307917888564,78.20136852394917,9.775171065493646,73.31378299120234,14.662756598240469,9.775171065493646
171.0654936461388,68.42619745845552,4.887585532746823,9.775171065493646,4.887585532746823,4.887585532746823,78.20136852394917
83.08895405669598,0.0,0.0,19.550342130987293,4.887585532746823,0.0,268.81720430107526
9.775171065493646,4.887585532746823,39.100684261974585,122.18963831867057,19.550342130987293,68.42619745845552,24.437927663734115
4.887585532746823,68.42619745845552,200.39100684261973,19.550342130987293,127.07722385141741,249.26686217008796,4.887585532746823
39.100684261974585,151.51515151515153,78.20136852394917,4.887585532746823,48.87585532746823,19.550342130987293,4.887585532746823
166.17790811339196,19.550342130987293,4.887585532746823,4.887585532746823,9.775171065493646,9.775171065493646,175.95307917888564
48.87585532746823,9.775171065493646,0.0,14.662756598240469,9.775171065493646,9.775171065493646,185.7282502443793
4.887585532746823,0.0,43.98826979472141,107.52688172043011,48.87585532746823,92.86412512218965,14.662756598240469
0.0,117.30205278592375,136.85239491691104,34.21309872922776,107.52688172043011,43.98826979472141,4.887585532746823
107.52688172043011,122.18963831867057,24.437927663734115,4.887585532746823,24.437927663734115,9.775171065493646,29.325513196480937
122.18963831867057,9.775171065493646,4.887585532746823,0.0,0.0,0.0,219.94134897360706
9.775171065493646,9.775171065493646,0.0,19.550342130987293,4.887585532746823,4.887585532746823,117.30205278592375
4.887585532746823,9.775171065493646,53.763440860215056,83.08895405669598,34.21309872922776,97.75171065493646,4.887585532746823
9.775171065493646,166.17790811339196,122.18963831867057,9.775171065493646,68.42619745845552,29.325513196480937,9.775171065493646
136.85239491691104,102.63929618768329,24.437927663734115,9.775171065493646,48.87585532746823,9.775171065493646,83.08895405669598
127.07722385141741,4.887585532746823,4.887585532746823,0.0,0.0,4.887585532746823,239.49169110459434
9.775171065493646,4.887585532746823,0.0,4.887585532746823,4.887585532746823,14.662756598240469,34.21309872922776
0.0,53.763440860215056,146.6275659824047,92.86412512218965,117.30205278592375,102.63929618768329,9.775171065493646
29.325513196480937,175.95307917888564,58.651026392961874,9.775171065493646,83.08895405669598,4.887585532746823,4.887585532746823
166.17790811339196,29.325513196480937,9.775171065493646,14.662756598240469,4.887585532746823,0.0,156.40273704789834
48.87585532746823,4.887585532746823,9.775171065493646,0.0,0.0,14.662756598240469,210.16617790811338
0.0,9.775171065493646,4.887585532746823,19.550342130987293,63.53861192570871,131.96480938416423,24.437927663734115
9.775171065493646,102.63929618768329,131.96480938416423,87.97653958944282,97.75171065493646,24.437927663734115,0.0
97.75171065493646,146.6275659824047,63.53861192570871,14.662756598240469,14.662756598240469,4.887585532746823,34.21309872922776
136.85239491691104,4.887585532746823,4.887585532746823,4.887585532746823,14.662756598240469,0.0,239.49169110459434
4.887585532746823,0.0,53.763440860215056,14.662756598240469,9.775171065493646,9.775171065493646,112.41446725317694
4.887585532746823,24.437927663734115,131.96480938416423,29.325513196480937,78.20136852394917,34.21309872922776,9.775171065493646
4.887585532746823,180.84066471163246,73.31378299120234,102.63929618768329,34.21309872922776,166.17790811339196,4.887585532746823
146.6275659824047,68.42619745845552,4.887585532746823,29.325513196480937,4.887585532746823,19.550342130987293,97.75171065493646
107.52688172043011,9.775171065493646,9.775171065493646,4.887585532746823,0.0,0.0,229.7165200391007
9.775171065493646,4.887585532746823,14.662756598240469,0.0,53.763440860215056,0.0,24.437927663734115
4.887585532746823,63.53861192570871,87.97653958944282,4.887585532746823,141.73998044965788,9.775171065493646,4.887585532746823
24.437927663734115,156.40273704789834,29.325513196480937,107.52688172043011,102.63929618768329,171.0654936461388,9.775171065493646
156.40273704789834,19.550342130987293,4.887585532746823,34.21309872922776,4.887585532746823,200.39100684261973,185.7282502443793
68.42619745845552,9.775171065493646,4.887585532746823,9.775171065493646,9.775171065493646,4.887585532746823,185.7282502443793
0.0,4.887585532746823,4.887585532746823,0.0,29.325513196480937,9.775171065493646,19.550342130987293
9.775171065493646,102.63929618768329,122.18963831867057,24.437927663734115,102.63929618768329,190.6158357771261,9.775171065493646
83.08895405669598,117.30205278592375,58.651026392961874,73.31378299120234,9.775171065493646,63.53861192570871,14.662756598240469
146.6275659824047,9.775171065493646,0.0,29.325513196480937,4.887585532746823,4.887585532746823,229.7165200391007
14.662756598240469,0.0,9.775171065493646,9.775171065493646,0.0,0.0,136.85239491691104
4.887585532746823,24.437927663734115,68.42619745845552,9.775171065493646,4.887585532746823,4.887585532746823,4.887585532746823
0.0,171.0654936461388,117.30205278592375,14.662756598240469,122.18963831867057,185.7282502443793,9.775171065493646
171.0654936461388,68.42619745845552,14.662756598240469,131.96480938416423,19.550342130987293,131.96480938416423,83.08895405669598
92.86412512218965,9.775171065493646,0.0,34.21309872922776,4.887585532746823,9.775171065493646,239.49169110459434
4.887585532746823,4.887585532746823,0.0,4.887585532746823,4.887585532746823,0.0,34.21309872922776
4.887585532746823,53.763440860215056,97.75171065493646,0.0,4.887585532746823,19.550342130987293,4.887585532746823
53.763440860215056,161.29032258064515,161.29032258064515,24.437927663734115,87.97653958944282,146.6275659824047,9.775171065493646
171.0654936461388,19.550342130987293,4.887585532746823,102.63929618768329,78.20136852394917,14.662756598240469,171.0654936461388
29.325513196480937,4.887585532746823,4.887585532746823,24.437927663734115,4.887585532746823,4.887585532746823,195.50342130987292
0.0,9.775171065493646,53.763440860215056,4.887585532746823,4.887585532746823,9.775171065493646,14.662756598240469
0.0,122.18963831867057,166.17790811339196,0.0,24.437927663734115,83.08895405669598,0.0
117.30205278592375,127.07722385141741,24.437927663734115,19.550342130987293,102.63929618768329,268.81720430107526,14.662756598240469
136.85239491691104,9.775171065493646,4.887585532746823,92.86412512218965,102.63929618768329,19.550342130987293,234.6041055718475
19.550342130987293,4.887585532746823,4.887585532746823,63.53861192570871,9.775171065493646,9.775171065493646,151.51515151515153
9.775171065493646,0.0,48.87585532746823,4.887585532746823,4.887585532746823,0.0,9.775171065493646
4.887585532746823,156.40273704789834,107.52688172043011,4.887585532746823,92.86412512218965,78.20136852394917,0.0
161.29032258064515,83.08895405669598,24.437927663734115,39.100684261974585,63.53861192570871,97.75171065493646,87.97653958944282
97.75171065493646,9.775171065493646,4.887585532746823,73.31378299120234,9.775171065493646,9.775171065493646,249.26686217008796
9.775171065493646,4.887585532746823,4.887585532746823,19.550342130987293,4.887585532746823,9.775171065493646,34.21309872922776
4.887585532746823,48.87585532746823,175.95307917888564,9.775171065493646,53.763440860215056,9.775171065493646,9.775171065493646
24.437927663734115,141.73998044965788,78.20136852394917,4.887585532746823,107.52688172043011,39.100684261974585,0.0
146.6275659824047,14.662756598240469,9.775171065493646,53.763440860215056,9.775171065493646,215.05376344086022,146.6275659824047
73.31378299120234,4.887585532746823,0.0,24.437927663734115,4.887585532746823,34.21309872922776,205.27859237536657
4.887585532746823,0.0,4.887585532746823,0.0,4.887585532746823,9.775171065493646,9.775171065493646
0.0,112.41446725317694,229.7165200391007,9.775171065493646,48.87585532746823,4.887585532746823,0.0
92.86412512218965,107.52688172043011,73.31378299120234,0.0,63.53861192570871,53.763440860215056,19.550342130987293
146.6275659824047,9.775171065493646,4.887585532746823,39.100684261974585,4.887585532746823,24.437927663734115,224.82893450635387
14.662756598240469,4.887585532746823,9.775171065493646,73.31378299120234,9.775171065493646,4.887585532746823,156.40273704789834
9.775171065493646,0.0,34.21309872922776,14.662756598240469,24.437927663734115,0.0,9.775171065493646
14.662756598240469,146.6275659824047,102.63929618768329,9.775171065493646,122.18963831867057,29.325513196480937,9.775171065493646
141.73998044965788,83.08895405669598,29.325513196480937,0.0,24.437927663734115,92.86412512218965,63.53861192570871
112.41446725317694,4.887585532746823,9.775171065493646,43.98826979472141,4.887585532746823,68.42619745845552,263.92961876832845
14.662756598240469,4.887585532746823,9.775171065493646,68.42619745845552,4.887585532746823,9.775171065493646,34.21309872922776
4.887585532746823,53.763440860215056,53.763440860215056,14.662756598240469,24.437927663734115,24.437927663734115,9.775171065493646
34.21309872922776,175.95307917888564,117.30205278592375,4.887585532746823,73.31378299120234,78.20136852394917,4.887585532746823
141.73998044965788,24.437927663734115,19.550342130987293,9.775171065493646,53.763440860215056,68.42619745845552,156.40273704789834
92.86412512218965,9.775171065493646,9.775171065493646,29.325513196480937,4.887585532746823,9.775171065493646,200.39100684261973
9.775171065493646,4.887585532746823,4.887585532746823,92.86412512218965,9.775171065493646,9.775171065493646,9.775171065493646
0.0,107.52688172043011,58.651026392961874,14.662756598240469,53.763440860215056,4.887585532746823,0.0
92.86412512218965,117.30205278592375,68.42619745845552,9.775171065493646,34.21309872922776,92.86412512218965,9.775171065493646
131.96480938416423,4.887585532746823,4.887585532746823,9.775171065493646,78.20136852394917,78.20136852394917,205.27859237536657
14.662756598240469,4.887585532746823,0.0,34.21309872922776,14.662756598240469,9.775171065493646,166.17790811339196
9.775171065493646,4.887585532746823,24.437927663734115,87.97653958944282,4.887585532746823,4.887585532746823,4.887585532746823
0.0,127.07722385141741,122.18963831867057,19.550342130987293,78.20136852394917,43.98826979472141,9.775171065493646
146.6275659824047,83.08895405669598,43.98826979472141,14.662756598240469,48.87585532746823,166.17790811339196,58.651026392961874
112.41446725317694,9.775171065493646,4.887585532746823,4.887585532746823,9.775171065493646,48.87585532746823,259.04203323558164
4.887585532746823,0.0,0.0,48.87585532746823,4.887585532746823,14.662756598240469,43.98826979472141
9.775171065493646,39.100684261974585,9.775171065493646,73.31378299120234,9.775171065493646,4.887585532746823,9.775171065493646
29.325513196480937,171.0654936461388,112.41446725317694,9.775171065493646,53.763440860215056,24.437927663734115,0.0
166.17790811339196,43.98826979472141,63.53861192570871,0.0,102.63929618768329,58.651026392961874,146.6275659824047
48.87585532746823,4.887585532746823,4.887585532746823,4.887585532746823,9.775171065493646,4.887585532746823,224.82893450635387
4.887585532746823,4.887585532746823,0.0,73.31378299120234,9.775171065493646,9.775171065493646,14.662756598240469
4.887585532746823,29.325513196480937,4.887585532746823,68.42619745845552,19.550342130987293,131.96480938416423,4.887585532746823
78.20136852394917,161.29032258064515,117.30205278592375,4.887585532746823,87.97653958944282,34.21309872922776,9.775171065493646
166.17790811339196,48.87585532746823,180.84066471163246,9.775171065493646,97.75171065493646,29.325513196480937,195.50342130987292
19.550342130987293,9.775171065493646,4.887585532746823,34.21309872922776,9.775171065493646,4.887585532746823,171.0654936461388
4.887585532746823,0.0,0.0,146.6275659824047,9.775171065493646,9.775171065493646,9.775171065493646
0.0,107.52688172043011,127.07722385141741,48.87585532746823,43.98826979472141,0.0,4.887585532746823
122.18963831867057,136.85239491691104,43.98826979472141,9.775171065493646,68.42619745845552,73.31378299120234,58.651026392961874
127.07722385141741,9.775171065493646,9.775171065493646,9.775171065493646,9.775171065493646,92.86412512218965,259.04203323558164
9.775171065493646,0.0,9.775171065493646,34.21309872922776,4.887585532746823,24.437927663734115,34.21309872922776
0.0,9.775171065493646,9.775171065493646,63.53861192570871,9.775171065493646,4.887585532746823,9.775171065493646
29.325513196480937,141.73998044965788,68.42619745845552,29.325513196480937,63.53861192570871,4.887585532746823,4.887585532746823
161.29032258064515,97.75171065493646,92.86412512218965,4.887585532746823,39.100684261974585,190.6158357771261,127.07722385141741
73.31378299120234,4.887585532746823,4.887585532746823,9.775171065493646,9.775171065493646,83.08895405669598,219.94134897360706
9.775171065493646,4.887585532746823,0.0,53.763440860215056,4.887585532746823,9.775171065493646,19.550342130987293
9.775171065493646,43.98826979472141,43.98826979472141,53.763440860215056,0.0,0.0,9.775171065493646
78.20136852394917,171.0654936461388,161.29032258064515,14.662756598240469,107.52688172043011,9.775171065493646,9.775171065493646
156.40273704789834,43.98826979472141,43.98826979472141,4.887585532746823,43.98826979472141,48.87585532746823,195.50342130987292
14.662756598240469,14.662756598240469,4.887585532746823,4.887585532746823,9.775171065493646,68.42619745845552,180.84066471163246
9.775171065493646,0.0,4.887585532746823,73.31378299120234,9.775171065493646,83.08895405669598,14.662756598240469
4.887585532746823,48.87585532746823,14.662756598240469,83.08895405669598,0.0,4.887585532746823,0.0
122.18963831867057,171.0654936461388,146.6275659824047,9.775171065493646,68.42619745845552,87.97653958944282,58.651026392961874
122.18963831867057,29.325513196480937,53.763440860215056,0.0,87.97653958944282,73.31378299120234,259.04203323558164
9.775171065493646,0.0,9.775171065493646,4.887585532746823,9.775171065493646,4.887585532746823,34.21309872922776
0.0,0.0,9.775171065493646,92.86412512218965,0.0,0.0,4.887585532746823
34.21309872922776,107.52688172043011,29.325513196480937,29.325513196480937,39.100684261974585,78.20136852394917,4.887585532746823
166.17790811339196,102.63929618768329,122.18963831867057,4.887585532746823,107.52688172043011,107.52688172043011,127.07722385141741
73.31378299120234,9.775171065493646,87.97653958944282,4.887585532746823,136.85239491691104,14.662756598240469,244.37927663734115
4.887585532746823,0.0,9.775171065493646,24.437927663734115,9.775171065493646,14.662756598240469,24.437927663734115
0.0,0.0,9.775171065493646,141.73998044965788,0.0,0.0,4.887585532746823
68.42619745845552,146.6275659824047,97.75171065493646,58.651026392961874,39.100684261974585,43.98826979472141,0.0
151.51515151515153,102.63929618768329,102.63929618768329,4.887585532746823,190.6158357771261,175.95307917888564,210.16617790811338
9.775171065493646,14.662756598240469,14.662756598240469,9.775171065493646,29.325513196480937,19.550342130987293,151.51515151515153
4.887585532746823,4.887585532746823,0.0,43.98826979472141,4.887585532746823,9.775171065493646,9.775171065493646
0.0,43.98826979472141,4.887585532746823,73.31378299120234,0.0,9.775171065493646,9.775171065493646
136.85239491691104,161.29032258064515,112.41446725317694,14.662756598240469,19.550342130987293,9.775171065493646,58.651026392961874
122.18963831867057,43.98826979472141,190.6158357771261,0.0,122.18963831867057,127.07722385141741,244.37927663734115
9.775171065493646,4.887585532746823,14.662756598240469,4.887585532746823,48.87585532746823,175.95307917888564,48.87585532746823
0.0,4.887585532746823,4.887585532746823,19.550342130987293,4.887585532746823,9.775171065493646,4.887585532746823
24.437927663734115,48.87585532746823,53.763440860215056,78.20136852394917,19.550342130987293,0.0,9.775171065493646
171.0654936461388,136.85239491691104,151.51515151515153,24.437927663734115,97.75171065493646,53.763440860215056,200.39100684261973
63.53861192570871,14.662756598240469,14.662756598240469,0.0,48.87585532746823,14.662756598240469,185.7282502443793
4.887585532746823,9.775171065493646,4.887585532746823,4.887585532746823,4.887585532746823,117.30205278592375,9.775171065493646
14.662756598240469,9.775171065493646,0.0,39.100684261974585,9.775171065493646,43.98826979472141,4.887585532746823
78.20136852394917,102.63929618768329,83.08895405669598,131.96480938416423,0.0,4.887585532746823,48.87585532746823
151.51515151515153,127.07722385141741,156.40273704789834,19.550342130987293,107.52688172043011,9.775171065493646,244.37927663734115
14.662756598240469,14.662756598240469,14.662756598240469,4.887585532746823,53.763440860215056,141.73998044965788,43.98826979472141
4.887585532746823,4.887585532746823,9.775171065493646,4.887585532746823,19.550342130987293,97.75171065493646,9.775171065493646
0.0,4.887585532746823,0.0,39.100684261974585,9.775171065493646,4.887585532746823,4.887585532746823
127.07722385141741,146.6275659824047,117.30205278592375,83.08895405669598,19.550342130987293,9.775171065493646,117.30205278592375
117.30205278592375,127.07722385141741,87.97653958944282,24.437927663734115,122.18963831867057,141.73998044965788,229.7165200391007
9.775171065493646,9.775171065493646,4.887585532746823,4.887585532746823,9.775171065493646,58.651026392961874,19.550342130987293
9.775171065493646,4.887585532746823,0.0,4.887585532746823,9.775171065493646,4.887585532746823,0.0
29.325513196480937,34.21309872922776,112.41446725317694,24.437927663734115,4.887585532746823,0.0,0.0
171.0654936461388,171.0654936461388,131.96480938416423,112.41446725317694,83.08895405669598,73.31378299120234,195.50342130987292
63.53861192570871,53.763440860215056,19.550342130987293,14.662756598240469,78.20136852394917,97.75171065493646,195.50342130987292
4.887585532746823,0.0,4.887585532746823,9.775171065493646,4.887585532746823,0.0,4.887585532746823
4.887585532746823,0.0,0.0,4.887585532746823,4.887585532746823,4.887585532746823,4.887585532746823
58.651026392961874,102.63929618768329,97.75171065493646,83.08895405669598,0.0,9.775171065493646,29.325513196480937
151.51515151515153,146.6275659824047,53.763440860215056,92.86412512218965,73.31378299120234,166.17790811339196,224.82893450635387
19.550342130987293,14.662756598240469,14.662756598240469,19.550342130987293,141.73998044965788,39.100684261974585,122.18963831867057
4.887585532746823,0.0,0.0,4.887585532746823,14.662756598240469,127.07722385141741,4.887585532746823
0.0,9.775171065493646,0.0,4.887585532746823,9.775171065493646,9.775171065493646,0.0
141.73998044965788,141.73998044965788,146.6275659824047,97.75171065493646,9.775171065493646,0.0,107.52688172043011
127.07722385141741,97.75171065493646,117.30205278592375,53.763440860215056,161.29032258064515,83.08895405669598,229.7165200391007
14.662756598240469,9.775171065493646,4.887585532746823,4.887585532746823,87.97653958944282,68.42619745845552,29.325513196480937
0.0,4.887585532746823,4.887585532746823,9.775171065493646,9.775171065493646,9.775171065493646,0.0
29.325513196480937,48.87585532746823,34.21309872922776,4.887585532746823,0.0,4.887585532746823,0.0
151.51515151515153,156.40273704789834,180.84066471163246,73.31378299120234,19.550342130987293,122.18963831867057,190.6158357771261
78.20136852394917,24.437927663734115,58.651026392961874,39.100684261974585,73.31378299120234,166.17790811339196,200.39100684261973
4.887585532746823,4.887585532746823,0.0,4.887585532746823,39.100684261974585,29.325513196480937,14.662756598240469
4.887585532746823,0.0,0.0,4.887585532746823,9.775171065493646,9.775171065493646,4.887585532746823
87.97653958944282,87.97653958944282,107.52688172043011,9.775171065493646,0.0,0.0,39.100684261974585
146.6275659824047,146.6275659824047,190.6158357771261,83.08895405669598,43.98826979472141,249.26686217008796,215.05376344086022
24.437927663734115,14.662756598240469,29.325513196480937,29.325513196480937,92.86412512218965,29.325513196480937,102.63929618768329
14.662756598240469,9.775171065493646,9.775171065493646,4.887585532746823,19.550342130987293,43.98826979472141,4.887585532746823
9.775171065493646,4.887585532746823,24.437927663734115,4.887585532746823,9.775171065493646,107.52688172043011,0.0
107.52688172043011,112.41446725317694,229.7165200391007,4.887585532746823,9.775171065493646,9.775171065493646,117.30205278592375
127.07722385141741,92.86412512218965,43.98826979472141,92.86412512218965,19.550342130987293,83.08895405669598,234.6041055718475
14.662756598240469,9.775171065493646,14.662756598240469,24.437927663734115,83.08895405669598,53.763440860215056,34.21309872922776
9.775171065493646,0.0,4.887585532746823,9.775171065493646,29.325513196480937,48.87585532746823,9.775171065493646
19.550342130987293,48.87585532746823,14.662756598240469,0.0,4.887585532746823,4.887585532746823,4.887585532746823
171.0654936461388,151.51515151515153,112.41446725317694,4.887585532746823,4.887585532746823,53.763440860215056,175.95307917888564
87.97653958944282,19.550342130987293,78.20136852394917,127.07722385141741,53.763440860215056,29.325513196480937,195.50342130987292
9.775171065493646,4.887585532746823,4.887585532746823,34.21309872922776,92.86412512218965,43.98826979472141,14.662756598240469
4.887585532746823,9.775171065493646,4.887585532746823,4.887585532746823,9.775171065493646,4.887585532746823,9.775171065493646
63.53861192570871,83.08895405669598,73.31378299120234,4.887585532746823,0.0,4.887585532746823,48.87585532746823
161.29032258064515,136.85239491691104,87.97653958944282,4.887585532746823,0.0,156.40273704789834,249.26686217008796
24.437927663734115,14.662756598240469,14.662756598240469,127.07722385141741,48.87585532746823,117.30205278592375,53.763440860215056
0.0,9.775171065493646,0.0,53.763440860215056,58.651026392961874,9.775171065493646,4.887585532746823
9.775171065493646,9.775171065493646,4.887585532746823,4.887585532746823,4.887585532746823,4.887585532746823,4.887585532746823
131.96480938416423,136.85239491691104,92.86412512218965,0.0,0.0,14.662756598240469,175.95307917888564
127.07722385141741,107.52688172043011,131.96480938416423,34.21309872922776,0.0,29.325513196480937,210.16617790811338
9.775171065493646,4.887585532746823,9.775171065493646,107.52688172043011,112.41446725317694,9.775171065493646,9.775171065493646
0.0,9.775171065493646,9.775171065493646,24.437927663734115,68.42619745845552,83.08895405669598,9.775171065493646
14.662756598240469,29.325513196480937,73.31378299120234,9.775171065493646,9.775171065493646,4.887585532746823,24.437927663734115
156.40273704789834,195.50342130987292,122.18963831867057,4.887585532746823,4.887585532746823,9.775171065493646,219.94134897360706
73.31378299120234,48.87585532746823,19.550342130987293,29.325513196480937,87.97653958944282,146.6275659824047,127.07722385141741
4.887585532746823,14.662756598240469,4.887585532746823,68.42619745845552,102.63929618768329,34.21309872922776,9.775171065493646
4.887585532746823,0.0,0.0,19.550342130987293,9.775171065493646,9.775171065493646,0.0
87.97653958944282,39.100684261974585,122.18963831867057,9.775171065493646,0.0,9.775171065493646,87.97653958944282
127.07722385141741,156.40273704789834,78.20136852394917,0.0,0.0,43.98826979472141,244.37927663734115
19.550342130987293,29.325513196480937,19.550342130987293,24.437927663734115,112.41446725317694,34.21309872922776,29.325513196480937
0.0,9.775171065493646,9.775171065493646,102.63929618768329,68.42619745845552,63.53861192570871,9.775171065493646
4.887585532746823,0.0,0.0,24.437927663734115,4.887585532746823,14.662756598240469,0.0
117.30205278592375,68.42619745845552,68.42619745845552,9.775171065493646,4.887585532746823,9.775171065493646,161.29032258064515
117.30205278592375,122.18963831867057,171.0654936461388,4.887585532746823,97.75171065493646,9.775171065493646,195.50342130987292
4.887585532746823,14.662756598240469,14.662756598240469,43.98826979472141,73.31378299120234,53.763440860215056,14.662756598240469
0.0,4.887585532746823,0.0,107.52688172043011,161.29032258064515,68.42619745845552,9.775171065493646
14.662756598240469,0.0,0.0,24.437927663734115,14.662756598240469,4.887585532746823,19.550342130987293
161.29032258064515,141.73998044965788,161.29032258064515,9.775171065493646,4.887585532746823,9.775171065493646,224.82893450635387
107.52688172043011,107.52688172043011,117.30205278592375,4.887585532746823,68.42619745845552,63.53861192570871,151.51515151515153
9.775171065493646,4.887585532746823,4.887585532746823,43.98826979472141,19.550342130987293,53.763440860215056,9.775171065493646
0.0,9.775171065493646,0.0,117.30205278592375,14.662756598240469,9.775171065493646,4.887585532746823
68.42619745845552,29.325513196480937,19.550342130987293,24.437927663734115,0.0,34.21309872922776,92.86412512218965
141.73998044965788,175.95307917888564,122.18963831867057,9.775171065493646,0.0,9.775171065493646,234.6041055718475
29.325513196480937,48.87585532746823,24.437927663734115,9.775171065493646,92.86412512218965,117.30205278592375,29.325513196480937
0.0,0.0,0.0,53.763440860215056,146.6275659824047,102.63929618768329,4.887585532746823
0.0,0.0,9.775171065493646,53.763440860215056,9.775171065493646,9.775171065493646,4.887585532746823
127.07722385141741,107.52688172043011,63.53861192570871,4.887585532746823,4.887585532746823,0.0,175.95307917888564
122.18963831867057,131.96480938416423,87.97653958944282,9.775171065493646,4.887585532746823,205.27859237536657,190.6158357771261
4.887585532746823,14.662756598240469,43.98826979472141,0.0,151.51515151515153,263.92961876832845,19.550342130987293
0.0,9.775171065493646,9.775171065493646,43.98826979472141,34.21309872922776,14.662756598240469,9.775171065493646
19.550342130987293,0.0,0.0,83.08895405669598,9.775171065493646,14.662756598240469,14.662756598240469
166.17790811339196,131.96480938416423,195.50342130987292,4.887585532746823,4.887585532746823,0.0,215.05376344086022
83.08895405669598,112.41446725317694,97.75171065493646,9.775171065493646,9.775171065493646,0.0,146.6275659824047
4.887585532746823,9.775171065493646,4.887585532746823,0.0,146.6275659824047,175.95307917888564,4.887585532746823
4.887585532746823,9.775171065493646,9.775171065493646,68.42619745845552,224.82893450635387,14.662756598240469,4.887585532746823
58.651026392961874,39.100684261974585,14.662756598240469,58.651026392961874,14.662756598240469,4.887585532746823,73.31378299120234
151.51515151515153,166.17790811339196,117.30205278592375,9.775171065493646,0.0,0.0,244.37927663734115
24.437927663734115,63.53861192570871,73.31378299120234,9.775171065493646,102.63929618768329,19.550342130987293,39.100684261974585
9.775171065493646,4.887585532746823,14.662756598240469,0.0,127.07722385141741,92.86412512218965,4.887585532746823
0.0,4.887585532746823,0.0,83.08895405669598,87.97653958944282,83.08895405669598,4.887585532746823
112.41446725317694,63.53861192570871,63.53861192570871,34.21309872922776,4.887585532746823,9.775171065493646,171.0654936461388
127.07722385141741,156.40273704789834,180.84066471163246,4.887585532746823,4.887585532746823,4.887585532746823,200.39100684261973
9.775171065493646,19.550342130987293,19.550342130987293,4.887585532746823,39.100684261974585,210.16617790811338,14.662756598240469
9.775171065493646,4.887585532746823,0.0,19.550342130987293,83.08895405669598,63.53861192570871,4.887585532746823
14.662756598240469,0.0,9.775171065493646,92.86412512218965,9.775171065493646,97.75171065493646,19.550342130987293
141.73998044965788,136.85239491691104,83.08895405669598,29.325513196480937,4.887585532746823,9.775171065493646,200.39100684261973
87.97653958944282,102.63929618768329,151.51515151515153,4.887585532746823,4.887585532746823,136.85239491691104,141.73998044965788
9.775171065493646,4.887585532746823,14.662756598240469,0.0,439.8826979472141,141.73998044965788,4.887585532746823
9.775171065493646,4.887585532746823,4.887585532746823,9.775171065493646,102.63929618768329,151.51515151515153,4.887585532746823
68.42619745845552,24.437927663734115,19.550342130987293,107.52688172043011,9.775171065493646,9.775171065493646,87.97653958944282
156.40273704789834,151.51515151515153,68.42619745845552,34.21309872922776,4.887585532746823,107.52688172043011,234.6041055718475
19.550342130987293,73.31378299120234,146.6275659824047,4.887585532746823,4.887585532746823,117.30205278592375,24.437927663734115
9.775171065493646,9.775171065493646,19.550342130987293,4.887585532746823,156.40273704789834,146.6275659824047,4.887585532746823
4.887585532746823,0.0,0.0,0.0,24.437927663734115,53.763440860215056,9.775171065493646
102.63929618768329,78.20136852394917,9.775171065493646,127.07722385141741,14.662756598240469,58.651026392961874,175.95307917888564
131.96480938416423,136.85239491691104,161.29032258064515,24.437927663734115,63.53861192570871,92.86412512218965,210.16617790811338
9.775171065493646,19.550342130987293,112.41446725317694,14.662756598240469,146.6275659824047,483.8709677419355,19.550342130987293
4.887585532746823,4.887585532746823,14.662756598240469,4.887585532746823,195.50342130987292,210.16617790811338,0.0
9.775171065493646,4.887585532746823,9.775171065493646,0.0,9.775171065493646,175.95307917888564,14.662756598240469
175.95307917888564,122.18963831867057,73.31378299120234,122.18963831867057,9.775171065493646,151.51515151515153,219.94134897360706
107.52688172043011,117.30205278592375,92.86412512218965,34.21309872922776,351.9061583577713,14.662756598240469,166.17790811339196
4.887585532746823,4.887585532746823,9.775171065493646,9.775171065493646,151.51515151515153,913.9784946236559,9.775171065493646
0.0,4.887585532746823,4.887585532746823,0.0,215.05376344086022,728.2502443792766,0.0
58.651026392961874,24.437927663734115,0.0,4.887585532746823,83.08895405669598,48.87585532746823,78.20136852394917
146.6275659824047,171.0654936461388,171.0654936461388,87.97653958944282,29.325513196480937,190.6158357771261,259.04203323558164
29.325513196480937,34.21309872922776,156.40273704789834,24.437927663734115,288.36754643206257,723.3626588465298,29.325513196480937
0.0,4.887585532746823,9.775171065493646,14.662756598240469,161.29032258064515,1182.7956989247311,14.662756598240469
9.775171065493646,4.887585532746823,0.0,14.662756598240469,78.20136852394917,53.763440860215056,4.887585532746823
117.30205278592375,87.97653958944282,14.662756598240469,4.887585532746823,9.775171065493646,733.1378299120234,136.85239491691104
141.73998044965788,156.40273704789834,122.18963831867057,112.41446725317694,239.49169110459434,156.40273704789834,215.05376344086022
14.662756598240469,29.325513196480937,68.42619745845552,68.42619745845552,273.7047898338221,127.07722385141741,19.550342130987293
0.0,4.887585532746823,14.662756598240469,9.775171065493646,24.437927663734115,185.7282502443793,4.887585532746823
14.662756598240469,0.0,4.887585532746823,0.0,4.887585532746823,351.9061583577713,4.887585532746823
156.40273704789834,53.763440860215056,73.31378299120234,34.21309872922776,4.887585532746823,48.87585532746823,205.27859237536657
73.31378299120234,166.17790811339196,102.63929618768329,112.41446725317694,78.20136852394917,1026.392961876833,146.6275659824047
4.887585532746823,24.437927663734115,4.887585532746823,43.98826979472141,488.7585532746823,293.2551319648094,9.775171065493646
4.887585532746823,4.887585532746823,0.0,9.775171065493646,200.39100684261973,679.3743890518084,4.887585532746823
68.42619745845552,0.0,4.887585532746823,0.0,48.87585532746823,180.84066471163246,73.31378299120234
151.51515151515153,151.51515151515153,263.92961876832845,29.325513196480937,200.39100684261973,29.325513196480937,254.15444770283483
24.437927663734115,112.41446725317694,83.08895405669598,92.86412512218965,14.662756598240469,1265.884652981427,39.100684261974585
0.0,9.775171065493646,9.775171065493646,48.87585532746823,4.887585532746823,376.3440860215054,9.775171065493646
9.775171065493646,244.37927663734115,4.887585532746823,4.887585532746823,1065.4936461388074,498.5337243401759,0.0
127.07722385141741,34.21309872922776,34.21309872922776,0.0,48.87585532746823,141.73998044965788,151.51515151515153
136.85239491691104,83.08895405669598,127.07722385141741,87.97653958944282,141.73998044965788,239.49169110459434,210.16617790811338
9.775171065493646,4.887585532746823,24.437927663734115,24.437927663734115,278.5923753665689,361.6813294232649,14.662756598240469
0.0,0.0,4.887585532746823,9.775171065493646,83.08895405669598,1348.9736070381232,4.887585532746823
9.775171065493646,83.08895405669598,4.887585532746823,4.887585532746823,356.7937438905181,259.04203323558164,4.887585532746823
136.85239491691104,259.04203323558164,19.550342130987293,4.887585532746823,24.437927663734115,34.21309872922776,205.27859237536657
102.63929618768329,97.75171065493646,156.40273704789834,83.08895405669598,694.0371456500488,68.42619745845552,151.51515151515153
9.775171065493646,9.775171065493646,117.30205278592375,48.87585532746823,19.550342130987293,171.0654936461388,14.662756598240469
9.775171065493646,14.662756598240469,9.775171065493646,9.775171065493646,219.94134897360706,566.9599217986315,0.0
34.21309872922776,122.18963831867057,9.775171065493646,4.887585532746823,29.325513196480937,962.8543499511242,53.763440860215056
171.0654936461388,102.63929618768329,4.887585532746823,9.775171065493646,53.763440860215056,131.96480938416423,254.15444770283483
39.100684261974585,14.662756598240469,102.63929618768329,97.75171065493646,9.775171065493646,415.44477028347995,43.98826979472141
4.887585532746823,4.887585532746823,97.75171065493646,39.100684261974585,229.7165200391007,239.49169110459434,9.775171065493646
9.775171065493646,9.775171065493646,9.775171065493646,4.887585532746823,92.86412512218965,659.824046920821,4.887585532746823
48.87585532746823,58.651026392961874,0.0,4.887585532746823,371.4565004887586,498.5337243401759,141.73998044965788
156.40273704789834,29.325513196480937,112.41446725317694,9.775171065493646,24.437927663734115,518.0840664711633,219.94134897360706
34.21309872922776,14.662756598240469,136.85239491691104,87.97653958944282,117.30205278592375,371.4565004887586,19.550342130987293
4.887585532746823,0.0,14.662756598240469,53.763440860215056,127.07722385141741,278.5923753665689,0.0
4.887585532746823,4.887585532746823,9.775171065493646,4.887585532746823,9.775171065493646,48.87585532746823,4.887585532746823
112.41446725317694,219.94134897360706,73.31378299120234,9.775171065493646,171.0654936461388,239.49169110459434,205.27859237536657
117.30205278592375,493.6461388074291,43.98826979472141,87.97653958944282,9.775171065493646,845.5522971652003,166.17790811339196
9.775171065493646,68.42619745845552,14.662756598240469,78.20136852394917,14.662756598240469,92.86412512218965,9.775171065493646
4.887585532746823,4.887585532746823,0.0,4.887585532746823,92.86412512218965,767.3509286412512,4.887585532746823
4.887585532746823,483.8709677419355,9.775171065493646,0.0,92.86412512218965,48.87585532746823,58.651026392961874
151.51515151515153,175.95307917888564,39.100684261974585,0.0,14.662756598240469,430.10752688172045,263.92961876832845
83.08895405669598,68.42619745845552,102.63929618768329,53.763440860215056,537.6344086021505,811.3391984359725,43.98826979472141
9.775171065493646,78.20136852394917,29.325513196480937,68.42619745845552,43.98826979472141,454.54545454545456,9.775171065493646
4.887585532746823,122.18963831867057,9.775171065493646,9.775171065493646,107.52688172043011,708.6999022482894,4.887585532746823
48.87585532746823,4.887585532746823,4.887585532746823,0.0,78.20136852394917,244.37927663734115,127.07722385141741
146.6275659824047,4.887585532746823,73.31378299120234,34.21309872922776,9.775171065493646,9.775171065493646,215.05376344086022
34.21309872922776,552.297165200391,156.40273704789834,63.53861192570871,9.775171065493646,557.1847507331378,19.550342130987293
9.775171065493646,879.7653958944283,24.437927663734115,53.763440860215056,107.52688172043011,273.7047898338221,4.887585532746823
4.887585532746823,43.98826979472141,9.775171065493646,4.887585532746823,136.85239491691104,19.550342130987293,9.775171065493646
102.63929618768329,4.887585532746823,4.887585532746823,0.0,4.887585532746823,645.1612903225806,229.7165200391007
156.40273704789834,4.887585532746823,97.75171065493646,39.100684261974585,0.0,219.94134897360706,151.51515151515153
14.662756598240469,0.0,78.20136852394917,102.63929618768329,48.87585532746823,542.5219941348973,4.887585532746823
4.887585532746823,14.662756598240469,117.30205278592375,48.87585532746823,376.3440860215054,474.0957966764418,4.887585532746823
4.887585532746823,19.550342130987293,9.775171065493646,9.775171065493646,293.2551319648094,371.4565004887586,39.100684261974585
127.07722385141741,0.0,19.550342130987293,0.0,24.437927663734115,420.33235581622677,234.6041055718475
205.27859237536657,97.75171065493646,141.73998044965788,73.31378299120234,14.662756598240469,454.54545454545456,87.97653958944282
14.662756598240469,9.775171065493646,24.437927663734115,68.42619745845552,107.52688172043011,376.3440860215054,9.775171065493646
4.887585532746823,78.20136852394917,9.775171065493646,4.887585532746823,29.325513196480937,141.73998044965788,9.775171065493646
39.100684261974585,48.87585532746823,4.887585532746823,0.0,4.887585532746823,366.5689149560117,127.07722385141741
141.73998044965788,9.775171065493646,4.887585532746823,9.775171065493646,4.887585532746823,39.100684261974585,219.94134897360706
63.53861192570871,4.887585532746823,205.27859237536657,87.97653958944282,219.94134897360706,532.7468230694037,19.550342130987293
14.662756598240469,0.0,161.29032258064515,48.87585532746823,151.51515151515153,1583.5777126099706,4.887585532746823
0.0,63.53861192570871,9.775171065493646,9.775171065493646,9.775171065493646,87.97653958944282,4.887585532746823
107.52688172043011,860.2150537634409,4.887585532746823,9.775171065493646,9.775171065493646,1265.884652981427,190.6158357771261
131.96480938416423,78.20136852394917,63.53861192570871,29.325513196480937,83.08895405669598,195.50342130987292,175.95307917888564
19.550342130987293,0.0,53.763440860215056,97.75171065493646,107.52688172043011,112.41446725317694,9.775171065493646
4.887585532746823,4.887585532746823,9.775171065493646,24.437927663734115,14.662756598240469,742.9130009775172,4.887585532746823
9.775171065493646,14.662756598240469,9.775171065493646,4.887585532746823,4.887585532746823,219.94134897360706,34.21309872922776
156.40273704789834,92.86412512218965,4.887585532746823,0.0,9.775171065493646,107.52688172043011,229.7165200391007
107.52688172043011,215.05376344086022,117.30205278592375,78.20136852394917,53.763440860215056,513.1964809384165,87.97653958944282
4.887585532746823,29.325513196480937,112.41446725317694,63.53861192570871,273.7047898338221,97.75171065493646,4.887585532746823
4.887585532746823,53.763440860215056,4.887585532746823,19.550342130987293,73.31378299120234,444.77028347996094,0.0
34.21309872922776,9.775171065493646,9.775171065493646,4.887585532746823,9.775171065493646,654.9364613880742,127.07722385141741
171.0654936461388,0.0,87.97653958944282,0.0,9.775171065493646,767.3509286412512,229.7165200391007
73.31378299120234,0.0,83.08895405669598,48.87585532746823,195.50342130987292,615.8357771260997,24.437927663734115
4.887585532746823,0.0,0.0,4.887585532746823,58.651026392961874,171.0654936461388,9.775171065493646
9.775171065493646,650.0488758553274,9.775171065493646,4.887585532746823,112.41446725317694,39.100684261974585,4.887585532746823
171.0654936461388,532.7468230694037,0.0,4.887585532746823,24.437927663734115,298.14271749755625,210.16617790811338
92.86412512218965,63.53861192570871,190.6158357771261,4.887585532746823,83.08895405669598,562.0723362658846,180.84066471163246
9.775171065493646,796.6764418377321,78.20136852394917,4.887585532746823,68.42619745845552,63.53861192570871,14.662756598240469
58.651026392961874,537.6344086021505,4.887585532746823,78.20136852394917,87.97653958944282,102.63929618768329,9.775171065493646
9.775171065493646,29.325513196480937,0.0,14.662756598240469,0.0,630.4985337243402,43.98826979472141
9.775171065493646,244.37927663734115,9.775171065493646,0.0,0.0,630.4985337243402,239.49169110459434
48.87585532746823,73.31378299120234,87.97653958944282,48.87585532746823,361.6813294232649,97.75171065493646,102.63929618768329
0.0,9.775171065493646,171.0654936461388,625.6109481915934,136.85239491691104,537.6344086021505,0.0
0.0,459.4330400782014,14.662756598240469,83.08895405669598,9.775171065493646,92.86412512218965,4.887585532746823
953.0791788856305,1251.2218963831867,4.887585532746823,14.662756598240469,351.9061583577713,850.4398826979472,107.52688172043011
263.92961876832845,39.100684261974585,29.325513196480937,14.662756598240469,34.21309872922776,43.98826979472141,244.37927663734115
14.662756598240469,0.0,127.07722385141741,78.20136852394917,498.5337243401759,9.775171065493646,29.325513196480937
9.775171065493646,43.98826979472141,68.42619745845552,43.98826979472141,122.18963831867057,635.386119257087,4.887585532746823
4.887585532746823,532.7468230694037,4.887585532746823,9.775171065493646,4.887585532746823,161.29032258064515,4.887585532746823
0.0,263.92961876832845,9.775171065493646,9.775171065493646,293.2551319648094,762.4633431085044,190.6158357771261
34.21309872922776,48.87585532746823,83.08895405669598,9.775171065493646,34.21309872922776,312.8054740957967,180.84066471163246
268.81720430107526,229.7165200391007,171.0654936461388,112.41446725317694,9.775171065493646,68.42619745845552,4.887585532746823
19.550342130987293,14.662756598240469,73.31378299120234,865.1026392961877,9.775171065493646,1055.7184750733138,4.887585532746823
9.775171065493646,689.149560117302,9.775171065493646,102.63929618768329,4.887585532746823,107.52688172043011,39.100684261974585
68.42619745845552,58.651026392961874,0.0,4.887585532746823,288.36754643206257,107.52688172043011,249.26686217008796
102.63929618768329,200.39100684261973,166.17790811339196,4.887585532746823,39.100684261974585,439.8826979472141,117.30205278592375
9.775171065493646,9.775171065493646,117.30205278592375,0.0,210.16617790811338,703.8123167155426,0.0
4.887585532746823,0.0,14.662756598240469,4.887585532746823,14.662756598240469,151.51515151515153,0.0
845.5522971652003,205.27859237536657,4.887585532746823,4.887585532746823,4.887585532746823,562.0723362658846,92.86412512218965
347.0185728250244,229.7165200391007,34.21309872922776,259.04203323558164,131.96480938416423,391.00684261974584,249.26686217008796
24.437927663734115,273.7047898338221,117.30205278592375,874.8778103616814,9.775171065493646,498.5337243401759,24.437927663734115
34.21309872922776,14.662756598240469,14.662756598240469,317.6930596285435,112.41446725317694,43.98826979472141,0.0
4.887585532746823,801.5640273704789,4.887585532746823,39.100684261974585,4.887585532746823,48.87585532746823,4.887585532746823
78.20136852394917,156.40273704789834,0.0,0.0,14.662756598240469,483.8709677419355,215.05376344086022
518.0840664711633,14.662756598240469,0.0,9.775171065493646,112.41446725317694,63.53861192570871,185.7282502443793
24.437927663734115,9.775171065493646,180.84066471163246,224.82893450635387,24.437927663734115,386.119257086999,9.775171065493646
249.26686217008796,449.65786901270775,19.550342130987293,24.437927663734115,4.887585532746823,263.92961876832845,9.775171065493646
24.437927663734115,190.6158357771261,4.887585532746823,0.0,48.87585532746823,532.7468230694037,43.98826979472141
0.0,982.4046920821114,4.887585532746823,762.4633431085044,39.100684261974585,288.36754643206257,229.7165200391007
4.887585532746823,53.763440860215056,117.30205278592375,244.37927663734115,43.98826979472141,14.662756598240469,117.30205278592375
987.2922776148582,24.437927663734115,53.763440860215056,9.775171065493646,141.73998044965788,141.73998044965788,9.775171065493646
694.0371456500488,1285.4349951124145,9.775171065493646,259.04203323558164,14.662756598240469,400.78201368523946,4.887585532746823
24.437927663734115,83.08895405669598,9.775171065493646,703.8123167155426,0.0,219.94134897360706,92.86412512218965
552.297165200391,4.887585532746823,9.775171065493646,9.775171065493646,9.775171065493646,185.7282502443793,249.26686217008796
24.437927663734115,14.662756598240469,131.96480938416423,156.40273704789834,405.6695992179863,141.73998044965788,24.437927663734115
92.86412512218965,1309.8729227761485,87.97653958944282,532.7468230694037,68.42619745845552,14.662756598240469,4.887585532746823
146.6275659824047,58.651026392961874,14.662756598240469,674.4868035190616,19.550342130987293,1060.6060606060607,9.775171065493646
14.662756598240469,29.325513196480937,0.0,205.27859237536657,151.51515151515153,92.86412512218965,175.95307917888564
537.6344086021505,0.0,48.87585532746823,102.63929618768329,205.27859237536657,215.05376344086022,195.50342130987292
14.662756598240469,9.775171065493646,127.07722385141741,4.887585532746823,14.662756598240469,97.75171065493646,4.887585532746823
0.0,1246.3343108504398,24.437927663734115,127.07722385141741,0.0,122.18963831867057,4.887585532746823
185.7282502443793,786.9012707722385,0.0,4.887585532746823,4.887585532746823,19.550342130987293,34.21309872922776
454.54545454545456,131.96480938416423,0.0,0.0,87.97653958944282,474.0957966764418,229.7165200391007
29.325513196480937,92.86412512218965,78.20136852394917,332.35581622678393,249.26686217008796,596.2854349951125,107.52688172043011
224.82893450635387,24.437927663734115,141.73998044965788,39.100684261974585,175.95307917888564,63.53861192570871,4.887585532746823
171.0654936461388,400.78201368523946,24.437927663734115,14.662756598240469,14.662756598240469,9.775171065493646,4.887585532746823
9.775171065493646,263.92961876832845,0.0,518.0840664711633,4.887585532746823,195.50342130987292,87.97653958944282
391.00684261974584,161.29032258064515,0.0,586.5102639296188,83.08895405669598,239.49169110459434,229.7165200391007
34.21309872922776,131.96480938416423,117.30205278592375,19.550342130987293,263.92961876832845,53.763440860215056,24.437927663734115
73.31378299120234,4.887585532746823,78.20136852394917,9.775171065493646,14.662756598240469,782.0136852394917,9.775171065493646
273.7047898338221,0.0,9.775171065493646,234.6041055718475,122.18963831867057,146.6275659824047,9.775171065493646
24.437927663734115,127.07722385141741,0.0,14.662756598240469,161.29032258064515,19.550342130987293,175.95307917888564
0.0,434.99511241446726,83.08895405669598,215.05376344086022,43.98826979472141,610.9481915933529,185.7282502443793
200.39100684261973,19.550342130987293,180.84066471163246,39.100684261974585,24.437927663734115,131.96480938416423,14.662756598240469
19.550342130987293,1246.3343108504398,43.98826979472141,171.0654936461388,19.550342130987293,68.42619745845552,9.775171065493646
821.1143695014663,29.325513196480937,9.775171065493646,112.41446725317694,4.887585532746823,107.52688172043011,19.550342130987293
34.21309872922776,9.775171065493646,29.325513196480937,92.86412512218965,239.49169110459434,464.3206256109482,215.05376344086022
166.17790811339196,796.6764418377321,48.87585532746823,835.7771260997067,14.662756598240469,161.29032258064515,127.07722385141741
9.775171065493646,151.51515151515153,288.36754643206257,117.30205278592375,200.39100684261973,938.41642228739,9.775171065493646
24.437927663734115,19.550342130987293,19.550342130987293,161.29032258064515,24.437927663734115,122.18963831867057,0.0
278.5923753665689,83.08895405669598,107.52688172043011,14.662756598240469,4.887585532746823,498.5337243401759,102.63929618768329
68.42619745845552,19.550342130987293,9.775171065493646,29.325513196480937,29.325513196480937,195.50342130987292,249.26686217008796
48.87585532746823,1089.9315738025416,131.96480938416423,102.63929618768329,34.21309872922776,171.0654936461388,29.325513196480937
78.20136852394917,43.98826979472141,386.119257086999,14.662756598240469,14.662756598240469,122.18963831867057,4.887585532746823
117.30205278592375,4.887585532746823,48.87585532746823,254.15444770283483,97.75171065493646,122.18963831867057,0.0
63.53861192570871,92.86412512218965,9.775171065493646,571.8475073313783,4.887585532746823,151.51515151515153,171.0654936461388
4.887585532746823,400.78201368523946,180.84066471163246,14.662756598240469,107.52688172043011,14.662756598240469,215.05376344086022
430.10752688172045,29.325513196480937,92.86412512218965,171.0654936461388,19.550342130987293,39.100684261974585,14.662756598240469
92.86412512218965,19.550342130987293,34.21309872922776,454.54545454545456,4.887585532746823,4.887585532746823,9.775171065493646
4.887585532746823,9.775171065493646,190.6158357771261,400.78201368523946,0.0,879.7653958944283,39.100684261974585
0.0,180.84066471163246,29.325513196480937,39.100684261974585,43.98826979472141,229.7165200391007,219.94134897360706
376.3440860215054,229.7165200391007,146.6275659824047,9.775171065493646,4.887585532746823,97.75171065493646,127.07722385141741
439.8826979472141,14.662756598240469,342.1309872922776,498.5337243401759,136.85239491691104,58.651026392961874,14.662756598240469
87.97653958944282,0.0,24.437927663734115,29.325513196480937,19.550342130987293,141.73998044965788,9.775171065493646
9.775171065493646,703.8123167155426,43.98826979472141,166.17790811339196,107.52688172043011,19.550342130987293,83.08895405669598
58.651026392961874,361.6813294232649,430.10752688172045,136.85239491691104,14.662756598240469,591.3978494623656,249.26686217008796
43.98826979472141,322.5806451612903,34.21309872922776,733.1378299120234,9.775171065493646,58.651026392961874,24.437927663734115
767.3509286412512,43.98826979472141,156.40273704789834,107.52688172043011,87.97653958944282,34.21309872922776,9.775171065493646
171.0654936461388,185.7282502443793,92.86412512218965,9.775171065493646,48.87585532746823,19.550342130987293,0.0
14.662756598240469,425.2199413489736,9.775171065493646,483.8709677419355,4.887585532746823,34.21309872922776,166.17790811339196
9.775171065493646,19.550342130987293,263.92961876832845,855.327468230694,87.97653958944282,332.35581622678393,185.7282502443793
19.550342130987293,928.6412512218964,493.6461388074291,24.437927663734115,73.31378299120234,532.7468230694037,9.775171065493646
9.775171065493646,39.100684261974585,24.437927663734115,136.85239491691104,4.887585532746823,24.437927663734115,0.0
24.437927663734115,371.4565004887586,9.775171065493646,1246.3343108504398,0.0,97.75171065493646,19.550342130987293
175.95307917888564,166.17790811339196,136.85239491691104,34.21309872922776,73.31378299120234,356.7937438905181,205.27859237536657
141.73998044965788,9.775171065493646,141.73998044965788,1554.2521994134897,224.82893450635387,474.0957966764418,146.6275659824047
19.550342130987293,73.31378299120234,9.775171065493646,48.87585532746823,34.21309872922776,43.98826979472141,9.775171065493646
14.662756598240469,195.50342130987292,14.662756598240469,566.9599217986315,4.887585532746823,9.775171065493646,0.0
4.887585532746823,43.98826979472141,180.84066471163246,48.87585532746823,224.82893450635387,166.17790811339196,78.20136852394917
547.4095796676442,9.775171065493646,488.7585532746823,234.6041055718475,24.437927663734115,141.73998044965788,244.37927663734115
39.100684261974585,9.775171065493646,107.52688172043011,19.550342130987293,14.662756598240469,131.96480938416423,34.21309872922776
4.887585532746823,161.29032258064515,131.96480938416423,136.85239491691104,87.97653958944282,48.87585532746823,0.0
278.5923753665689,141.73998044965788,131.96480938416423,796.6764418377321,34.21309872922776,29.325513196480937,4.887585532746823
19.550342130987293,29.325513196480937,9.775171065493646,73.31378299120234,4.887585532746823,141.73998044965788,156.40273704789834
234.6041055718475,0.0,117.30205278592375,254.15444770283483,48.87585532746823,205.27859237536657,215.05376344086022
29.325513196480937,9.775171065493646,19.550342130987293,136.85239491691104,53.763440860215056,180.84066471163246,19.550342130987293
4.887585532746823,83.08895405669598,615.8357771260997,288.36754643206257,9.775171065493646,9.775171065493646,4.887585532746823
4.887585532746823,371.4565004887586,200.39100684261973,24.437927663734115,14.662756598240469,107.52688172043011,4.887585532746823
0.0,34.21309872922776,53.763440860215056,43.98826979472141,43.98826979472141,1060.6060606060607,210.16617790811338
913.9784946236559,136.85239491691104,39.100684261974585,894.4281524926687,4.887585532746823,58.651026392961874,156.40273704789834
39.100684261974585,53.763440860215056,669.5992179863147,205.27859237536657,4.887585532746823,43.98826979472141,9.775171065493646
4.887585532746823,293.2551319648094,131.96480938416423,9.775171065493646,14.662756598240469,136.85239491691104,4.887585532746823
0.0,14.662756598240469,87.97653958944282,659.824046920821,0.0,92.86412512218965,78.20136852394917
219.94134897360706,9.775171065493646,9.775171065493646,215.05376344086022,0.0,185.7282502443793,254.15444770283483
386.119257086999,439.8826979472141,239.49169110459434,117.30205278592375,322.5806451612903,14.662756598240469,34.21309872922776
29.325513196480937,571.8475073313783,381.2316715542522,24.437927663734115,53.763440860215056,391.00684261974584,9.775171065493646
4.887585532746823,39.100684261974585,39.100684261974585,244.37927663734115,131.96480938416423,87.97653958944282,0.0
9.775171065493646,4.887585532746823,391.00684261974584,444.77028347996094,9.775171065493646,43.98826979472141,151.51515151515153
9.775171065493646,4.887585532746823,73.31378299120234,107.52688172043011,14.662756598240469,552.297165200391,210.16617790811338
342.1309872922776,0.0,180.84066471163246,444.77028347996094,4.887585532746823,347.0185728250244,19.550342130987293
102.63929618768329,395.89442815249265,483.8709677419355,190.6158357771261,14.662756598240469,19.550342130987293,0.0
78.20136852394917,361.6813294232649,24.437927663734115,259.04203323558164,200.39100684261973,87.97653958944282,9.775171065493646
14.662756598240469,19.550342130987293,175.95307917888564,219.94134897360706,19.550342130987293,219.94134897360706,210.16617790811338
0.0,83.08895405669598,14.662756598240469,107.52688172043011,9.775171065493646,92.86412512218965,141.73998044965788
4.887585532746823,327.4682306940371,347.0185728250244,53.763440860215056,48.87585532746823,122.18963831867057,9.775171065493646
317.6930596285435,215.05376344086022,166.17790811339196,14.662756598240469,14.662756598240469,53.763440860215056,4.887585532746823
29.325513196480937,14.662756598240469,503.42130987292273,288.36754643206257,117.30205278592375,263.92961876832845,78.20136852394917
34.21309872922776,0.0,249.26686217008796,757.5757575757576,29.325513196480937,92.86412512218965,268.81720430107526
24.437927663734115,4.887585532746823,254.15444770283483,19.550342130987293,14.662756598240469,4.887585532746823,34.21309872922776
234.6041055718475,92.86412512218965,210.16617790811338,87.97653958944282,83.08895405669598,351.9061583577713,9.775171065493646
14.662756598240469,263.92961876832845,83.08895405669598,997.0674486803518,175.95307917888564,102.63929618768329,0.0
58.651026392961874,19.550342130987293,527.8592375366569,171.0654936461388,14.662756598240469,9.775171065493646,127.07722385141741
322.5806451612903,0.0,29.325513196480937,552.297165200391,4.887585532746823,205.27859237536657,219.94134897360706
34.21309872922776,19.550342130987293,205.27859237536657,156.40273704789834,136.85239491691104,24.437927663734115,34.21309872922776
14.662756598240469,464.3206256109482,19.550342130987293,53.763440860215056,24.437927663734115,210.16617790811338,4.887585532746823
87.97653958944282,83.08895405669598,405.6695992179863,288.36754643206257,0.0,29.325513196480937,14.662756598240469
63.53861192570871,4.887585532746823,58.651026392961874,166.17790811339196,0.0,782.0136852394917,205.27859237536657
78.20136852394917,43.98826979472141,307.91788856304987,4.887585532746823,0.0,263.92961876832845,151.51515151515153
73.31378299120234,87.97653958944282,43.98826979472141,2057.673509286413,78.20136852394917,48.87585532746823,14.662756598240469
9.775171065493646,356.7937438905181,728.2502443792766,122.18963831867057,161.29032258064515,356.7937438905181,4.887585532746823
19.550342130987293,34.21309872922776,293.2551319648094,464.3206256109482,19.550342130987293,19.550342130987293,63.53861192570871
34.21309872922776,9.775171065493646,78.20136852394917,43.98826979472141,4.887585532746823,645.1612903225806,259.04203323558164
131.96480938416423,4.887585532746823,39.100684261974585,933.5288367546432,166.17790811339196,78.20136852394917,39.100684261974585
97.75171065493646,112.41446725317694,376.3440860215054,356.7937438905181,53.763440860215056,146.6275659824047,9.775171065493646
14.662756598240469,122.18963831867057,239.49169110459434,97.75171065493646,4.887585532746823,63.53861192570871,4.887585532746823
9.775171065493646,146.6275659824047,141.73998044965788,259.04203323558164,415.44477028347995,185.7282502443793,136.85239491691104
34.21309872922776,131.96480938416423,156.40273704789834,39.100684261974585,19.550342130987293,122.18963831867057,195.50342130987292
400.78201368523946,9.775171065493646,63.53861192570871,449.65786901270775,102.63929618768329,24.437927663734115,19.550342130987293
146.6275659824047,728.2502443792766,474.0957966764418,92.86412512218965,122.18963831867057,131.96480938416423,4.887585532746823
4.887585532746823,263.92961876832845,122.18963831867057,586.5102639296188,43.98826979472141,386.119257086999,9.775171065493646
4.887585532746823,24.437927663734115,4.887585532746823,63.53861192570871,14.662756598240469,53.763440860215056,205.27859237536657
459.4330400782014,112.41446725317694,527.8592375366569,4.887585532746823,0.0,9.775171065493646,151.51515151515153
39.100684261974585,161.29032258064515,195.50342130987292,0.0,161.29032258064515,87.97653958944282,14.662756598240469
4.887585532746823,9.775171065493646,97.75171065493646,933.5288367546432,9.775171065493646,83.08895405669598,9.775171065493646
4.887585532746823,4.887585532746823,34.21309872922776,122.18963831867057,63.53861192570871,303.03030303030306,48.87585532746823
156.40273704789834,190.6158357771261,48.87585532746823,78.20136852394917,180.84066471163246,48.87585532746823,259.04203323558164
39.100684261974585,107.52688172043011,136.85239491691104,591.3978494623656,102.63929618768329,347.0185728250244,34.21309872922776
283.47996089931576,19.550342130987293,78.20136852394917,967.741935483871,156.40273704789834,58.651026392961874,0.0
19.550342130987293,4.887585532746823,215.05376344086022,34.21309872922776,9.775171065493646,122.18963831867057,4.887585532746823
156.40273704789834,161.29032258064515,53.763440860215056,136.85239491691104,4.887585532746823,34.21309872922776,127.07722385141741
78.20136852394917,34.21309872922776,24.437927663734115,43.98826979472141,9.775171065493646,351.9061583577713,210.16617790811338
39.100684261974585,322.5806451612903,332.35581622678393,34.21309872922776,4.887585532746823,24.437927663734115,14.662756598240469
9.775171065493646,34.21309872922776,53.763440860215056,356.7937438905181,48.87585532746823,410.55718475073314,0.0
161.29032258064515,4.887585532746823,34.21309872922776,190.6158357771261,14.662756598240469,215.05376344086022,0.0
107.52688172043011,439.8826979472141,811.3391984359725,19.550342130987293,14.662756598240469,14.662756598240469,210.16617790811338
63.53861192570871,53.763440860215056,58.651026392961874,78.20136852394917,4.887585532746823,4.887585532746823,171.0654936461388
39.100684261974585,288.36754643206257,29.325513196480937,1319.648093841642,107.52688172043011,263.92961876832845,9.775171065493646
4.887585532746823,293.2551319648094,83.08895405669598,97.75171065493646,19.550342130987293,205.27859237536657,14.662756598240469
4.887585532746823,141.73998044965788,185.7282502443793,156.40273704789834,4.887585532746823,112.41446725317694,68.42619745845552
92.86412512218965,9.775171065493646,415.44477028347995,34.21309872922776,24.437927663734115,303.03030303030306,259.04203323558164
278.5923753665689,215.05376344086022,83.08895405669598,185.7282502443793,4.887585532746823,244.37927663734115,39.100684261974585
14.662756598240469,234.6041055718475,9.775171065493646,4.887585532746823,166.17790811339196,53.763440860215056,4.887585532746823
0.0,24.437927663734115,259.04203323558164,146.6275659824047,58.651026392961874,39.100684261974585,0.0
9.775171065493646,9.775171065493646,78.20136852394917,469.208211143695,14.662756598240469,9.775171065493646,122.18963831867057
356.7937438905181,278.5923753665689,283.47996089931576,78.20136852394917,14.662756598240469,161.29032258064515,234.6041055718475
34.21309872922776,229.7165200391007,14.662756598240469,19.550342130987293,53.763440860215056,337.2434017595308,29.325513196480937
4.887585532746823,4.887585532746823,156.40273704789834,112.41446725317694,43.98826979472141,48.87585532746823,0.0
4.887585532746823,4.887585532746823,518.0840664711633,327.4682306940371,117.30205278592375,117.30205278592375,4.887585532746823
63.53861192570871,195.50342130987292,34.21309872922776,171.0654936461388,14.662756598240469,146.6275659824047,171.0654936461388
29.325513196480937,215.05376344086022,112.41446725317694,14.662756598240469,239.49169110459434,68.42619745845552,180.84066471163246
9.775171065493646,39.100684261974585,9.775171065493646,19.550342130987293,48.87585532746823,224.82893450635387,14.662756598240469
4.887585532746823,4.887585532746823,391.00684261974584,532.7468230694037,87.97653958944282,478.9833822091887,0.0
156.40273704789834,195.50342130987292,195.50342130987292,215.05376344086022,24.437927663734115,29.325513196480937,68.42619745845552
219.94134897360706,156.40273704789834,19.550342130987293,180.84066471163246,131.96480938416423,210.16617790811338,259.04203323558164
146.6275659824047,293.2551319648094,205.27859237536657,356.7937438905181,78.20136852394917,410.55718475073314,43.98826979472141
14.662756598240469,24.437927663734115,48.87585532746823,200.39100684261973,29.325513196480937,102.63929618768329,9.775171065493646
0.0,19.550342130987293,102.63929618768329,43.98826979472141,87.97653958944282,29.325513196480937,0.0
498.5337243401759,39.100684261974585,117.30205278592375,131.96480938416423,0.0,566.9599217986315,122.18963831867057
141.73998044965788,73.31378299120234,92.86412512218965,151.51515151515153,4.887585532746823,29.325513196480937,234.6041055718475
39.100684261974585,87.97653958944282,4.887585532746823,303.03030303030306,136.85239491691104,83.08895405669598,29.325513196480937
9.775171065493646,342.1309872922776,175.95307917888564,24.437927663734115,136.85239491691104,141.73998044965788,9.775171065493646
4.887585532746823,718.475073313783,24.437927663734115,234.6041055718475,9.775171065493646,244.37927663734115,4.887585532746823
4.887585532746823,29.325513196480937,4.887585532746823,478.9833822091887,4.887585532746823,53.763440860215056,210.16617790811338
112.41446725317694,9.775171065493646,166.17790811339196,48.87585532746823,43.98826979472141,29.325513196480937,175.95307917888564
400.78201368523946,19.550342130987293,630.4985337243402,127.07722385141741,34.21309872922776,9.775171065493646,4.887585532746823
24.437927663734115,48.87585532746823,166.17790811339196,127.07722385141741,87.97653958944282,738.0254154447704,4.887585532746823
0.0,97.75171065493646,78.20136852394917,19.550342130987293,53.763440860215056,166.17790811339196,48.87585532746823
34.21309872922776,190.6158357771261,14.662756598240469,591.3978494623656,4.887585532746823,112.41446725317694,254.15444770283483
9.775171065493646,14.662756598240469,415.44477028347995,24.437927663734115,34.21309872922776,53.763440860215056,43.98826979472141
156.40273704789834,200.39100684261973,210.16617790811338,215.05376344086022,29.325513196480937,151.51515151515153,9.775171065493646
87.97653958944282,24.437927663734115,9.775171065493646,254.15444770283483,9.775171065493646,229.7165200391007,0.0
4.887585532746823,19.550342130987293,4.887585532746823,24.437927663734115,14.662756598240469,180.84066471163246,117.30205278592375
122.18963831867057,58.651026392961874,97.75171065493646,87.97653958944282,4.887585532746823,73.31378299120234,229.7165200391007
342.1309872922776,39.100684261974585,229.7165200391007,376.3440860215054,161.29032258064515,131.96480938416423,19.550342130987293
24.437927663734115,239.49169110459434,102.63929618768329,78.20136852394917,92.86412512218965,68.42619745845552,9.775171065493646
0.0,224.82893450635387,9.775171065493646,850.4398826979472,29.325513196480937,131.96480938416423,4.887585532746823
48.87585532746823,24.437927663734115,9.775171065493646,34.21309872922776,0.0,679.3743890518084,185.7282502443793
303.03030303030306,4.887585532746823,283.47996089931576,39.100684261974585,34.21309872922776,19.550342130987293,166.17790811339196
19.550342130987293,0.0,366.5689149560117,63.53861192570871,122.18963831867057,522.9716520039101,9.775171065493646
4.887585532746823,141.73998044965788,29.325513196480937,366.5689149560117,63.53861192570871,87.97653958944282,0.0
586.5102639296188,14.662756598240469,83.08895405669598,19.550342130987293,34.21309872922776,34.21309872922776,48.87585532746823
78.20136852394917,356.7937438905181,347.0185728250244,4.887585532746823,4.887585532746823,14.662756598240469,239.49169110459434
19.550342130987293,63.53861192570871,107.52688172043011,53.763440860215056,34.21309872922776,395.89442815249265,43.98826979472141
4.887585532746823,4.887585532746823,29.325513196480937,161.29032258064515,239.49169110459434,122.18963831867057,9.775171065493646
4.887585532746823,161.29032258064515,312.8054740957967,19.550342130987293,43.98826979472141,92.86412512218965,0.0
156.40273704789834,156.40273704789834,19.550342130987293,557.1847507331378,4.887585532746823,434.99511241446726,102.63929618768329
39.100684261974585,14.662756598240469,205.27859237536657,112.41446725317694,9.775171065493646,215.05376344086022,239.49169110459434
229.7165200391007,0.0,112.41446725317694,87.97653958944282,9.775171065493646,205.27859237536657,24.437927663734115
14.662756598240469,4.887585532746823,39.100684261974585,9.775171065493646,210.16617790811338,19.550342130987293,4.887585532746823
4.887585532746823,654.9364613880742,83.08895405669598,371.4565004887586,190.6158357771261,97.75171065493646,4.887585532746823
351.9061583577713,39.100684261974585,263.92961876832845,29.325513196480937,14.662756598240469,366.5689149560117,171.0654936461388
107.52688172043011,4.887585532746823,39.100684261974585,4.887585532746823,0.0,312.8054740957967,205.27859237536657
14.662756598240469,63.53861192570871,14.662756598240469,73.31378299120234,39.100684261974585,14.662756598240469,14.662756598240469
0.0,210.16617790811338,19.550342130987293,395.89442815249265,156.40273704789834,425.2199413489736,4.887585532746823
263.92961876832845,9.775171065493646,107.52688172043011,117.30205278592375,68.42619745845552,156.40273704789834,39.100684261974585
234.6041055718475,356.7937438905181,131.96480938416423,312.8054740957967,4.887585532746823,68.42619745845552,239.49169110459434
9.775171065493646,19.550342130987293,391.00684261974584,376.3440860215054,4.887585532746823,244.37927663734115,97.75171065493646
9.775171065493646,102.63929618768329,43.98826979472141,146.6275659824047,224.82893450635387,14.662756598240469,4.887585532746823
0.0,4.887585532746823,4.887585532746823,14.662756598240469,39.100684261974585,200.39100684261973,4.887585532746823
122.18963831867057,215.05376344086022,68.42619745845552,19.550342130987293,9.775171065493646,332.35581622678393,112.41446725317694
97.75171065493646,9.775171065493646,63.53861192570871,395.89442815249265,0.0,92.86412512218965,239.49169110459434
63.53861192570871,14.662756598240469,298.14271749755625,249.26686217008796,14.662756598240469,9.775171065493646,24.437927663734115
9.775171065493646,14.662756598240469,39.100684261974585,9.775171065493646,83.08895405669598,9.775171065493646,9.775171065493646
14.662756598240469,249.26686217008796,63.53861192570871,278.5923753665689,171.0654936461388,762.4633431085044,4.887585532746823
552.297165200391,34.21309872922776,185.7282502443793,405.6695992179863,9.775171065493646,34.21309872922776,180.84066471163246
39.100684261974585,14.662756598240469,166.17790811339196,73.31378299120234,0.0,19.550342130987293,175.95307917888564
9.775171065493646,263.92961876832845,9.775171065493646,73.31378299120234,4.887585532746823,39.100684261974585,14.662756598240469
4.887585532746823,219.94134897360706,24.437927663734115,39.100684261974585,459.4330400782014,219.94134897360706,4.887585532746823
53.763440860215056,14.662756598240469,156.40273704789834,141.73998044965788,131.96480938416423,122.18963831867057,29.325513196480937
210.16617790811338,78.20136852394917,200.39100684261973,410.55718475073314,9.775171065493646,43.98826979472141,229.7165200391007
9.775171065493646,107.52688172043011,97.75171065493646,43.98826979472141,4.887585532746823,68.42619745845552,122.18963831867057
0.0,4.887585532746823,4.887585532746823,395.89442815249265,146.6275659824047,127.07722385141741,4.887585532746823
63.53861192570871,166.17790811339196,14.662756598240469,68.42619745845552,29.325513196480937,14.662756598240469,0.0
806.4516129032257,469.208211143695,278.5923753665689,141.73998044965788,161.29032258064515,19.550342130987293,107.52688172043011
58.651026392961874,24.437927663734115,303.03030303030306,19.550342130987293,19.550342130987293,268.81720430107526,249.26686217008796
4.887585532746823,234.6041055718475,19.550342130987293,708.6999022482894,0.0,83.08895405669598,19.550342130987293
0.0,312.8054740957967,58.651026392961874,73.31378299120234,43.98826979472141,29.325513196480937,9.775171065493646
386.119257086999,19.550342130987293,244.37927663734115,9.775171065493646,19.550342130987293,410.55718475073314,0.0
317.6930596285435,4.887585532746823,78.20136852394917,415.44477028347995,112.41446725317694,488.7585532746823,180.84066471163246
19.550342130987293,24.437927663734115,4.887585532746823,68.42619745845552,34.21309872922776,122.18963831867057,205.27859237536657
9.775171065493646,14.662756598240469,522.9716520039101,146.6275659824047,14.662756598240469,53.763440860215056,9.775171065493646
43.98826979472141,87.97653958944282,337.2434017595308,503.42130987292273,58.651026392961874,498.5337243401759,4.887585532746823
122.18963831867057,391.00684261974584,68.42619745845552,34.21309872922776,78.20136852394917,4.887585532746823,24.437927663734115
24.437927663734115,19.550342130987293,713.5874877810362,141.73998044965788,4.887585532746823,1016.6177908113393,219.94134897360706
0.0,9.775171065493646,146.6275659824047,14.662756598240469,0.0,234.6041055718475,161.29032258064515
92.86412512218965,146.6275659824047,161.29032258064515,112.41446725317694,0.0,83.08895405669598,14.662756598240469
112.41446725317694,14.662756598240469,14.662756598240469,205.27859237536657,122.18963831867057,9.775171065493646,9.775171065493646
58.651026392961874,4.887585532746823,68.42619745845552,43.98826979472141,43.98826979472141,34.21309872922776,83.08895405669598
9.775171065493646,322.5806451612903,14.662756598240469,4.887585532746823,14.662756598240469,112.41446725317694,244.37927663734115
0.0,249.26686217008796,215.05376344086022,78.20136852394917,9.775171065493646,87.97653958944282,34.21309872922776
29.325513196480937,112.41446725317694,650.0488758553274,351.9061583577713,29.325513196480937,518.0840664711633,4.887585532746823
503.42130987292273,43.98826979472141,43.98826979472141,156.40273704789834,146.6275659824047,19.550342130987293,0.0
58.651026392961874,9.775171065493646,19.550342130987293,58.651026392961874,185.7282502443793,190.6158357771261,146.6275659824047
4.887585532746823,19.550342130987293,166.17790811339196,175.95307917888564,14.662756598240469,141.73998044965788,205.27859237536657
4.887585532746823,9.775171065493646,102.63929618768329,161.29032258064515,9.775171065493646,24.437927663734115,14.662756598240469
464.3206256109482,4.887585532746823,703.8123167155426,127.07722385141741,39.100684261974585,376.3440860215054,4.887585532746823
122.18963831867057,342.1309872922776,24.437927663734115,29.325513196480937,117.30205278592375,122.18963831867057,29.325513196480937
4.887585532746823,34.21309872922776,24.437927663734115,4.887585532746823,166.17790811339196,63.53861192570871,215.05376344086022
112.41446725317694,9.775171065493646,234.6041055718475,83.08895405669598,14.662756598240469,107.52688172043011,151.51515151515153
4.887585532746823,0.0,532.7468230694037,268.81720430107526,92.86412512218965,141.73998044965788,14.662756598240469
332.35581622678393,58.651026392961874,63.53861192570871,29.325513196480937,53.763440860215056,112.41446725317694,9.775171065493646
151.51515151515153,14.662756598240469,97.75171065493646,102.63929618768329,239.49169110459434,68.42619745845552,83.08895405669598
9.775171065493646,356.7937438905181,601.1730205278593,9.775171065493646,9.775171065493646,19.550342130987293,239.49169110459434
4.887585532746823,112.41446725317694,1265.884652981427,63.53861192570871,4.887585532746823,53.763440860215056,29.325513196480937
136.85239491691104,166.17790811339196,200.39100684261973,107.52688172043011,29.325513196480937,9.775171065493646,0.0
127.07722385141741,92.86412512218965,107.52688172043011,107.52688172043011,293.2551319648094,117.30205278592375,9.775171065493646
24.437927663734115,9.775171065493646,273.7047898338221,4.887585532746823,39.100684261974585,400.78201368523946,166.17790811339196
4.887585532746823,97.75171065493646,58.651026392961874,9.775171065493646,14.662756598240469,19.550342130987293,210.16617790811338
4.887585532746823,73.31378299120234,791.7888563049853,48.87585532746823,0.0,826.0019550342131,14.662756598240469
0.0,205.27859237536657,307.91788856304987,68.42619745845552,4.887585532746823,351.9061583577713,9.775171065493646
224.82893450635387,4.887585532746823,19.550342130987293,19.550342130987293,146.6275659824047,24.437927663734115,29.325513196480937
175.95307917888564,73.31378299120234,4.887585532746823,259.04203323558164,43.98826979472141,4.887585532746823,234.6041055718475
43.98826979472141,78.20136852394917,420.33235581622677,586.5102639296188,4.887585532746823,102.63929618768329,141.73998044965788
4.887585532746823,63.53861192570871,24.437927663734115,24.437927663734115,0.0,48.87585532746823,9.775171065493646
19.550342130987293,19.550342130987293,87.97653958944282,9.775171065493646,14.662756598240469,117.30205278592375,4.887585532746823
122.18963831867057,92.86412512218965,180.84066471163246,400.78201368523946,293.2551319648094,195.50342130987292,97.75171065493646
58.651026392961874,24.437927663734115,19.550342130987293,215.05376344086022,73.31378299120234,112.41446725317694,254.15444770283483
0.0,195.50342130987292,87.97653958944282,78.20136852394917,4.887585532746823,43.98826979472141,39.100684261974585
19.550342130987293,58.651026392961874,190.6158357771261,9.775171065493646,4.887585532746823,34.21309872922776,4.887585532746823
156.40273704789834,9.775171065493646,58.651026392961874,127.07722385141741,254.15444770283483,175.95307917888564,0.0
39.100684261974585,0.0,63.53861192570871,483.8709677419355,43.98826979472141,283.47996089931576,161.29032258064515
4.887585532746823,127.07722385141741,180.84066471163246,34.21309872922776,97.75171065493646,9.775171065493646,215.05376344086022
102.63929618768329,293.2551319648094,53.763440860215056,4.887585532746823,14.662756598240469,1119.2570869990225,14.662756598240469
117.30205278592375,34.21309872922776,386.119257086999,29.325513196480937,9.775171065493646,131.96480938416423,0.0
386.119257086999,9.775171065493646,293.2551319648094,9.775171065493646,68.42619745845552,117.30205278592375,14.662756598240469
24.437927663734115,0.0,361.6813294232649,469.208211143695,9.775171065493646,4.887585532746823,205.27859237536657
0.0,293.2551319648094,107.52688172043011,112.41446725317694,117.30205278592375,254.15444770283483,146.6275659824047
48.87585532746823,190.6158357771261,156.40273704789834,29.325513196480937,9.775171065493646,112.41446725317694,4.887585532746823
219.94134897360706,29.325513196480937,738.0254154447704,4.887585532746823,92.86412512218965,43.98826979472141,0.0
53.763440860215056,4.887585532746823,156.40273704789834,34.21309872922776,136.85239491691104,92.86412512218965,73.31378299120234
4.887585532746823,53.763440860215056,171.0654936461388,234.6041055718475,14.662756598240469,151.51515151515153,263.92961876832845
4.887585532746823,4.887585532746823,102.63929618768329,68.42619745845552,4.887585532746823,420.33235581622677,29.325513196480937
175.95307917888564,322.5806451612903,4.887585532746823,9.775171065493646,4.887585532746823,53.763440860215056,4.887585532746823
571.8475073313783,29.325513196480937,371.4565004887586,4.887585532746823,273.7047898338221,53.763440860215056,0.0
19.550342130987293,9.775171065493646,210.16617790811338,415.44477028347995,175.95307917888564,141.73998044965788,151.51515151515153
4.887585532746823,4.887585532746823,4.887585532746823,53.763440860215056,9.775171065493646,58.651026392961874,219.94134897360706
229.7165200391007,371.4565004887586,156.40273704789834,136.85239491691104,4.887585532746823,127.07722385141741,19.550342130987293
107.52688172043011,68.42619745845552,43.98826979472141,14.662756598240469,166.17790811339196,14.662756598240469,9.775171065493646
112.41446725317694,4.887585532746823,0.0,239.49169110459434,68.42619745845552,161.29032258064515,9.775171065493646
0.0,0.0,347.0185728250244,322.5806451612903,14.662756598240469,68.42619745845552,210.16617790811338
0.0,254.15444770283483,53.763440860215056,14.662756598240469,4.887585532746823,263.92961876832845,156.40273704789834
146.6275659824047,298.14271749755625,83.08895405669598,87.97653958944282,0.0,24.437927663734115,4.887585532746823
24.437927663734115,53.763440860215056,63.53861192570871,48.87585532746823,180.84066471163246,161.29032258064515,4.887585532746823
175.95307917888564,9.775171065493646,200.39100684261973,24.437927663734115,34.21309872922776,215.05376344086022,87.97653958944282
4.887585532746823,92.86412512218965,215.05376344086022,835.7771260997067,39.100684261974585,53.763440860215056,254.15444770283483
141.73998044965788,73.31378299120234,175.95307917888564,58.651026392961874,4.887585532746823,190.6158357771261,34.21309872922776
48.87585532746823,195.50342130987292,19.550342130987293,161.29032258064515,9.775171065493646,29.325513196480937,9.775171065493646
14.662756598240469,48.87585532746823,14.662756598240469,249.26686217008796,0.0,24.437927663734115,4.887585532746823
4.887585532746823,29.325513196480937,166.17790811339196,102.63929618768329,83.08895405669598,620.7233626588466,141.73998044965788
185.7282502443793,161.29032258064515,39.100684261974585,4.887585532746823,97.75171065493646,63.53861192570871,239.49169110459434
34.21309872922776,48.87585532746823,14.662756598240469,151.51515151515153,19.550342130987293,63.53861192570871,19.550342130987293
19.550342130987293,4.887585532746823,205.27859237536657,288.36754643206257,9.775171065493646,249.26686217008796,4.887585532746823
53.763440860215056,9.775171065493646,102.63929618768329,68.42619745845552,386.119257086999,78.20136852394917,4.887585532746823
9.775171065493646,19.550342130987293,175.95307917888564,283.47996089931576,102.63929618768329,58.651026392961874,215.05376344086022
73.31378299120234,366.5689149560117,117.30205278592375,146.6275659824047,9.775171065493646,4.887585532746823,180.84066471163246
43.98826979472141,53.763440860215056,131.96480938416423,24.437927663734115,4.887585532746823,107.52688172043011,9.775171065493646
43.98826979472141,68.42619745845552,166.17790811339196,4.887585532746823,4.887585532746823,522.9716520039101,0.0
9.775171065493646,249.26686217008796,73.31378299120234,190.6158357771261,166.17790811339196,24.437927663734115,78.20136852394917
4.887585532746823,83.08895405669598,39.100684261974585,4.887585532746823,29.325513196480937,806.4516129032257,263.92961876832845
322.5806451612903,117.30205278592375,92.86412512218965,156.40273704789834,4.887585532746823,63.53861192570871,34.21309872922776
307.91788856304987,73.31378299120234,278.5923753665689,180.84066471163246,4.887585532746823,464.3206256109482,0.0
19.550342130987293,4.887585532746823,645.1612903225806,210.16617790811338,4.887585532746823,34.21309872922776,4.887585532746823
0.0,459.4330400782014,19.550342130987293,14.662756598240469,185.7282502443793,4.887585532746823,131.96480938416423
4.887585532746823,87.97653958944282,254.15444770283483,63.53861192570871,136.85239491691104,24.437927663734115,229.7165200391007
205.27859237536657,14.662756598240469,307.91788856304987,19.550342130987293,14.662756598240469,303.03030303030306,24.437927663734115
102.63929618768329,0.0,244.37927663734115,420.33235581622677,4.887585532746823,234.6041055718475,9.775171065493646
14.662756598240469,83.08895405669598,161.29032258064515,24.437927663734115,0.0,29.325513196480937,9.775171065493646
4.887585532746823,131.96480938416423,58.651026392961874,19.550342130987293,381.2316715542522,4.887585532746823,215.05376344086022
0.0,29.325513196480937,522.9716520039101,122.18963831867057,58.651026392961874,376.3440860215054,161.29032258064515
303.03030303030306,4.887585532746823,200.39100684261973,210.16617790811338,9.775171065493646,39.100684261974585,9.775171065493646
166.17790811339196,0.0,107.52688172043011,39.100684261974585,0.0,562.0723362658846,0.0
19.550342130987293,171.0654936461388,73.31378299120234,9.775171065493646,39.100684261974585,78.20136852394917,53.763440860215056
4.887585532746823,48.87585532746823,151.51515151515153,131.96480938416423,9.775171065493646,0.0,249.26686217008796
39.100684261974585,87.97653958944282,63.53861192570871,210.16617790811338,156.40273704789834,171.0654936461388,48.87585532746823
283.47996089931576,68.42619745845552,43.98826979472141,83.08895405669598,14.662756598240469,19.550342130987293,9.775171065493646
39.100684261974585,151.51515151515153,9.775171065493646,4.887585532746823,4.887585532746823,73.31378299120234,0.0
