HandOpen,HandClose,Wrist Flexion,Wrist Extension,Supination,Pronation,Rest
9.775171065493646,24.437927663734115,63.53861192570871,9.775171065493646,4.887585532746823,0.0,4.887585532746823
9.775171065493646,58.651026392961874,29.325513196480937,4.887585532746823,4.887585532746823,9.775171065493646,9.775171065493646
4.887585532746823,83.08895405669598,14.662756598240469,4.887585532746823,19.550342130987293,14.662756598240469,4.887585532746823
4.887585532746823,63.53861192570871,14.662756598240469,4.887585532746823,24.437927663734115,19.550342130987293,4.887585532746823
4.887585532746823,34.21309872922776,0.0,4.887585532746823,24.437927663734115,9.775171065493646,0.0
0.0,14.662756598240469,4.887585532746823,0.0,19.550342130987293,9.775171065493646,14.662756598240469
0.0,4.887585532746823,4.887585532746823,9.775171065493646,9.775171065493646,9.775171065493646,34.21309872922776
9.775171065493646,9.775171065493646,4.887585532746823,19.550342130987293,4.887585532746823,4.887585532746823,48.87585532746823
4.887585532746823,0.0,4.887585532746823,34.21309872922776,4.887585532746823,4.887585532746823,68.42619745845552
14.662756598240469,0.0,4.887585532746823,24.437927663734115,0.0,0.0,43.98826979472141
34.21309872922776,4.887585532746823,0.0,19.550342130987293,0.0,4.887585532746823,29.325513196480937
58.651026392961874,4.887585532746823,161.29032258064515,14.662756598240469,4.887585532746823,9.775171065493646,19.550342130987293
63.53861192570871,4.887585532746823,87.97653958944282,4.887585532746823,4.887585532746823,4.887585532746823,4.887585532746823
48.87585532746823,9.775171065493646,136.85239491691104,9.775171065493646,4.887585532746823,39.100684261974585,14.662756598240469
34.21309872922776,39.100684261974585,166.17790811339196,9.775171065493646,4.887585532746823,58.651026392961874,4.887585532746823
19.550342130987293,63.53861192570871,78.20136852394917,4.887585532746823,9.775171065493646,39.100684261974585,4.887585532746823
14.662756598240469,53.763440860215056,29.325513196480937,0.0,0.0,24.437927663734115,0.0
4.887585532746823,53.763440860215056,141.73998044965788,4.887585532746823,4.887585532746823,53.763440860215056,0.0
4.887585532746823,29.325513196480937,58.651026392961874,0.0,19.550342130987293,43.98826979472141,9.775171065493646
0.0,9.775171065493646,117.30205278592375,4.887585532746823,24.437927663734115,24.437927663734115,9.775171065493646
9.775171065493646,4.887585532746823,136.85239491691104,14.662756598240469,9.775171065493646,9.775171065493646,34.21309872922776
9.775171065493646,4.887585532746823,58.651026392961874,24.437927663734115,9.775171065493646,9.775171065493646,53.763440860215056
14.662756598240469,9.775171065493646,24.437927663734115,34.21309872922776,9.775171065493646,4.887585532746823,53.763440860215056
24.437927663734115,4.887585532746823,24.437927663734115,19.550342130987293,0.0,9.775171065493646,43.98826979472141
53.763440860215056,0.0,9.775171065493646,4.887585532746823,4.887585532746823,9.775171065493646,29.325513196480937
87.97653958944282,0.0,9.775171065493646,4.887585532746823,4.887585532746823,4.887585532746823,19.550342130987293
63.53861192570871,0.0,219.94134897360706,9.775171065493646,4.887585532746823,9.775171065493646,9.775171065493646
34.21309872922776,9.775171065493646,107.52688172043011,9.775171065493646,9.775171065493646,9.775171065493646,4.887585532746823
9.775171065493646,9.775171065493646,68.42619745845552,4.887585532746823,4.887585532746823,4.887585532746823,0.0
9.775171065493646,48.87585532746823,24.437927663734115,4.887585532746823,0.0,4.887585532746823,9.775171065493646
14.662756598240469,73.31378299120234,4.887585532746823,4.887585532746823,14.662756598240469,0.0,0.0
4.887585532746823,39.100684261974585,4.887585532746823,0.0,0.0,0.0,4.887585532746823
0.0,9.775171065493646,14.662756598240469,4.887585532746823,0.0,14.662756598240469,0.0
14.662756598240469,4.887585532746823,19.550342130987293,9.775171065493646,4.887585532746823,9.775171065493646,43.98826979472141
39.100684261974585,0.0,185.7282502443793,9.775171065493646,4.887585532746823,4.887585532746823,48.87585532746823
19.550342130987293,34.21309872922776,39.100684261974585,24.437927663734115,9.775171065493646,0.0,4.887585532746823
4.887585532746823,24.437927663734115,39.100684261974585,9.775171065493646,9.775171065493646,4.887585532746823,9.775171065493646
9.775171065493646,14.662756598240469,136.85239491691104,4.887585532746823,14.662756598240469,53.763440860215056,4.887585532746823
0.0,0.0,161.29032258064515,14.662756598240469,9.775171065493646,9.775171065493646,29.325513196480937
24.437927663734115,4.887585532746823,48.87585532746823,4.887585532746823,0.0,9.775171065493646,34.21309872922776
24.437927663734115,39.100684261974585,29.325513196480937,14.662756598240469,4.887585532746823,0.0,9.775171065493646
4.887585532746823,48.87585532746823,48.87585532746823,19.550342130987293,0.0,4.887585532746823,0.0
0.0,14.662756598240469,4.887585532746823,4.887585532746823,4.887585532746823,9.775171065493646,0.0
0.0,4.887585532746823,4.887585532746823,9.775171065493646,4.887585532746823,0.0,24.437927663734115
29.325513196480937,9.775171065493646,14.662756598240469,4.887585532746823,4.887585532746823,14.662756598240469,53.763440860215056
39.100684261974585,78.20136852394917,0.0,29.325513196480937,4.887585532746823,0.0,4.887585532746823
4.887585532746823,29.325513196480937,107.52688172043011,43.98826979472141,4.887585532746823,0.0,4.887585532746823
4.887585532746823,9.775171065493646,9.775171065493646,9.775171065493646,4.887585532746823,53.763440860215056,4.887585532746823
4.887585532746823,9.775171065493646,219.94134897360706,4.887585532746823,14.662756598240469,9.775171065493646,14.662756598240469
29.325513196480937,9.775171065493646,19.550342130987293,9.775171065493646,0.0,29.325513196480937,43.98826979472141
43.98826979472141,39.100684261974585,58.651026392961874,4.887585532746823,9.775171065493646,9.775171065493646,19.550342130987293
24.437927663734115,117.30205278592375,9.775171065493646,39.100684261974585,4.887585532746823,9.775171065493646,4.887585532746823
9.775171065493646,29.325513196480937,39.100684261974585,4.887585532746823,9.775171065493646,9.775171065493646,4.887585532746823
9.775171065493646,4.887585532746823,4.887585532746823,0.0,0.0,24.437927663734115,0.0
0.0,0.0,4.887585532746823,4.887585532746823,9.775171065493646,9.775171065493646,48.87585532746823
53.763440860215056,39.100684261974585,4.887585532746823,4.887585532746823,0.0,9.775171065493646,29.325513196480937
9.775171065493646,73.31378299120234,9.775171065493646,19.550342130987293,4.887585532746823,0.0,4.887585532746823
9.775171065493646,9.775171065493646,48.87585532746823,19.550342130987293,0.0,9.775171065493646,0.0
4.887585532746823,9.775171065493646,19.550342130987293,0.0,0.0,9.775171065493646,9.775171065493646
14.662756598240469,0.0,4.887585532746823,0.0,34.21309872922776,4.887585532746823,48.87585532746823
53.763440860215056,43.98826979472141,9.775171065493646,9.775171065493646,14.662756598240469,0.0,9.775171065493646
29.325513196480937,68.42619745845552,9.775171065493646,34.21309872922776,9.775171065493646,24.437927663734115,4.887585532746823
4.887585532746823,9.775171065493646,68.42619745845552,39.100684261974585,4.887585532746823,19.550342130987293,4.887585532746823
4.887585532746823,4.887585532746823,102.63929618768329,4.887585532746823,4.887585532746823,4.887585532746823,4.887585532746823
9.775171065493646,0.0,9.775171065493646,4.887585532746823,29.325513196480937,4.887585532746823,48.87585532746823
48.87585532746823,48.87585532746823,9.775171065493646,9.775171065493646,4.887585532746823,29.325513196480937,19.550342130987293
19.550342130987293,19.550342130987293,19.550342130987293,4.887585532746823,4.887585532746823,19.550342130987293,4.887585532746823
14.662756598240469,9.775171065493646,43.98826979472141,29.325513196480937,0.0,4.887585532746823,0.0
4.887585532746823,9.775171065493646,19.550342130987293,24.437927663734115,4.887585532746823,4.887585532746823,14.662756598240469
9.775171065493646,4.887585532746823,0.0,9.775171065493646,14.662756598240469,0.0,39.100684261974585
39.100684261974585,19.550342130987293,9.775171065493646,0.0,4.887585532746823,48.87585532746823,19.550342130987293
39.100684261974585,58.651026392961874,205.27859237536657,0.0,4.887585532746823,14.662756598240469,4.887585532746823
4.887585532746823,4.887585532746823,175.95307917888564,9.775171065493646,4.887585532746823,9.775171065493646,4.887585532746823
0.0,4.887585532746823,205.27859237536657,19.550342130987293,9.775171065493646,9.775171065493646,0.0
4.887585532746823,0.0,259.04203323558164,0.0,0.0,24.437927663734115,34.21309872922776
29.325513196480937,29.325513196480937,73.31378299120234,0.0,4.887585532746823,4.887585532746823,43.98826979472141
48.87585532746823,24.437927663734115,9.775171065493646,4.887585532746823,9.775171065493646,0.0,4.887585532746823
9.775171065493646,4.887585532746823,0.0,14.662756598240469,9.775171065493646,0.0,0.0
4.887585532746823,14.662756598240469,0.0,14.662756598240469,4.887585532746823,9.775171065493646,4.887585532746823
9.775171065493646,0.0,327.4682306940371,9.775171065493646,4.887585532746823,4.887585532746823,14.662756598240469
19.550342130987293,4.887585532746823,136.85239491691104,9.775171065493646,4.887585532746823,24.437927663734115,63.53861192570871
53.763440860215056,53.763440860215056,303.03030303030306,4.887585532746823,4.887585532746823,4.887585532746823,14.662756598240469
14.662756598240469,19.550342130987293,391.00684261974584,4.887585532746823,14.662756598240469,4.887585532746823,9.775171065493646
9.775171065493646,4.887585532746823,234.6041055718475,34.21309872922776,4.887585532746823,4.887585532746823,9.775171065493646
9.775171065493646,9.775171065493646,224.82893450635387,19.550342130987293,0.0,4.887585532746823,19.550342130987293
14.662756598240469,14.662756598240469,146.6275659824047,0.0,14.662756598240469,58.651026392961874,58.651026392961874
43.98826979472141,97.75171065493646,34.21309872922776,9.775171065493646,4.887585532746823,4.887585532746823,4.887585532746823
9.775171065493646,39.100684261974585,9.775171065493646,0.0,0.0,0.0,9.775171065493646
9.775171065493646,9.775171065493646,4.887585532746823,4.887585532746823,24.437927663734115,9.775171065493646,9.775171065493646
4.887585532746823,4.887585532746823,307.91788856304987,9.775171065493646,4.887585532746823,24.437927663734115,24.437927663734115
9.775171065493646,4.887585532746823,39.100684261974585,9.775171065493646,9.775171065493646,0.0,58.651026392961874
48.87585532746823,180.84066471163246,63.53861192570871,9.775171065493646,9.775171065493646,4.887585532746823,9.775171065493646
9.775171065493646,87.97653958944282,24.437927663734115,9.775171065493646,14.662756598240469,34.21309872922776,0.0
4.887585532746823,14.662756598240469,234.6041055718475,19.550342130987293,4.887585532746823,9.775171065493646,14.662756598240469
4.887585532746823,4.887585532746823,53.763440860215056,14.662756598240469,4.887585532746823,19.550342130987293,19.550342130987293
34.21309872922776,19.550342130987293,180.84066471163246,0.0,9.775171065493646,9.775171065493646,63.53861192570871
24.437927663734115,19.550342130987293,92.86412512218965,4.887585532746823,9.775171065493646,9.775171065493646,14.662756598240469
9.775171065493646,9.775171065493646,63.53861192570871,0.0,4.887585532746823,0.0,4.887585532746823
4.887585532746823,34.21309872922776,9.775171065493646,0.0,9.775171065493646,4.887585532746823,9.775171065493646
4.887585532746823,4.887585532746823,4.887585532746823,43.98826979472141,9.775171065493646,0.0,14.662756598240469
9.775171065493646,83.08895405669598,136.85239491691104,24.437927663734115,4.887585532746823,9.775171065493646,63.53861192570871
48.87585532746823,39.100684261974585,14.662756598240469,4.887585532746823,0.0,4.887585532746823,14.662756598240469
43.98826979472141,4.887585532746823,391.00684261974584,0.0,4.887585532746823,14.662756598240469,9.775171065493646
9.775171065493646,9.775171065493646,97.75171065493646,0.0,14.662756598240469,4.887585532746823,0.0
9.775171065493646,9.775171065493646,63.53861192570871,29.325513196480937,9.775171065493646,24.437927663734115,24.437927663734115
9.775171065493646,9.775171065493646,24.437927663734115,9.775171065493646,4.887585532746823,34.21309872922776,53.763440860215056
9.775171065493646,43.98826979472141,141.73998044965788,9.775171065493646,4.887585532746823,9.775171065493646,9.775171065493646
34.21309872922776,73.31378299120234,127.07722385141741,9.775171065493646,4.887585532746823,4.887585532746823,0.0
9.775171065493646,14.662756598240469,9.775171065493646,4.887585532746823,19.550342130987293,4.887585532746823,9.775171065493646
4.887585532746823,4.887585532746823,4.887585532746823,19.550342130987293,29.325513196480937,0.0,9.775171065493646
14.662756598240469,43.98826979472141,4.887585532746823,24.437927663734115,14.662756598240469,9.775171065493646,53.763440860215056
19.550342130987293,78.20136852394917,430.10752688172045,4.887585532746823,9.775171065493646,4.887585532746823,9.775171065493646
39.100684261974585,14.662756598240469,136.85239491691104,4.887585532746823,0.0,4.887585532746823,4.887585532746823
9.775171065493646,9.775171065493646,58.651026392961874,4.887585532746823,9.775171065493646,14.662756598240469,0.0
9.775171065493646,9.775171065493646,107.52688172043011,14.662756598240469,24.437927663734115,4.887585532746823,29.325513196480937
4.887585532746823,14.662756598240469,14.662756598240469,43.98826979472141,9.775171065493646,0.0,68.42619745845552
4.887585532746823,87.97653958944282,102.63929618768329,19.550342130987293,9.775171065493646,24.437927663734115,19.550342130987293
43.98826979472141,34.21309872922776,9.775171065493646,4.887585532746823,0.0,0.0,9.775171065493646
39.100684261974585,14.662756598240469,180.84066471163246,0.0,4.887585532746823,14.662756598240469,0.0
9.775171065493646,9.775171065493646,19.550342130987293,9.775171065493646,4.887585532746823,4.887585532746823,19.550342130987293
0.0,9.775171065493646,9.775171065493646,14.662756598240469,9.775171065493646,4.887585532746823,53.763440860215056
4.887585532746823,39.100684261974585,117.30205278592375,19.550342130987293,9.775171065493646,4.887585532746823,9.775171065493646
34.21309872922776,24.437927663734115,425.2199413489736,9.775171065493646,0.0,19.550342130987293,9.775171065493646
39.100684261974585,24.437927663734115,327.4682306940371,4.887585532746823,14.662756598240469,19.550342130987293,0.0
9.775171065493646,4.887585532746823,156.40273704789834,9.775171065493646,14.662756598240469,4.887585532746823,14.662756598240469
0.0,4.887585532746823,102.63929618768329,4.887585532746823,4.887585532746823,9.775171065493646,53.763440860215056
0.0,24.437927663734115,73.31378299120234,39.100684261974585,9.775171065493646,102.63929618768329,14.662756598240469
19.550342130987293,53.763440860215056,34.21309872922776,19.550342130987293,9.775171065493646,19.550342130987293,0.0
39.100684261974585,0.0,73.31378299120234,4.887585532746823,0.0,0.0,4.887585532746823
9.775171065493646,9.775171065493646,43.98826979472141,4.887585532746823,4.887585532746823,4.887585532746823,9.775171065493646
4.887585532746823,4.887585532746823,4.887585532746823,4.887585532746823,9.775171065493646,9.775171065493646,53.763440860215056
0.0,29.325513196480937,4.887585532746823,29.325513196480937,4.887585532746823,4.887585532746823,4.887585532746823
4.887585532746823,58.651026392961874,107.52688172043011,24.437927663734115,9.775171065493646,29.325513196480937,9.775171065493646
34.21309872922776,4.887585532746823,200.39100684261973,4.887585532746823,0.0,19.550342130987293,9.775171065493646
19.550342130987293,4.887585532746823,156.40273704789834,0.0,14.662756598240469,9.775171065493646,14.662756598240469
9.775171065493646,0.0,29.325513196480937,4.887585532746823,9.775171065493646,0.0,53.763440860215056
9.775171065493646,34.21309872922776,0.0,24.437927663734115,0.0,0.0,14.662756598240469
9.775171065493646,53.763440860215056,58.651026392961874,34.21309872922776,0.0,29.325513196480937,0.0
19.550342130987293,4.887585532746823,68.42619745845552,9.775171065493646,4.887585532746823,14.662756598240469,9.775171065493646
9.775171065493646,9.775171065493646,29.325513196480937,4.887585532746823,0.0,4.887585532746823,14.662756598240469
9.775171065493646,14.662756598240469,4.887585532746823,9.775171065493646,19.550342130987293,14.662756598240469,43.98826979472141
0.0,78.20136852394917,0.0,4.887585532746823,9.775171065493646,4.887585532746823,14.662756598240469
4.887585532746823,34.21309872922776,4.887585532746823,14.662756598240469,0.0,34.21309872922776,4.887585532746823
0.0,4.887585532746823,430.10752688172045,4.887585532746823,0.0,14.662756598240469,4.887585532746823
29.325513196480937,9.775171065493646,136.85239491691104,4.887585532746823,4.887585532746823,4.887585532746823,9.775171065493646
14.662756598240469,0.0,53.763440860215056,9.775171065493646,9.775171065493646,4.887585532746823,68.42619745845552
14.662756598240469,34.21309872922776,4.887585532746823,9.775171065493646,0.0,4.887585532746823,19.550342130987293
9.775171065493646,68.42619745845552,29.325513196480937,19.550342130987293,9.775171065493646,4.887585532746823,0.0
9.775171065493646,4.887585532746823,24.437927663734115,9.775171065493646,0.0,4.887585532746823,0.0
34.21309872922776,24.437927663734115,83.08895405669598,4.887585532746823,4.887585532746823,39.100684261974585,0.0
19.550342130987293,4.887585532746823,48.87585532746823,0.0,4.887585532746823,34.21309872922776,53.763440860215056
0.0,58.651026392961874,24.437927663734115,9.775171065493646,4.887585532746823,4.887585532746823,19.550342130987293
4.887585532746823,14.662756598240469,4.887585532746823,24.437927663734115,4.887585532746823,4.887585532746823,9.775171065493646
4.887585532746823,9.775171065493646,4.887585532746823,48.87585532746823,9.775171065493646,4.887585532746823,9.775171065493646
9.775171065493646,4.887585532746823,322.5806451612903,0.0,4.887585532746823,14.662756598240469,0.0
39.100684261974585,0.0,215.05376344086022,0.0,14.662756598240469,14.662756598240469,53.763440860215056
9.775171065493646,34.21309872922776,219.94134897360706,0.0,9.775171065493646,4.887585532746823,14.662756598240469
4.887585532746823,87.97653958944282,161.29032258064515,24.437927663734115,14.662756598240469,9.775171065493646,4.887585532746823
0.0,19.550342130987293,14.662756598240469,34.21309872922776,9.775171065493646,63.53861192570871,9.775171065493646
19.550342130987293,0.0,48.87585532746823,9.775171065493646,0.0,4.887585532746823,9.775171065493646
24.437927663734115,0.0,24.437927663734115,4.887585532746823,4.887585532746823,29.325513196480937,34.21309872922776
39.100684261974585,14.662756598240469,34.21309872922776,4.887585532746823,14.662756598240469,9.775171065493646,24.437927663734115
9.775171065493646,39.100684261974585,29.325513196480937,14.662756598240469,24.437927663734115,4.887585532746823,14.662756598240469
9.775171065493646,43.98826979472141,4.887585532746823,9.775171065493646,9.775171065493646,4.887585532746823,4.887585532746823
0.0,4.887585532746823,9.775171065493646,0.0,9.775171065493646,9.775171065493646,0.0
43.98826979472141,4.887585532746823,175.95307917888564,4.887585532746823,14.662756598240469,4.887585532746823,34.21309872922776
34.21309872922776,29.325513196480937,200.39100684261973,9.775171065493646,63.53861192570871,24.437927663734115,53.763440860215056
9.775171065493646,43.98826979472141,34.21309872922776,4.887585532746823,14.662756598240469,14.662756598240469,9.775171065493646
4.887585532746823,24.437927663734115,14.662756598240469,9.775171065493646,0.0,4.887585532746823,4.887585532746823
4.887585532746823,9.775171065493646,29.325513196480937,4.887585532746823,4.887585532746823,4.887585532746823,9.775171065493646
43.98826979472141,4.887585532746823,9.775171065493646,4.887585532746823,4.887585532746823,48.87585532746823,34.21309872922776
53.763440860215056,4.887585532746823,107.52688172043011,0.0,9.775171065493646,29.325513196480937,58.651026392961874
9.775171065493646,48.87585532746823,19.550342130987293,9.775171065493646,24.437927663734115,4.887585532746823,4.887585532746823
4.887585532746823,29.325513196480937,4.887585532746823,14.662756598240469,14.662756598240469,4.887585532746823,4.887585532746823
4.887585532746823,9.775171065493646,19.550342130987293,14.662756598240469,9.775171065493646,4.887585532746823,9.775171065493646
39.100684261974585,4.887585532746823,4.887585532746823,4.887585532746823,0.0,0.0,19.550342130987293
24.437927663734115,19.550342130987293,9.775171065493646,9.775171065493646,4.887585532746823,9.775171065493646,48.87585532746823
4.887585532746823,58.651026392961874,234.6041055718475,4.887585532746823,0.0,4.887585532746823,4.887585532746823
9.775171065493646,19.550342130987293,156.40273704789834,4.887585532746823,9.775171065493646,4.887585532746823,4.887585532746823
4.887585532746823,9.775171065493646,83.08895405669598,4.887585532746823,9.775171065493646,39.100684261974585,4.887585532746823
34.21309872922776,0.0,141.73998044965788,9.775171065493646,9.775171065493646,48.87585532746823,34.21309872922776
63.53861192570871,0.0,53.763440860215056,4.887585532746823,9.775171065493646,0.0,43.98826979472141
4.887585532746823,58.651026392961874,97.75171065493646,4.887585532746823,0.0,4.887585532746823,9.775171065493646
14.662756598240469,14.662756598240469,4.887585532746823,4.887585532746823,4.887585532746823,4.887585532746823,0.0
4.887585532746823,9.775171065493646,0.0,4.887585532746823,19.550342130987293,19.550342130987293,14.662756598240469
4.887585532746823,4.887585532746823,14.662756598240469,9.775171065493646,4.887585532746823,9.775171065493646,19.550342130987293
14.662756598240469,0.0,9.775171065493646,9.775171065493646,4.887585532746823,0.0,58.651026392961874
29.325513196480937,39.100684261974585,4.887585532746823,9.775171065493646,19.550342130987293,9.775171065493646,4.887585532746823
9.775171065493646,112.41446725317694,9.775171065493646,9.775171065493646,24.437927663734115,9.775171065493646,0.0
0.0,14.662756598240469,9.775171065493646,9.775171065493646,9.775171065493646,97.75171065493646,4.887585532746823
0.0,9.775171065493646,34.21309872922776,9.775171065493646,0.0,83.08895405669598,14.662756598240469
39.100684261974585,9.775171065493646,371.4565004887586,9.775171065493646,4.887585532746823,9.775171065493646,53.763440860215056
19.550342130987293,78.20136852394917,39.100684261974585,4.887585532746823,9.775171065493646,4.887585532746823,9.775171065493646
9.775171065493646,9.775171065493646,73.31378299120234,4.887585532746823,34.21309872922776,4.887585532746823,0.0
0.0,0.0,53.763440860215056,24.437927663734115,9.775171065493646,4.887585532746823,4.887585532746823
4.887585532746823,4.887585532746823,9.775171065493646,24.437927663734115,0.0,14.662756598240469,29.325513196480937
43.98826979472141,0.0,239.49169110459434,9.775171065493646,4.887585532746823,4.887585532746823,68.42619745845552
39.100684261974585,151.51515151515153,19.550342130987293,4.887585532746823,0.0,4.887585532746823,9.775171065493646
9.775171065493646,48.87585532746823,4.887585532746823,4.887585532746823,14.662756598240469,4.887585532746823,9.775171065493646
4.887585532746823,9.775171065493646,39.100684261974585,0.0,9.775171065493646,0.0,4.887585532746823
0.0,4.887585532746823,337.2434017595308,39.100684261974585,9.775171065493646,24.437927663734115,14.662756598240469
24.437927663734115,9.775171065493646,112.41446725317694,24.437927663734115,4.887585532746823,14.662756598240469,58.651026392961874
39.100684261974585,48.87585532746823,97.75171065493646,4.887585532746823,0.0,4.887585532746823,14.662756598240469
29.325513196480937,9.775171065493646,43.98826979472141,0.0,4.887585532746823,9.775171065493646,9.775171065493646
4.887585532746823,9.775171065493646,97.75171065493646,0.0,0.0,0.0,9.775171065493646
4.887585532746823,4.887585532746823,9.775171065493646,29.325513196480937,4.887585532746823,19.550342130987293,4.887585532746823
4.887585532746823,9.775171065493646,0.0,39.100684261974585,0.0,9.775171065493646,68.42619745845552
68.42619745845552,63.53861192570871,4.887585532746823,9.775171065493646,4.887585532746823,9.775171065493646,9.775171065493646
29.325513196480937,19.550342130987293,0.0,9.775171065493646,19.550342130987293,9.775171065493646,0.0
9.775171065493646,9.775171065493646,0.0,0.0,9.775171065493646,0.0,9.775171065493646
0.0,4.887585532746823,4.887585532746823,14.662756598240469,9.775171065493646,4.887585532746823,9.775171065493646
4.887585532746823,14.662756598240469,141.73998044965788,9.775171065493646,9.775171065493646,9.775171065493646,39.100684261974585
24.437927663734115,48.87585532746823,4.887585532746823,4.887585532746823,9.775171065493646,19.550342130987293,19.550342130987293
9.775171065493646,4.887585532746823,9.775171065493646,4.887585532746823,4.887585532746823,19.550342130987293,9.775171065493646
14.662756598240469,9.775171065493646,68.42619745845552,4.887585532746823,14.662756598240469,14.662756598240469,9.775171065493646
14.662756598240469,4.887585532746823,24.437927663734115,0.0,4.887585532746823,9.775171065493646,0.0
4.887585532746823,4.887585532746823,14.662756598240469,24.437927663734115,0.0,48.87585532746823,48.87585532746823
9.775171065493646,87.97653958944282,9.775171065493646,19.550342130987293,4.887585532746823,29.325513196480937,29.325513196480937
34.21309872922776,53.763440860215056,4.887585532746823,9.775171065493646,9.775171065493646,0.0,4.887585532746823
9.775171065493646,4.887585532746823,24.437927663734115,4.887585532746823,4.887585532746823,0.0,9.775171065493646
0.0,9.775171065493646,68.42619745845552,4.887585532746823,9.775171065493646,4.887585532746823,4.887585532746823
0.0,24.437927663734115,4.887585532746823,29.325513196480937,9.775171065493646,24.437927663734115,39.100684261974585
14.662756598240469,34.21309872922776,4.887585532746823,39.100684261974585,4.887585532746823,9.775171065493646,58.651026392961874
58.651026392961874,4.887585532746823,68.42619745845552,4.887585532746823,4.887585532746823,4.887585532746823,4.887585532746823
9.775171065493646,0.0,14.662756598240469,4.887585532746823,4.887585532746823,4.887585532746823,0.0
4.887585532746823,0.0,53.763440860215056,4.887585532746823,9.775171065493646,4.887585532746823,0.0
0.0,9.775171065493646,9.775171065493646,4.887585532746823,4.887585532746823,19.550342130987293,29.325513196480937
24.437927663734115,14.662756598240469,0.0,34.21309872922776,9.775171065493646,9.775171065493646,39.100684261974585
63.53861192570871,29.325513196480937,4.887585532746823,19.550342130987293,24.437927663734115,9.775171065493646,9.775171065493646
9.775171065493646,122.18963831867057,24.437927663734115,9.775171065493646,4.887585532746823,4.887585532746823,0.0
4.887585532746823,9.775171065493646,9.775171065493646,9.775171065493646,9.775171065493646,0.0,9.775171065493646
9.775171065493646,14.662756598240469,0.0,4.887585532746823,4.887585532746823,14.662756598240469,19.550342130987293
19.550342130987293,63.53861192570871,4.887585532746823,4.887585532746823,0.0,9.775171065493646,43.98826979472141
63.53861192570871,39.100684261974585,19.550342130987293,9.775171065493646,0.0,4.887585532746823,4.887585532746823
14.662756598240469,9.775171065493646,53.763440860215056,9.775171065493646,0.0,0.0,9.775171065493646
4.887585532746823,9.775171065493646,34.21309872922776,4.887585532746823,4.887585532746823,9.775171065493646,9.775171065493646
0.0,9.775171065493646,4.887585532746823,4.887585532746823,24.437927663734115,68.42619745845552,9.775171065493646
19.550342130987293,48.87585532746823,39.100684261974585,4.887585532746823,4.887585532746823,24.437927663734115,48.87585532746823
48.87585532746823,14.662756598240469,4.887585532746823,19.550342130987293,9.775171065493646,0.0,4.887585532746823
14.662756598240469,0.0,29.325513196480937,0.0,4.887585532746823,24.437927663734115,0.0
0.0,0.0,102.63929618768329,4.887585532746823,4.887585532746823,0.0,0.0
9.775171065493646,0.0,19.550342130987293,4.887585532746823,9.775171065493646,9.775171065493646,9.775171065493646
24.437927663734115,43.98826979472141,58.651026392961874,4.887585532746823,9.775171065493646,9.775171065493646,53.763440860215056
43.98826979472141,19.550342130987293,9.775171065493646,24.437927663734115,4.887585532746823,0.0,14.662756598240469
14.662756598240469,14.662756598240469,9.775171065493646,4.887585532746823,0.0,9.775171065493646,0.0
9.775171065493646,4.887585532746823,9.775171065493646,0.0,0.0,9.775171065493646,9.775171065493646
0.0,9.775171065493646,0.0,4.887585532746823,29.325513196480937,19.550342130987293,4.887585532746823
4.887585532746823,34.21309872922776,83.08895405669598,4.887585532746823,9.775171065493646,14.662756598240469,53.763440860215056
53.763440860215056,68.42619745845552,24.437927663734115,34.21309872922776,14.662756598240469,4.887585532746823,9.775171065493646
24.437927663734115,9.775171065493646,53.763440860215056,24.437927663734115,14.662756598240469,4.887585532746823,9.775171065493646
9.775171065493646,14.662756598240469,4.887585532746823,14.662756598240469,4.887585532746823,0.0,9.775171065493646
4.887585532746823,4.887585532746823,29.325513196480937,9.775171065493646,29.325513196480937,4.887585532746823,9.775171065493646
9.775171065493646,19.550342130987293,4.887585532746823,0.0,19.550342130987293,24.437927663734115,48.87585532746823
63.53861192570871,39.100684261974585,24.437927663734115,39.100684261974585,4.887585532746823,48.87585532746823,9.775171065493646
24.437927663734115,39.100684261974585,48.87585532746823,29.325513196480937,4.887585532746823,4.887585532746823,4.887585532746823
0.0,9.775171065493646,4.887585532746823,4.887585532746823,0.0,0.0,4.887585532746823
4.887585532746823,9.775171065493646,4.887585532746823,4.887585532746823,0.0,4.887585532746823,4.887585532746823
4.887585532746823,29.325513196480937,0.0,4.887585532746823,19.550342130987293,9.775171065493646,43.98826979472141
19.550342130987293,43.98826979472141,63.53861192570871,9.775171065493646,4.887585532746823,19.550342130987293,24.437927663734115
34.21309872922776,24.437927663734115,29.325513196480937,14.662756598240469,14.662756598240469,14.662756598240469,4.887585532746823
19.550342130987293,9.775171065493646,9.775171065493646,4.887585532746823,4.887585532746823,4.887585532746823,0.0
9.775171065493646,0.0,9.775171065493646,4.887585532746823,0.0,4.887585532746823,9.775171065493646
4.887585532746823,9.775171065493646,0.0,0.0,39.100684261974585,43.98826979472141,43.98826979472141
53.763440860215056,43.98826979472141,14.662756598240469,4.887585532746823,9.775171065493646,83.08895405669598,43.98826979472141
19.550342130987293,58.651026392961874,73.31378299120234,24.437927663734115,4.887585532746823,24.437927663734115,14.662756598240469
4.887585532746823,4.887585532746823,24.437927663734115,9.775171065493646,0.0,4.887585532746823,0.0
4.887585532746823,9.775171065493646,9.775171065493646,9.775171065493646,4.887585532746823,4.887585532746823,0.0
9.775171065493646,102.63929618768329,4.887585532746823,4.887585532746823,14.662756598240469,4.887585532746823,24.437927663734115
19.550342130987293,53.763440860215056,43.98826979472141,0.0,9.775171065493646,9.775171065493646,58.651026392961874
39.100684261974585,29.325513196480937,39.100684261974585,4.887585532746823,14.662756598240469,14.662756598240469,9.775171065493646
9.775171065493646,9.775171065493646,9.775171065493646,4.887585532746823,9.775171065493646,14.662756598240469,4.887585532746823
4.887585532746823,4.887585532746823,4.887585532746823,0.0,14.662756598240469,0.0,4.887585532746823
4.887585532746823,73.31378299120234,9.775171065493646,0.0,34.21309872922776,24.437927663734115,19.550342130987293
4.887585532746823,48.87585532746823,19.550342130987293,4.887585532746823,29.325513196480937,9.775171065493646,73.31378299120234
48.87585532746823,4.887585532746823,39.100684261974585,9.775171065493646,9.775171065493646,14.662756598240469,14.662756598240469
14.662756598240469,0.0,14.662756598240469,43.98826979472141,0.0,4.887585532746823,0.0
9.775171065493646,0.0,4.887585532746823,9.775171065493646,0.0,0.0,4.887585532746823
4.887585532746823,4.887585532746823,39.100684261974585,4.887585532746823,4.887585532746823,34.21309872922776,24.437927663734115
9.775171065493646,19.550342130987293,19.550342130987293,9.775171065493646,4.887585532746823,14.662756598240469,53.763440860215056
53.763440860215056,19.550342130987293,9.775171065493646,9.775171065493646,9.775171065493646,9.775171065493646,14.662756598240469
9.775171065493646,9.775171065493646,180.84066471163246,24.437927663734115,9.775171065493646,9.775171065493646,9.775171065493646
9.775171065493646,0.0,19.550342130987293,4.887585532746823,4.887585532746823,19.550342130987293,9.775171065493646
29.325513196480937,4.887585532746823,9.775171065493646,4.887585532746823,0.0,9.775171065493646,24.437927663734115
9.775171065493646,43.98826979472141,9.775171065493646,0.0,9.775171065493646,0.0,68.42619745845552
9.775171065493646,14.662756598240469,34.21309872922776,9.775171065493646,4.887585532746823,24.437927663734115,14.662756598240469
14.662756598240469,9.775171065493646,19.550342130987293,19.550342130987293,0.0,19.550342130987293,9.775171065493646
14.662756598240469,4.887585532746823,4.887585532746823,19.550342130987293,4.887585532746823,9.775171065493646,4.887585532746823
4.887585532746823,4.887585532746823,24.437927663734115,14.662756598240469,9.775171065493646,9.775171065493646,4.887585532746823
9.775171065493646,48.87585532746823,9.775171065493646,4.887585532746823,0.0,0.0,43.98826979472141
24.437927663734115,19.550342130987293,83.08895405669598,0.0,9.775171065493646,9.775171065493646,14.662756598240469
14.662756598240469,4.887585532746823,4.887585532746823,4.887585532746823,4.887585532746823,19.550342130987293,9.775171065493646
0.0,4.887585532746823,4.887585532746823,29.325513196480937,9.775171065493646,29.325513196480937,0.0
14.662756598240469,0.0,0.0,4.887585532746823,9.775171065493646,14.662756598240469,9.775171065493646
9.775171065493646,53.763440860215056,4.887585532746823,9.775171065493646,0.0,0.0,53.763440860215056
24.437927663734115,48.87585532746823,34.21309872922776,4.887585532746823,19.550342130987293,9.775171065493646,9.775171065493646
53.763440860215056,9.775171065493646,34.21309872922776,4.887585532746823,4.887585532746823,43.98826979472141,9.775171065493646
9.775171065493646,0.0,9.775171065493646,34.21309872922776,4.887585532746823,14.662756598240469,0.0
4.887585532746823,0.0,4.887585532746823,14.662756598240469,9.775171065493646,9.775171065493646,14.662756598240469
4.887585532746823,127.07722385141741,4.887585532746823,4.887585532746823,9.775171065493646,0.0,68.42619745845552
29.325513196480937,9.775171065493646,4.887585532746823,4.887585532746823,9.775171065493646,4.887585532746823,9.775171065493646
43.98826979472141,29.325513196480937,29.325513196480937,0.0,4.887585532746823,19.550342130987293,4.887585532746823
9.775171065493646,0.0,14.662756598240469,19.550342130987293,0.0,14.662756598240469,4.887585532746823
0.0,9.775171065493646,195.50342130987292,48.87585532746823,4.887585532746823,0.0,9.775171065493646
4.887585532746823,78.20136852394917,14.662756598240469,4.887585532746823,14.662756598240469,0.0,48.87585532746823
24.437927663734115,4.887585532746823,24.437927663734115,4.887585532746823,4.887585532746823,9.775171065493646,19.550342130987293
43.98826979472141,0.0,29.325513196480937,9.775171065493646,19.550342130987293,14.662756598240469,4.887585532746823
9.775171065493646,0.0,9.775171065493646,14.662756598240469,4.887585532746823,9.775171065493646,4.887585532746823
0.0,58.651026392961874,9.775171065493646,34.21309872922776,4.887585532746823,39.100684261974585,9.775171065493646
4.887585532746823,34.21309872922776,229.7165200391007,4.887585532746823,0.0,4.887585532746823,53.763440860215056
4.887585532746823,4.887585532746823,14.662756598240469,9.775171065493646,9.775171065493646,0.0,19.550342130987293
39.100684261974585,9.775171065493646,166.17790811339196,9.775171065493646,0.0,14.662756598240469,4.887585532746823
43.98826979472141,0.0,19.550342130987293,4.887585532746823,9.775171065493646,19.550342130987293,4.887585532746823
14.662756598240469,9.775171065493646,9.775171065493646,19.550342130987293,4.887585532746823,0.0,4.887585532746823
9.775171065493646,78.20136852394917,283.47996089931576,4.887585532746823,0.0,4.887585532746823,48.87585532746823
0.0,14.662756598240469,117.30205278592375,9.775171065493646,0.0,0.0,14.662756598240469
24.437927663734115,4.887585532746823,68.42619745845552,0.0,4.887585532746823,63.53861192570871,4.887585532746823
68.42619745845552,9.775171065493646,14.662756598240469,0.0,14.662756598240469,39.100684261974585,4.887585532746823
14.662756598240469,24.437927663734115,4.887585532746823,19.550342130987293,4.887585532746823,9.775171065493646,0.0
9.775171065493646,43.98826979472141,19.550342130987293,19.550342130987293,0.0,4.887585532746823,48.87585532746823
9.775171065493646,9.775171065493646,73.31378299120234,0.0,9.775171065493646,4.887585532746823,19.550342130987293
48.87585532746823,4.887585532746823,14.662756598240469,4.887585532746823,4.887585532746823,4.887585532746823,4.887585532746823
29.325513196480937,0.0,9.775171065493646,4.887585532746823,14.662756598240469,34.21309872922776,0.0
4.887585532746823,9.775171065493646,9.775171065493646,14.662756598240469,19.550342130987293,4.887585532746823,0.0
4.887585532746823,34.21309872922776,4.887585532746823,39.100684261974585,4.887585532746823,0.0,34.21309872922776
0.0,24.437927663734115,43.98826979472141,9.775171065493646,9.775171065493646,9.775171065493646,19.550342130987293
24.437927663734115,9.775171065493646,19.550342130987293,0.0,0.0,0.0,4.887585532746823
39.100684261974585,4.887585532746823,9.775171065493646,0.0,0.0,39.100684261974585,0.0
9.775171065493646,0.0,4.887585532746823,4.887585532746823,4.887585532746823,14.662756598240469,0.0
4.887585532746823,19.550342130987293,9.775171065493646,29.325513196480937,4.887585532746823,19.550342130987293,34.21309872922776
9.775171065493646,102.63929618768329,68.42619745845552,9.775171065493646,0.0,9.775171065493646,34.21309872922776
9.775171065493646,24.437927663734115,29.325513196480937,0.0,4.887585532746823,0.0,9.775171065493646
48.87585532746823,4.887585532746823,4.887585532746823,9.775171065493646,14.662756598240469,9.775171065493646,4.887585532746823
9.775171065493646,0.0,4.887585532746823,9.775171065493646,39.100684261974585,4.887585532746823,0.0
4.887585532746823,58.651026392961874,4.887585532746823,24.437927663734115,19.550342130987293,9.775171065493646,19.550342130987293
9.775171065493646,29.325513196480937,39.100684261974585,14.662756598240469,9.775171065493646,14.662756598240469,43.98826979472141
19.550342130987293,9.775171065493646,29.325513196480937,9.775171065493646,0.0,34.21309872922776,19.550342130987293
39.100684261974585,0.0,0.0,0.0,9.775171065493646,4.887585532746823,4.887585532746823
4.887585532746823,4.887585532746823,9.775171065493646,4.887585532746823,4.887585532746823,4.887585532746823,4.887585532746823
4.887585532746823,53.763440860215056,43.98826979472141,24.437927663734115,9.775171065493646,29.325513196480937,4.887585532746823
0.0,48.87585532746823,4.887585532746823,39.100684261974585,4.887585532746823,9.775171065493646,48.87585532746823
0.0,14.662756598240469,34.21309872922776,4.887585532746823,0.0,14.662756598240469,19.550342130987293
43.98826979472141,9.775171065493646,14.662756598240469,9.775171065493646,4.887585532746823,14.662756598240469,0.0
19.550342130987293,4.887585532746823,9.775171065493646,4.887585532746823,9.775171065493646,4.887585532746823,0.0
0.0,34.21309872922776,4.887585532746823,14.662756598240469,4.887585532746823,0.0,0.0
0.0,83.08895405669598,4.887585532746823,29.325513196480937,9.775171065493646,4.887585532746823,43.98826979472141
9.775171065493646,19.550342130987293,39.100684261974585,14.662756598240469,0.0,9.775171065493646,29.325513196480937
29.325513196480937,4.887585532746823,24.437927663734115,9.775171065493646,4.887585532746823,63.53861192570871,9.775171065493646
43.98826979472141,39.100684261974585,9.775171065493646,4.887585532746823,4.887585532746823,34.21309872922776,0.0
29.325513196480937,73.31378299120234,4.887585532746823,9.775171065493646,34.21309872922776,14.662756598240469,0.0
4.887585532746823,39.100684261974585,4.887585532746823,29.325513196480937,9.775171065493646,4.887585532746823,39.100684261974585
0.0,9.775171065493646,24.437927663734115,14.662756598240469,9.775171065493646,4.887585532746823,48.87585532746823
4.887585532746823,4.887585532746823,48.87585532746823,0.0,9.775171065493646,14.662756598240469,4.887585532746823
58.651026392961874,4.887585532746823,4.887585532746823,9.775171065493646,14.662756598240469,19.550342130987293,4.887585532746823
39.100684261974585,53.763440860215056,0.0,0.0,14.662756598240469,24.437927663734115,4.887585532746823
9.775171065493646,14.662756598240469,4.887585532746823,14.662756598240469,4.887585532746823,0.0,39.100684261974585
9.775171065493646,4.887585532746823,24.437927663734115,34.21309872922776,0.0,9.775171065493646,39.100684261974585
4.887585532746823,4.887585532746823,48.87585532746823,4.887585532746823,9.775171065493646,0.0,4.887585532746823
24.437927663734115,4.887585532746823,9.775171065493646,9.775171065493646,0.0,34.21309872922776,9.775171065493646
29.325513196480937,102.63929618768329,0.0,4.887585532746823,14.662756598240469,53.763440860215056,4.887585532746823
14.662756598240469,14.662756598240469,4.887585532746823,4.887585532746823,19.550342130987293,14.662756598240469,9.775171065493646
0.0,0.0,48.87585532746823,14.662756598240469,0.0,4.887585532746823,58.651026392961874
0.0,4.887585532746823,24.437927663734115,9.775171065493646,14.662756598240469,0.0,4.887585532746823
24.437927663734115,0.0,175.95307917888564,9.775171065493646,0.0,29.325513196480937,9.775171065493646
39.100684261974585,19.550342130987293,9.775171065493646,4.887585532746823,4.887585532746823,34.21309872922776,4.887585532746823
4.887585532746823,87.97653958944282,4.887585532746823,0.0,4.887585532746823,9.775171065493646,19.550342130987293
9.775171065493646,14.662756598240469,9.775171065493646,24.437927663734115,0.0,0.0,63.53861192570871
0.0,9.775171065493646,39.100684261974585,43.98826979472141,4.887585532746823,4.887585532746823,19.550342130987293
9.775171065493646,4.887585532746823,14.662756598240469,9.775171065493646,4.887585532746823,0.0,4.887585532746823
43.98826979472141,87.97653958944282,0.0,4.887585532746823,4.887585532746823,0.0,9.775171065493646
14.662756598240469,14.662756598240469,4.887585532746823,4.887585532746823,29.325513196480937,63.53861192570871,19.550342130987293
4.887585532746823,9.775171065493646,34.21309872922776,14.662756598240469,34.21309872922776,19.550342130987293,48.87585532746823
0.0,0.0,43.98826979472141,19.550342130987293,9.775171065493646,4.887585532746823,24.437927663734115
4.887585532746823,9.775171065493646,4.887585532746823,4.887585532746823,4.887585532746823,0.0,9.775171065493646
48.87585532746823,48.87585532746823,4.887585532746823,0.0,0.0,19.550342130987293,0.0
9.775171065493646,29.325513196480937,4.887585532746823,0.0,19.550342130987293,0.0,14.662756598240469
9.775171065493646,4.887585532746823,112.41446725317694,9.775171065493646,4.887585532746823,9.775171065493646,43.98826979472141
9.775171065493646,4.887585532746823,34.21309872922776,34.21309872922776,9.775171065493646,4.887585532746823,9.775171065493646
9.775171065493646,0.0,9.775171065493646,14.662756598240469,0.0,4.887585532746823,0.0
48.87585532746823,53.763440860215056,58.651026392961874,4.887585532746823,4.887585532746823,0.0,0.0
9.775171065493646,9.775171065493646,4.887585532746823,0.0,9.775171065493646,14.662756598240469,9.775171065493646
4.887585532746823,4.887585532746823,34.21309872922776,4.887585532746823,24.437927663734115,4.887585532746823,43.98826979472141
9.775171065493646,4.887585532746823,83.08895405669598,24.437927663734115,9.775171065493646,0.0,19.550342130987293
4.887585532746823,4.887585532746823,4.887585532746823,24.437927663734115,4.887585532746823,19.550342130987293,0.0
39.100684261974585,9.775171065493646,87.97653958944282,9.775171065493646,19.550342130987293,9.775171065493646,0.0
53.763440860215056,29.325513196480937,4.887585532746823,9.775171065493646,4.887585532746823,14.662756598240469,4.887585532746823
4.887585532746823,58.651026392961874,156.40273704789834,4.887585532746823,9.775171065493646,4.887585532746823,24.437927663734115
9.775171065493646,9.775171065493646,97.75171065493646,9.775171065493646,4.887585532746823,4.887585532746823,48.87585532746823
4.887585532746823,9.775171065493646,43.98826979472141,24.437927663734115,4.887585532746823,4.887585532746823,14.662756598240469
48.87585532746823,127.07722385141741,14.662756598240469,9.775171065493646,4.887585532746823,9.775171065493646,0.0
9.775171065493646,19.550342130987293,14.662756598240469,4.887585532746823,4.887585532746823,9.775171065493646,9.775171065493646
0.0,9.775171065493646,39.100684261974585,4.887585532746823,29.325513196480937,4.887585532746823,39.100684261974585
4.887585532746823,9.775171065493646,14.662756598240469,0.0,29.325513196480937,9.775171065493646,48.87585532746823
4.887585532746823,0.0,151.51515151515153,43.98826979472141,4.887585532746823,4.887585532746823,4.887585532746823
43.98826979472141,48.87585532746823,53.763440860215056,9.775171065493646,4.887585532746823,4.887585532746823,4.887585532746823
34.21309872922776,24.437927663734115,102.63929618768329,4.887585532746823,4.887585532746823,4.887585532746823,0.0
9.775171065493646,4.887585532746823,63.53861192570871,4.887585532746823,4.887585532746823,9.775171065493646,39.100684261974585
14.662756598240469,4.887585532746823,87.97653958944282,0.0,9.775171065493646,14.662756598240469,58.651026392961874
4.887585532746823,9.775171065493646,4.887585532746823,34.21309872922776,4.887585532746823,9.775171065493646,4.887585532746823
43.98826979472141,43.98826979472141,19.550342130987293,19.550342130987293,4.887585532746823,4.887585532746823,4.887585532746823
58.651026392961874,29.325513196480937,78.20136852394917,4.887585532746823,4.887585532746823,4.887585532746823,4.887585532746823
9.775171065493646,9.775171065493646,24.437927663734115,4.887585532746823,4.887585532746823,4.887585532746823,24.437927663734115
9.775171065493646,9.775171065493646,4.887585532746823,9.775171065493646,39.100684261974585,9.775171065493646,34.21309872922776
4.887585532746823,0.0,9.775171065493646,24.437927663734115,29.325513196480937,9.775171065493646,9.775171065493646
39.100684261974585,39.100684261974585,14.662756598240469,29.325513196480937,14.662756598240469,4.887585532746823,0.0
14.662756598240469,141.73998044965788,48.87585532746823,14.662756598240469,4.887585532746823,0.0,4.887585532746823
9.775171065493646,43.98826979472141,4.887585532746823,4.887585532746823,4.887585532746823,4.887585532746823,14.662756598240469
4.887585532746823,4.887585532746823,4.887585532746823,9.775171065493646,9.775171065493646,39.100684261974585,43.98826979472141
4.887585532746823,4.887585532746823,0.0,9.775171065493646,4.887585532746823,9.775171065493646,24.437927663734115
24.437927663734115,4.887585532746823,34.21309872922776,19.550342130987293,0.0,4.887585532746823,9.775171065493646
43.98826979472141,29.325513196480937,97.75171065493646,4.887585532746823,0.0,4.887585532746823,4.887585532746823
4.887585532746823,39.100684261974585,9.775171065493646,4.887585532746823,0.0,0.0,9.775171065493646
0.0,9.775171065493646,9.775171065493646,9.775171065493646,4.887585532746823,4.887585532746823,29.325513196480937
4.887585532746823,0.0,4.887585532746823,4.887585532746823,9.775171065493646,24.437927663734115,39.100684261974585
24.437927663734115,9.775171065493646,4.887585532746823,19.550342130987293,29.325513196480937,0.0,14.662756598240469
48.87585532746823,58.651026392961874,19.550342130987293,14.662756598240469,14.662756598240469,9.775171065493646,4.887585532746823
29.325513196480937,4.887585532746823,9.775171065493646,4.887585532746823,14.662756598240469,58.651026392961874,0.0
0.0,0.0,9.775171065493646,0.0,4.887585532746823,14.662756598240469,24.437927663734115
9.775171065493646,4.887585532746823,9.775171065493646,4.887585532746823,9.775171065493646,43.98826979472141,58.651026392961874
9.775171065493646,4.887585532746823,4.887585532746823,0.0,19.550342130987293,14.662756598240469,14.662756598240469
53.763440860215056,87.97653958944282,19.550342130987293,29.325513196480937,9.775171065493646,9.775171065493646,4.887585532746823
14.662756598240469,19.550342130987293,39.100684261974585,9.775171065493646,9.775171065493646,0.0,0.0
4.887585532746823,4.887585532746823,4.887585532746823,9.775171065493646,14.662756598240469,19.550342130987293,29.325513196480937
4.887585532746823,4.887585532746823,9.775171065493646,9.775171065493646,19.550342130987293,14.662756598240469,58.651026392961874
4.887585532746823,39.100684261974585,4.887585532746823,4.887585532746823,48.87585532746823,4.887585532746823,0.0
39.100684261974585,92.86412512218965,24.437927663734115,14.662756598240469,9.775171065493646,14.662756598240469,4.887585532746823
14.662756598240469,9.775171065493646,73.31378299120234,4.887585532746823,0.0,63.53861192570871,0.0
4.887585532746823,4.887585532746823,14.662756598240469,0.0,9.775171065493646,14.662756598240469,24.437927663734115
4.887585532746823,4.887585532746823,9.775171065493646,9.775171065493646,9.775171065493646,14.662756598240469,43.98826979472141
9.775171065493646,9.775171065493646,43.98826979472141,4.887585532746823,14.662756598240469,24.437927663734115,9.775171065493646
63.53861192570871,39.100684261974585,19.550342130987293,19.550342130987293,0.0,9.775171065493646,9.775171065493646
24.437927663734115,14.662756598240469,63.53861192570871,29.325513196480937,4.887585532746823,4.887585532746823,4.887585532746823
14.662756598240469,43.98826979472141,19.550342130987293,4.887585532746823,0.0,4.887585532746823,0.0
4.887585532746823,9.775171065493646,9.775171065493646,4.887585532746823,9.775171065493646,9.775171065493646,58.651026392961874
9.775171065493646,4.887585532746823,58.651026392961874,0.0,14.662756598240469,9.775171065493646,14.662756598240469
53.763440860215056,24.437927663734115,4.887585532746823,14.662756598240469,4.887585532746823,4.887585532746823,0.0
34.21309872922776,63.53861192570871,68.42619745845552,19.550342130987293,4.887585532746823,0.0,9.775171065493646
4.887585532746823,4.887585532746823,9.775171065493646,9.775171065493646,4.887585532746823,4.887585532746823,9.775171065493646
9.775171065493646,97.75171065493646,9.775171065493646,4.887585532746823,4.887585532746823,9.775171065493646,53.763440860215056
0.0,48.87585532746823,4.887585532746823,4.887585532746823,9.775171065493646,4.887585532746823,19.550342130987293
34.21309872922776,68.42619745845552,63.53861192570871,4.887585532746823,14.662756598240469,4.887585532746823,4.887585532746823
39.100684261974585,9.775171065493646,14.662756598240469,14.662756598240469,9.775171065493646,4.887585532746823,9.775171065493646
4.887585532746823,19.550342130987293,24.437927663734115,14.662756598240469,0.0,0.0,9.775171065493646
4.887585532746823,4.887585532746823,39.100684261974585,9.775171065493646,4.887585532746823,4.887585532746823,48.87585532746823
4.887585532746823,4.887585532746823,14.662756598240469,9.775171065493646,9.775171065493646,4.887585532746823,14.662756598240469
39.100684261974585,24.437927663734115,131.96480938416423,4.887585532746823,4.887585532746823,9.775171065493646,0.0
58.651026392961874,73.31378299120234,14.662756598240469,0.0,9.775171065493646,14.662756598240469,9.775171065493646
19.550342130987293,9.775171065493646,24.437927663734115,39.100684261974585,9.775171065493646,43.98826979472141,9.775171065493646
9.775171065493646,14.662756598240469,29.325513196480937,0.0,9.775171065493646,19.550342130987293,39.100684261974585
9.775171065493646,24.437927663734115,4.887585532746823,4.887585532746823,14.662756598240469,9.775171065493646,29.325513196480937
0.0,58.651026392961874,24.437927663734115,4.887585532746823,4.887585532746823,4.887585532746823,4.887585532746823
14.662756598240469,9.775171065493646,24.437927663734115,24.437927663734115,0.0,0.0,4.887585532746823
19.550342130987293,0.0,14.662756598240469,29.325513196480937,0.0,9.775171065493646,0.0
0.0,9.775171065493646,9.775171065493646,9.775171065493646,0.0,0.0,53.763440860215056
4.887585532746823,39.100684261974585,0.0,4.887585532746823,14.662756598240469,39.100684261974585,34.21309872922776
4.887585532746823,58.651026392961874,19.550342130987293,0.0,0.0,19.550342130987293,4.887585532746823
48.87585532746823,9.775171065493646,53.763440860215056,0.0,0.0,4.887585532746823,9.775171065493646
4.887585532746823,0.0,127.07722385141741,34.21309872922776,4.887585532746823,4.887585532746823,0.0
9.775171065493646,9.775171065493646,73.31378299120234,9.775171065493646,0.0,9.775171065493646,34.21309872922776
4.887585532746823,19.550342130987293,9.775171065493646,4.887585532746823,0.0,53.763440860215056,19.550342130987293
0.0,24.437927663734115,19.550342130987293,0.0,9.775171065493646,4.887585532746823,9.775171065493646
58.651026392961874,48.87585532746823,14.662756598240469,4.887585532746823,9.775171065493646,4.887585532746823,4.887585532746823
14.662756598240469,0.0,4.887585532746823,4.887585532746823,4.887585532746823,0.0,9.775171065493646
9.775171065493646,0.0,4.887585532746823,14.662756598240469,0.0,4.887585532746823,24.437927663734115
4.887585532746823,14.662756598240469,39.100684261974585,9.775171065493646,9.775171065493646,4.887585532746823,48.87585532746823
24.437927663734115,78.20136852394917,24.437927663734115,4.887585532746823,0.0,0.0,9.775171065493646
43.98826979472141,9.775171065493646,9.775171065493646,4.887585532746823,4.887585532746823,4.887585532746823,9.775171065493646
9.775171065493646,4.887585532746823,9.775171065493646,14.662756598240469,4.887585532746823,4.887585532746823,4.887585532746823
4.887585532746823,9.775171065493646,29.325513196480937,29.325513196480937,9.775171065493646,4.887585532746823,19.550342130987293
0.0,9.775171065493646,4.887585532746823,14.662756598240469,4.887585532746823,4.887585532746823,43.98826979472141
0.0,58.651026392961874,9.775171065493646,0.0,4.887585532746823,24.437927663734115,9.775171065493646
43.98826979472141,29.325513196480937,58.651026392961874,4.887585532746823,29.325513196480937,14.662756598240469,9.775171065493646
39.100684261974585,9.775171065493646,14.662756598240469,0.0,14.662756598240469,9.775171065493646,0.0
4.887585532746823,0.0,9.775171065493646,34.21309872922776,4.887585532746823,9.775171065493646,14.662756598240469
4.887585532746823,58.651026392961874,0.0,9.775171065493646,4.887585532746823,4.887585532746823,48.87585532746823
4.887585532746823,43.98826979472141,4.887585532746823,9.775171065493646,4.887585532746823,83.08895405669598,14.662756598240469
9.775171065493646,14.662756598240469,39.100684261974585,4.887585532746823,14.662756598240469,24.437927663734115,0.0
43.98826979472141,9.775171065493646,58.651026392961874,4.887585532746823,9.775171065493646,9.775171065493646,0.0
4.887585532746823,0.0,34.21309872922776,14.662756598240469,19.550342130987293,9.775171065493646,9.775171065493646
0.0,19.550342130987293,4.887585532746823,29.325513196480937,9.775171065493646,0.0,39.100684261974585
4.887585532746823,73.31378299120234,19.550342130987293,4.887585532746823,0.0,43.98826979472141,19.550342130987293
9.775171065493646,9.775171065493646,48.87585532746823,0.0,0.0,4.887585532746823,4.887585532746823
43.98826979472141,9.775171065493646,78.20136852394917,0.0,19.550342130987293,9.775171065493646,9.775171065493646
43.98826979472141,4.887585532746823,19.550342130987293,4.887585532746823,24.437927663734115,4.887585532746823,4.887585532746823
9.775171065493646,19.550342130987293,4.887585532746823,19.550342130987293,4.887585532746823,0.0,43.98826979472141
0.0,112.41446725317694,78.20136852394917,4.887585532746823,4.887585532746823,34.21309872922776,39.100684261974585
0.0,19.550342130987293,14.662756598240469,4.887585532746823,4.887585532746823,58.651026392961874,9.775171065493646
19.550342130987293,0.0,4.887585532746823,9.775171065493646,4.887585532746823,9.775171065493646,9.775171065493646
58.651026392961874,4.887585532746823,0.0,9.775171065493646,14.662756598240469,4.887585532746823,4.887585532746823
9.775171065493646,43.98826979472141,9.775171065493646,24.437927663734115,4.887585532746823,4.887585532746823,19.550342130987293
9.775171065493646,58.651026392961874,39.100684261974585,14.662756598240469,4.887585532746823,34.21309872922776,48.87585532746823
4.887585532746823,14.662756598240469,34.21309872922776,9.775171065493646,4.887585532746823,9.775171065493646,4.887585532746823
48.87585532746823,4.887585532746823,4.887585532746823,4.887585532746823,19.550342130987293,4.887585532746823,9.775171065493646
53.763440860215056,4.887585532746823,0.0,0.0,9.775171065493646,39.100684261974585,9.775171065493646
9.775171065493646,19.550342130987293,9.775171065493646,19.550342130987293,9.775171065493646,4.887585532746823,24.437927663734115
0.0,34.21309872922776,24.437927663734115,29.325513196480937,4.887585532746823,4.887585532746823,43.98826979472141
4.887585532746823,9.775171065493646,48.87585532746823,4.887585532746823,4.887585532746823,9.775171065493646,9.775171065493646
48.87585532746823,4.887585532746823,0.0,4.887585532746823,0.0,58.651026392961874,9.775171065493646
14.662756598240469,9.775171065493646,9.775171065493646,9.775171065493646,4.887585532746823,9.775171065493646,9.775171065493646
9.775171065493646,14.662756598240469,9.775171065493646,4.887585532746823,0.0,4.887585532746823,14.662756598240469
4.887585532746823,78.20136852394917,34.21309872922776,29.325513196480937,4.887585532746823,34.21309872922776,53.763440860215056
9.775171065493646,14.662756598240469,34.21309872922776,9.775171065493646,9.775171065493646,4.887585532746823,0.0
48.87585532746823,4.887585532746823,4.887585532746823,4.887585532746823,4.887585532746823,4.887585532746823,9.775171065493646
19.550342130987293,4.887585532746823,4.887585532746823,0.0,19.550342130987293,9.775171065493646,4.887585532746823
4.887585532746823,0.0,53.763440860215056,0.0,4.887585532746823,9.775171065493646,19.550342130987293
4.887585532746823,58.651026392961874,9.775171065493646,29.325513196480937,9.775171065493646,34.21309872922776,48.87585532746823
4.887585532746823,14.662756598240469,24.437927663734115,29.325513196480937,0.0,19.550342130987293,19.550342130987293
34.21309872922776,9.775171065493646,78.20136852394917,4.887585532746823,4.887585532746823,9.775171065493646,0.0
4.887585532746823,4.887585532746823,9.775171065493646,9.775171065493646,9.775171065493646,9.775171065493646,0.0
14.662756598240469,9.775171065493646,9.775171065493646,4.887585532746823,39.100684261974585,4.887585532746823,14.662756598240469
4.887585532746823,39.100684261974585,14.662756598240469,19.550342130987293,4.887585532746823,4.887585532746823,58.651026392961874
4.887585532746823,19.550342130987293,34.21309872922776,14.662756598240469,0.0,9.775171065493646,9.775171065493646
19.550342130987293,4.887585532746823,4.887585532746823,4.887585532746823,4.887585532746823,29.325513196480937,4.887585532746823
29.325513196480937,9.775171065493646,0.0,4.887585532746823,4.887585532746823,4.887585532746823,4.887585532746823
9.775171065493646,14.662756598240469,9.775171065493646,4.887585532746823,4.887585532746823,4.887585532746823,14.662756598240469
9.775171065493646,14.662756598240469,9.775171065493646,9.775171065493646,29.325513196480937,9.775171065493646,48.87585532746823
4.887585532746823,48.87585532746823,24.437927663734115,14.662756598240469,9.775171065493646,9.775171065493646,9.775171065493646
4.887585532746823,24.437927663734115,9.775171065493646,9.775171065493646,9.775171065493646,4.887585532746823,4.887585532746823
58.651026392961874,4.887585532746823,0.0,4.887585532746823,9.775171065493646,29.325513196480937,0.0
4.887585532746823,9.775171065493646,9.775171065493646,4.887585532746823,4.887585532746823,9.775171065493646,9.775171065493646
0.0,43.98826979472141,0.0,4.887585532746823,24.437927663734115,4.887585532746823,48.87585532746823
4.887585532746823,39.100684261974585,48.87585532746823,29.325513196480937,4.887585532746823,4.887585532746823,14.662756598240469
19.550342130987293,48.87585532746823,19.550342130987293,4.887585532746823,0.0,0.0,0.0
83.08895405669598,4.887585532746823,4.887585532746823,4.887585532746823,4.887585532746823,4.887585532746823,4.887585532746823
14.662756598240469,4.887585532746823,4.887585532746823,0.0,0.0,14.662756598240469,9.775171065493646
0.0,117.30205278592375,9.775171065493646,9.775171065493646,4.887585532746823,4.887585532746823,53.763440860215056
9.775171065493646,39.100684261974585,53.763440860215056,14.662756598240469,9.775171065493646,0.0,9.775171065493646
24.437927663734115,4.887585532746823,29.325513196480937,19.550342130987293,9.775171065493646,39.100684261974585,9.775171065493646
48.87585532746823,4.887585532746823,53.763440860215056,9.775171065493646,9.775171065493646,19.550342130987293,4.887585532746823
9.775171065493646,0.0,9.775171065493646,0.0,9.775171065493646,4.887585532746823,9.775171065493646
4.887585532746823,48.87585532746823,43.98826979472141,0.0,4.887585532746823,9.775171065493646,53.763440860215056
0.0,53.763440860215056,53.763440860215056,14.662756598240469,19.550342130987293,9.775171065493646,14.662756598240469
24.437927663734115,14.662756598240469,39.100684261974585,24.437927663734115,53.763440860215056,19.550342130987293,4.887585532746823
58.651026392961874,4.887585532746823,19.550342130987293,9.775171065493646,4.887585532746823,29.325513196480937,0.0
4.887585532746823,9.775171065493646,0.0,9.775171065493646,4.887585532746823,14.662756598240469,9.775171065493646
9.775171065493646,53.763440860215056,0.0,4.887585532746823,4.887585532746823,4.887585532746823,58.651026392961874
4.887585532746823,34.21309872922776,29.325513196480937,4.887585532746823,9.775171065493646,4.887585532746823,14.662756598240469
24.437927663734115,9.775171065493646,73.31378299120234,9.775171065493646,0.0,4.887585532746823,9.775171065493646
43.98826979472141,4.887585532746823,14.662756598240469,9.775171065493646,9.775171065493646,29.325513196480937,4.887585532746823
9.775171065493646,9.775171065493646,4.887585532746823,4.887585532746823,4.887585532746823,14.662756598240469,0.0
0.0,48.87585532746823,19.550342130987293,4.887585532746823,39.100684261974585,14.662756598240469,34.21309872922776
9.775171065493646,29.325513196480937,39.100684261974585,0.0,9.775171065493646,24.437927663734115,14.662756598240469
14.662756598240469,4.887585532746823,68.42619745845552,14.662756598240469,4.887585532746823,4.887585532746823,0.0
39.100684261974585,4.887585532746823,34.21309872922776,19.550342130987293,9.775171065493646,19.550342130987293,4.887585532746823
9.775171065493646,4.887585532746823,9.775171065493646,4.887585532746823,0.0,14.662756598240469,9.775171065493646
9.775171065493646,58.651026392961874,4.887585532746823,9.775171065493646,19.550342130987293,14.662756598240469,43.98826979472141
4.887585532746823,9.775171065493646,48.87585532746823,4.887585532746823,19.550342130987293,4.887585532746823,29.325513196480937
9.775171065493646,4.887585532746823,4.887585532746823,9.775171065493646,9.775171065493646,0.0,0.0
29.325513196480937,0.0,9.775171065493646,34.21309872922776,9.775171065493646,14.662756598240469,4.887585532746823
19.550342130987293,19.550342130987293,9.775171065493646,9.775171065493646,0.0,4.887585532746823,4.887585532746823
0.0,43.98826979472141,9.775171065493646,4.887585532746823,4.887585532746823,4.887585532746823,9.775171065493646
9.775171065493646,43.98826979472141,39.100684261974585,4.887585532746823,4.887585532746823,78.20136852394917,34.21309872922776
0.0,9.775171065493646,9.775171065493646,0.0,4.887585532746823,14.662756598240469,9.775171065493646
19.550342130987293,4.887585532746823,9.775171065493646,19.550342130987293,0.0,9.775171065493646,4.887585532746823
68.42619745845552,9.775171065493646,19.550342130987293,14.662756598240469,9.775171065493646,4.887585532746823,0.0
9.775171065493646,39.100684261974585,63.53861192570871,4.887585532746823,9.775171065493646,29.325513196480937,4.887585532746823
4.887585532746823,34.21309872922776,39.100684261974585,9.775171065493646,24.437927663734115,0.0,58.651026392961874
0.0,14.662756598240469,14.662756598240469,4.887585532746823,19.550342130987293,0.0,19.550342130987293
19.550342130987293,4.887585532746823,4.887585532746823,19.550342130987293,4.887585532746823,4.887585532746823,9.775171065493646
58.651026392961874,4.887585532746823,9.775171065493646,9.775171065493646,4.887585532746823,14.662756598240469,9.775171065493646
4.887585532746823,29.325513196480937,9.775171065493646,9.775171065493646,9.775171065493646,9.775171065493646,14.662756598240469
4.887585532746823,19.550342130987293,34.21309872922776,4.887585532746823,4.887585532746823,0.0,39.100684261974585
0.0,83.08895405669598,24.437927663734115,4.887585532746823,14.662756598240469,24.437927663734115,19.550342130987293
19.550342130987293,14.662756598240469,9.775171065493646,9.775171065493646,9.775171065493646,34.21309872922776,4.887585532746823
58.651026392961874,4.887585532746823,4.887585532746823,19.550342130987293,9.775171065493646,19.550342130987293,0.0
9.775171065493646,39.100684261974585,9.775171065493646,4.887585532746823,4.887585532746823,0.0,4.887585532746823
4.887585532746823,87.97653958944282,4.887585532746823,9.775171065493646,14.662756598240469,0.0,29.325513196480937
14.662756598240469,19.550342130987293,78.20136852394917,4.887585532746823,0.0,0.0,34.21309872922776
9.775171065493646,4.887585532746823,14.662756598240469,0.0,9.775171065493646,4.887585532746823,9.775171065493646
43.98826979472141,0.0,4.887585532746823,34.21309872922776,0.0,29.325513196480937,9.775171065493646
9.775171065493646,9.775171065493646,9.775171065493646,24.437927663734115,24.437927663734115,9.775171065493646,0.0
9.775171065493646,53.763440860215056,29.325513196480937,9.775171065493646,9.775171065493646,4.887585532746823,24.437927663734115
4.887585532746823,29.325513196480937,43.98826979472141,4.887585532746823,4.887585532746823,0.0,48.87585532746823
0.0,4.887585532746823,14.662756598240469,4.887585532746823,14.662756598240469,14.662756598240469,9.775171065493646
53.763440860215056,0.0,4.887585532746823,9.775171065493646,9.775171065493646,9.775171065493646,0.0
24.437927663734115,9.775171065493646,0.0,19.550342130987293,9.775171065493646,9.775171065493646,4.887585532746823
4.887585532746823,58.651026392961874,0.0,4.887585532746823,9.775171065493646,4.887585532746823,19.550342130987293
4.887585532746823,34.21309872922776,39.100684261974585,9.775171065493646,0.0,24.437927663734115,58.651026392961874
0.0,9.775171065493646,24.437927663734115,4.887585532746823,24.437927663734115,4.887585532746823,19.550342130987293
39.100684261974585,0.0,9.775171065493646,4.887585532746823,4.887585532746823,0.0,0.0
48.87585532746823,0.0,19.550342130987293,29.325513196480937,9.775171065493646,4.887585532746823,0.0
4.887585532746823,78.20136852394917,4.887585532746823,4.887585532746823,4.887585532746823,68.42619745845552,24.437927663734115
0.0,39.100684261974585,48.87585532746823,9.775171065493646,14.662756598240469,9.775171065493646,68.42619745845552
4.887585532746823,9.775171065493646,14.662756598240469,4.887585532746823,4.887585532746823,14.662756598240469,14.662756598240469
43.98826979472141,9.775171065493646,14.662756598240469,14.662756598240469,4.887585532746823,9.775171065493646,0.0
24.437927663734115,4.887585532746823,4.887585532746823,24.437927663734115,43.98826979472141,24.437927663734115,0.0
9.775171065493646,9.775171065493646,4.887585532746823,14.662756598240469,9.775171065493646,9.775171065493646,19.550342130987293
0.0,73.31378299120234,14.662756598240469,9.775171065493646,4.887585532746823,19.550342130987293,53.763440860215056
0.0,4.887585532746823,39.100684261974585,4.887585532746823,4.887585532746823,4.887585532746823,9.775171065493646
48.87585532746823,4.887585532746823,4.887585532746823,0.0,14.662756598240469,9.775171065493646,0.0
29.325513196480937,34.21309872922776,9.775171065493646,0.0,14.662756598240469,9.775171065493646,9.775171065493646
9.775171065493646,53.763440860215056,9.775171065493646,24.437927663734115,0.0,43.98826979472141,19.550342130987293
4.887585532746823,9.775171065493646,24.437927663734115,0.0,4.887585532746823,9.775171065493646,53.763440860215056
4.887585532746823,4.887585532746823,39.100684261974585,9.775171065493646,9.775171065493646,0.0,19.550342130987293
24.437927663734115,0.0,14.662756598240469,9.775171065493646,4.887585532746823,34.21309872922776,4.887585532746823
39.100684261974585,9.775171065493646,4.887585532746823,4.887585532746823,34.21309872922776,9.775171065493646,0.0
0.0,78.20136852394917,9.775171065493646,19.550342130987293,9.775171065493646,4.887585532746823,19.550342130987293
9.775171065493646,4.887585532746823,9.775171065493646,19.550342130987293,0.0,4.887585532746823,63.53861192570871
14.662756598240469,9.775171065493646,29.325513196480937,0.0,4.887585532746823,39.100684261974585,14.662756598240469
9.775171065493646,4.887585532746823,4.887585532746823,4.887585532746823,29.325513196480937,9.775171065493646,0.0
53.763440860215056,9.775171065493646,0.0,9.775171065493646,19.550342130987293,4.887585532746823,0.0
14.662756598240469,73.31378299120234,0.0,19.550342130987293,9.775171065493646,9.775171065493646,14.662756598240469
9.775171065493646,9.775171065493646,29.325513196480937,19.550342130987293,4.887585532746823,9.775171065493646,43.98826979472141
4.887585532746823,4.887585532746823,43.98826979472141,9.775171065493646,4.887585532746823,4.887585532746823,24.437927663734115
9.775171065493646,0.0,34.21309872922776,4.887585532746823,0.0,4.887585532746823,9.775171065493646
53.763440860215056,34.21309872922776,29.325513196480937,9.775171065493646,4.887585532746823,0.0,9.775171065493646
29.325513196480937,39.100684261974585,34.21309872922776,9.775171065493646,19.550342130987293,34.21309872922776,4.887585532746823
4.887585532746823,14.662756598240469,4.887585532746823,24.437927663734115,73.31378299120234,43.98826979472141,39.100684261974585
0.0,9.775171065493646,29.325513196480937,4.887585532746823,14.662756598240469,9.775171065493646,29.325513196480937
4.887585532746823,14.662756598240469,39.100684261974585,0.0,4.887585532746823,4.887585532746823,4.887585532746823
43.98826979472141,0.0,9.775171065493646,4.887585532746823,34.21309872922776,43.98826979472141,0.0
9.775171065493646,48.87585532746823,9.775171065493646,4.887585532746823,9.775171065493646,4.887585532746823,4.887585532746823
4.887585532746823,39.100684261974585,0.0,9.775171065493646,0.0,9.775171065493646,19.550342130987293
0.0,9.775171065493646,9.775171065493646,4.887585532746823,9.775171065493646,14.662756598240469,43.98826979472141
19.550342130987293,9.775171065493646,53.763440860215056,4.887585532746823,0.0,9.775171065493646,9.775171065493646
48.87585532746823,4.887585532746823,19.550342130987293,4.887585532746823,9.775171065493646,0.0,0.0
14.662756598240469,48.87585532746823,9.775171065493646,4.887585532746823,4.887585532746823,0.0,0.0
9.775171065493646,14.662756598240469,4.887585532746823,29.325513196480937,9.775171065493646,9.775171065493646,14.662756598240469
4.887585532746823,4.887585532746823,9.775171065493646,24.437927663734115,0.0,19.550342130987293,48.87585532746823
9.775171065493646,0.0,34.21309872922776,4.887585532746823,4.887585532746823,9.775171065493646,9.775171065493646
43.98826979472141,9.775171065493646,19.550342130987293,4.887585532746823,92.86412512218965,19.550342130987293,0.0
29.325513196480937,9.775171065493646,4.887585532746823,9.775171065493646,34.21309872922776,9.775171065493646,4.887585532746823
9.775171065493646,83.08895405669598,0.0,19.550342130987293,9.775171065493646,19.550342130987293,14.662756598240469
9.775171065493646,9.775171065493646,4.887585532746823,24.437927663734115,9.775171065493646,78.20136852394917,39.100684261974585
4.887585532746823,4.887585532746823,29.325513196480937,9.775171065493646,0.0,4.887585532746823,19.550342130987293
24.437927663734115,0.0,53.763440860215056,0.0,14.662756598240469,4.887585532746823,0.0
48.87585532746823,24.437927663734115,9.775171065493646,4.887585532746823,9.775171065493646,48.87585532746823,4.887585532746823
9.775171065493646,92.86412512218965,4.887585532746823,9.775171065493646,0.0,4.887585532746823,9.775171065493646
9.775171065493646,4.887585532746823,0.0,19.550342130987293,4.887585532746823,14.662756598240469,53.763440860215056
0.0,4.887585532746823,43.98826979472141,4.887585532746823,0.0,4.887585532746823,14.662756598240469
19.550342130987293,9.775171065493646,107.52688172043011,4.887585532746823,9.775171065493646,0.0,4.887585532746823
43.98826979472141,34.21309872922776,24.437927663734115,4.887585532746823,24.437927663734115,0.0,9.775171065493646
4.887585532746823,73.31378299120234,4.887585532746823,0.0,4.887585532746823,4.887585532746823,4.887585532746823
4.887585532746823,4.887585532746823,0.0,34.21309872922776,4.887585532746823,4.887585532746823,53.763440860215056
9.775171065493646,0.0,29.325513196480937,19.550342130987293,4.887585532746823,39.100684261974585,14.662756598240469
9.775171065493646,9.775171065493646,34.21309872922776,4.887585532746823,4.887585532746823,14.662756598240469,4.887585532746823
43.98826979472141,58.651026392961874,4.887585532746823,0.0,4.887585532746823,14.662756598240469,4.887585532746823
34.21309872922776,29.325513196480937,4.887585532746823,4.887585532746823,0.0,43.98826979472141,9.775171065493646
14.662756598240469,9.775171065493646,0.0,9.775171065493646,9.775171065493646,24.437927663734115,48.87585532746823
9.775171065493646,73.31378299120234,14.662756598240469,19.550342130987293,4.887585532746823,4.887585532746823,39.100684261974585
4.887585532746823,43.98826979472141,73.31378299120234,4.887585532746823,29.325513196480937,9.775171065493646,4.887585532746823
29.325513196480937,4.887585532746823,4.887585532746823,4.887585532746823,9.775171065493646,4.887585532746823,0.0
24.437927663734115,4.887585532746823,0.0,9.775171065493646,9.775171065493646,0.0,0.0
4.887585532746823,117.30205278592375,14.662756598240469,14.662756598240469,0.0,29.325513196480937,53.763440860215056
4.887585532746823,63.53861192570871,19.550342130987293,29.325513196480937,4.887585532746823,53.763440860215056,19.550342130987293
0.0,19.550342130987293,53.763440860215056,4.887585532746823,9.775171065493646,9.775171065493646,4.887585532746823
29.325513196480937,425.2199413489736,9.775171065493646,4.887585532746823,9.775171065493646,0.0,4.887585532746823
53.763440860215056,102.63929618768329,0.0,4.887585532746823,19.550342130987293,0.0,4.887585532746823
14.662756598240469,151.51515151515153,9.775171065493646,4.887585532746823,9.775171065493646,14.662756598240469,43.98826979472141
9.775171065493646,14.662756598240469,39.100684261974585,19.550342130987293,4.887585532746823,63.53861192570871,39.100684261974585
4.887585532746823,469.208211143695,48.87585532746823,29.325513196480937,14.662756598240469,4.887585532746823,14.662756598240469
29.325513196480937,29.325513196480937,4.887585532746823,9.775171065493646,0.0,4.887585532746823,0.0
39.100684261974585,9.775171065493646,0.0,0.0,29.325513196480937,0.0,0.0
14.662756598240469,43.98826979472141,4.887585532746823,9.775171065493646,4.887585532746823,4.887585532746823,39.100684261974585
4.887585532746823,43.98826979472141,4.887585532746823,19.550342130987293,4.887585532746823,53.763440860215056,48.87585532746823
4.887585532746823,112.41446725317694,29.325513196480937,24.437927663734115,0.0,4.887585532746823,9.775171065493646
9.775171065493646,87.97653958944282,24.437927663734115,9.775171065493646,9.775171065493646,0.0,9.775171065493646
43.98826979472141,332.35581622678393,14.662756598240469,9.775171065493646,0.0,0.0,9.775171065493646
24.437927663734115,14.662756598240469,9.775171065493646,4.887585532746823,0.0,14.662756598240469,29.325513196480937
0.0,136.85239491691104,0.0,4.887585532746823,9.775171065493646,14.662756598240469,43.98826979472141
4.887585532746823,156.40273704789834,24.437927663734115,29.325513196480937,9.775171065493646,9.775171065493646,9.775171065493646
4.887585532746823,200.39100684261973,29.325513196480937,19.550342130987293,4.887585532746823,4.887585532746823,4.887585532746823
48.87585532746823,239.49169110459434,4.887585532746823,4.887585532746823,0.0,0.0,4.887585532746823
19.550342130987293,34.21309872922776,4.887585532746823,4.887585532746823,4.887585532746823,9.775171065493646,4.887585532746823
4.887585532746823,14.662756598240469,4.887585532746823,4.887585532746823,4.887585532746823,39.100684261974585,48.87585532746823
0.0,180.84066471163246,43.98826979472141,29.325513196480937,9.775171065493646,24.437927663734115,24.437927663734115
4.887585532746823,200.39100684261973,53.763440860215056,29.325513196480937,0.0,14.662756598240469,4.887585532746823
34.21309872922776,48.87585532746823,14.662756598240469,4.887585532746823,4.887585532746823,0.0,9.775171065493646
39.100684261974585,141.73998044965788,4.887585532746823,0.0,9.775171065493646,48.87585532746823,19.550342130987293
9.775171065493646,39.100684261974585,4.887585532746823,9.775171065493646,4.887585532746823,29.325513196480937,48.87585532746823
9.775171065493646,151.51515151515153,58.651026392961874,34.21309872922776,4.887585532746823,29.325513196480937,9.775171065493646
4.887585532746823,962.8543499511242,29.325513196480937,9.775171065493646,9.775171065493646,58.651026392961874,4.887585532746823
4.887585532746823,43.98826979472141,9.775171065493646,4.887585532746823,9.775171065493646,9.775171065493646,9.775171065493646
48.87585532746823,1129.032258064516,4.887585532746823,0.0,43.98826979472141,0.0,9.775171065493646
14.662756598240469,48.87585532746823,4.887585532746823,4.887585532746823,9.775171065493646,9.775171065493646,39.100684261974585
0.0,185.7282502443793,34.21309872922776,9.775171065493646,4.887585532746823,4.887585532746823,9.775171065493646
9.775171065493646,4.887585532746823,43.98826979472141,34.21309872922776,4.887585532746823,9.775171065493646,9.775171065493646
19.550342130987293,733.1378299120234,14.662756598240469,19.550342130987293,9.775171065493646,0.0,0.0
34.21309872922776,332.35581622678393,9.775171065493646,9.775171065493646,19.550342130987293,0.0,9.775171065493646
19.550342130987293,122.18963831867057,4.887585532746823,4.887585532746823,29.325513196480937,58.651026392961874,29.325513196480937
9.775171065493646,552.297165200391,63.53861192570871,4.887585532746823,4.887585532746823,29.325513196480937,24.437927663734115
4.887585532746823,161.29032258064515,9.775171065493646,24.437927663734115,4.887585532746823,4.887585532746823,9.775171065493646
0.0,34.21309872922776,9.775171065493646,24.437927663734115,4.887585532746823,0.0,9.775171065493646
53.763440860215056,9.775171065493646,9.775171065493646,9.775171065493646,14.662756598240469,39.100684261974585,9.775171065493646
29.325513196480937,283.47996089931576,4.887585532746823,0.0,9.775171065493646,19.550342130987293,39.100684261974585
14.662756598240469,948.1915933528836,14.662756598240469,4.887585532746823,14.662756598240469,9.775171065493646,53.763440860215056
4.887585532746823,43.98826979472141,48.87585532746823,14.662756598240469,9.775171065493646,14.662756598240469,14.662756598240469
0.0,4.887585532746823,14.662756598240469,29.325513196480937,0.0,117.30205278592375,4.887585532746823
43.98826979472141,586.5102639296188,4.887585532746823,9.775171065493646,4.887585532746823,34.21309872922776,0.0
19.550342130987293,185.7282502443793,4.887585532746823,9.775171065493646,4.887585532746823,146.6275659824047,24.437927663734115
4.887585532746823,1265.884652981427,9.775171065493646,4.887585532746823,4.887585532746823,19.550342130987293,53.763440860215056
9.775171065493646,376.3440860215054,83.08895405669598,9.775171065493646,39.100684261974585,9.775171065493646,14.662756598240469
0.0,19.550342130987293,4.887585532746823,29.325513196480937,9.775171065493646,4.887585532746823,9.775171065493646
34.21309872922776,645.1612903225806,9.775171065493646,9.775171065493646,14.662756598240469,4.887585532746823,4.887585532746823
48.87585532746823,171.0654936461388,0.0,4.887585532746823,4.887585532746823,14.662756598240469,19.550342130987293
4.887585532746823,576.7350928641251,19.550342130987293,4.887585532746823,14.662756598240469,19.550342130987293,48.87585532746823
0.0,288.36754643206257,43.98826979472141,9.775171065493646,4.887585532746823,0.0,4.887585532746823
4.887585532746823,376.3440860215054,14.662756598240469,34.21309872922776,14.662756598240469,4.887585532746823,4.887585532746823
34.21309872922776,117.30205278592375,9.775171065493646,29.325513196480937,9.775171065493646,0.0,0.0
29.325513196480937,78.20136852394917,0.0,4.887585532746823,14.662756598240469,4.887585532746823,9.775171065493646
9.775171065493646,1011.7302052785923,9.775171065493646,4.887585532746823,19.550342130987293,19.550342130987293,39.100684261974585
4.887585532746823,34.21309872922776,43.98826979472141,4.887585532746823,9.775171065493646,127.07722385141741,14.662756598240469
0.0,386.119257086999,53.763440860215056,24.437927663734115,0.0,14.662756598240469,4.887585532746823
14.662756598240469,312.8054740957967,4.887585532746823,29.325513196480937,0.0,0.0,4.887585532746823
48.87585532746823,865.1026392961877,4.887585532746823,0.0,4.887585532746823,4.887585532746823,9.775171065493646
4.887585532746823,19.550342130987293,14.662756598240469,4.887585532746823,4.887585532746823,122.18963831867057,29.325513196480937
9.775171065493646,1202.3460410557186,58.651026392961874,4.887585532746823,4.887585532746823,14.662756598240469,19.550342130987293
0.0,53.763440860215056,24.437927663734115,4.887585532746823,9.775171065493646,4.887585532746823,9.775171065493646
39.100684261974585,327.4682306940371,4.887585532746823,34.21309872922776,43.98826979472141,0.0,0.0
43.98826979472141,332.35581622678393,9.775171065493646,9.775171065493646,4.887585532746823,4.887585532746823,4.887585532746823
14.662756598240469,29.325513196480937,4.887585532746823,0.0,24.437927663734115,48.87585532746823,43.98826979472141
4.887585532746823,630.4985337243402,29.325513196480937,4.887585532746823,87.97653958944282,9.775171065493646,34.21309872922776
4.887585532746823,180.84066471163246,43.98826979472141,4.887585532746823,4.887585532746823,9.775171065493646,9.775171065493646
4.887585532746823,449.65786901270775,9.775171065493646,24.437927663734115,4.887585532746823,9.775171065493646,4.887585532746823
43.98826979472141,34.21309872922776,4.887585532746823,14.662756598240469,9.775171065493646,0.0,4.887585532746823
34.21309872922776,219.94134897360706,4.887585532746823,4.887585532746823,14.662756598240469,83.08895405669598,34.21309872922776
0.0,879.7653958944283,48.87585532746823,4.887585532746823,14.662756598240469,410.55718475073314,48.87585532746823
0.0,405.6695992179863,97.75171065493646,0.0,4.887585532746823,43.98826979472141,14.662756598240469
9.775171065493646,127.07722385141741,9.775171065493646,9.775171065493646,9.775171065493646,63.53861192570871,0.0
39.100684261974585,474.0957966764418,9.775171065493646,19.550342130987293,9.775171065493646,39.100684261974585,0.0
48.87585532746823,239.49169110459434,464.3206256109482,0.0,29.325513196480937,122.18963831867057,9.775171065493646
9.775171065493646,19.550342130987293,283.47996089931576,9.775171065493646,14.662756598240469,9.775171065493646,48.87585532746823
0.0,4.887585532746823,430.10752688172045,0.0,4.887585532746823,9.775171065493646,4.887585532746823
4.887585532746823,801.5640273704789,43.98826979472141,9.775171065493646,0.0,29.325513196480937,9.775171065493646
29.325513196480937,439.8826979472141,483.8709677419355,39.100684261974585,4.887585532746823,200.39100684261973,4.887585532746823
14.662756598240469,78.20136852394917,586.5102639296188,24.437927663734115,9.775171065493646,107.52688172043011,14.662756598240469
9.775171065493646,24.437927663734115,386.119257086999,0.0,58.651026392961874,29.325513196480937,43.98826979472141
4.887585532746823,107.52688172043011,29.325513196480937,4.887585532746823,19.550342130987293,0.0,14.662756598240469
9.775171065493646,156.40273704789834,430.10752688172045,4.887585532746823,24.437927663734115,4.887585532746823,4.887585532746823
43.98826979472141,1598.2404692082112,1104.594330400782,19.550342130987293,9.775171065493646,34.21309872922776,9.775171065493646
43.98826979472141,288.36754643206257,127.07722385141741,14.662756598240469,9.775171065493646,356.7937438905181,14.662756598240469
9.775171065493646,48.87585532746823,107.52688172043011,4.887585532746823,29.325513196480937,87.97653958944282,48.87585532746823
9.775171065493646,131.96480938416423,1094.8191593352883,4.887585532746823,4.887585532746823,29.325513196480937,14.662756598240469
9.775171065493646,180.84066471163246,48.87585532746823,0.0,9.775171065493646,39.100684261974585,4.887585532746823
9.775171065493646,87.97653958944282,29.325513196480937,9.775171065493646,9.775171065493646,606.0606060606061,4.887585532746823
39.100684261974585,122.18963831867057,53.763440860215056,43.98826979472141,0.0,107.52688172043011,19.550342130987293
24.437927663734115,518.0840664711633,24.437927663734115,4.887585532746823,9.775171065493646,127.07722385141741,48.87585532746823
9.775171065493646,1129.032258064516,562.0723362658846,4.887585532746823,4.887585532746823,9.775171065493646,19.550342130987293
4.887585532746823,58.651026392961874,669.5992179863147,0.0,4.887585532746823,151.51515151515153,4.887585532746823
0.0,112.41446725317694,24.437927663734115,4.887585532746823,9.775171065493646,146.6275659824047,0.0
29.325513196480937,43.98826979472141,9.775171065493646,4.887585532746823,43.98826979472141,9.775171065493646,14.662756598240469
43.98826979472141,161.29032258064515,596.2854349951125,4.887585532746823,24.437927663734115,122.18963831867057,34.21309872922776
9.775171065493646,112.41446725317694,278.5923753665689,9.775171065493646,9.775171065493646,327.4682306940371,14.662756598240469
4.887585532746823,474.0957966764418,34.21309872922776,0.0,122.18963831867057,39.100684261974585,4.887585532746823
4.887585532746823,102.63929618768329,601.1730205278593,0.0,14.662756598240469,273.7047898338221,9.775171065493646
14.662756598240469,703.8123167155426,1075.268817204301,24.437927663734115,24.437927663734115,97.75171065493646,14.662756598240469
63.53861192570871,107.52688172043011,415.44477028347995,24.437927663734115,4.887585532746823,73.31378299120234,53.763440860215056
9.775171065493646,439.8826979472141,24.437927663734115,4.887585532746823,24.437927663734115,73.31378299120234,29.325513196480937
0.0,29.325513196480937,63.53861192570871,4.887585532746823,9.775171065493646,48.87585532746823,0.0
4.887585532746823,317.6930596285435,723.3626588465298,9.775171065493646,4.887585532746823,53.763440860215056,4.887585532746823
29.325513196480937,278.5923753665689,464.3206256109482,9.775171065493646,0.0,43.98826979472141,0.0
34.21309872922776,410.55718475073314,39.100684261974585,34.21309872922776,0.0,444.77028347996094,34.21309872922776
19.550342130987293,24.437927663734115,542.5219941348973,9.775171065493646,39.100684261974585,131.96480938416423,39.100684261974585
9.775171065493646,107.52688172043011,43.98826979472141,4.887585532746823,19.550342130987293,146.6275659824047,9.775171065493646
0.0,92.86412512218965,268.81720430107526,0.0,58.651026392961874,254.15444770283483,9.775171065493646
4.887585532746823,107.52688172043011,772.238514173998,0.0,9.775171065493646,19.550342130987293,0.0
39.100684261974585,625.6109481915934,410.55718475073314,29.325513196480937,9.775171065493646,97.75171065493646,14.662756598240469
19.550342130987293,68.42619745845552,234.6041055718475,14.662756598240469,19.550342130987293,180.84066471163246,43.98826979472141
9.775171065493646,190.6158357771261,9.775171065493646,0.0,78.20136852394917,43.98826979472141,4.887585532746823
0.0,811.3391984359725,786.9012707722385,4.887585532746823,29.325513196480937,127.07722385141741,4.887585532746823
0.0,855.327468230694,747.800586510264,4.887585532746823,9.775171065493646,347.0185728250244,4.887585532746823
34.21309872922776,68.42619745845552,742.9130009775172,9.775171065493646,0.0,24.437927663734115,9.775171065493646
34.21309872922776,14.662756598240469,127.07722385141741,14.662756598240469,4.887585532746823,488.7585532746823,48.87585532746823
9.775171065493646,405.6695992179863,107.52688172043011,4.887585532746823,0.0,102.63929618768329,14.662756598240469
4.887585532746823,547.4095796676442,796.6764418377321,0.0,19.550342130987293,493.6461388074291,4.887585532746823
4.887585532746823,200.39100684261973,801.5640273704789,4.887585532746823,151.51515151515153,24.437927663734115,0.0
9.775171065493646,694.0371456500488,259.04203323558164,4.887585532746823,14.662756598240469,4.887585532746823,4.887585532746823
63.53861192570871,24.437927663734115,151.51515151515153,34.21309872922776,24.437927663734115,136.85239491691104,48.87585532746823
29.325513196480937,58.651026392961874,73.31378299120234,4.887585532746823,4.887585532746823,73.31378299120234,14.662756598240469
4.887585532746823,606.0606060606061,73.31378299120234,0.0,0.0,347.0185728250244,9.775171065493646
4.887585532746823,39.100684261974585,131.96480938416423,9.775171065493646,83.08895405669598,151.51515151515153,0.0
0.0,478.9833822091887,547.4095796676442,0.0,131.96480938416423,229.7165200391007,4.887585532746823
48.87585532746823,166.17790811339196,1285.4349951124145,24.437927663734115,19.550342130987293,566.9599217986315,53.763440860215056
9.775171065493646,14.662756598240469,34.21309872922776,9.775171065493646,48.87585532746823,317.6930596285435,14.662756598240469
9.775171065493646,4.887585532746823,29.325513196480937,0.0,4.887585532746823,107.52688172043011,4.887585532746823
0.0,669.5992179863147,557.1847507331378,9.775171065493646,39.100684261974585,19.550342130987293,0.0
24.437927663734115,39.100684261974585,650.0488758553274,0.0,19.550342130987293,327.4682306940371,14.662756598240469
19.550342130987293,102.63929618768329,1153.4701857282503,34.21309872922776,43.98826979472141,19.550342130987293,53.763440860215056
14.662756598240469,376.3440860215054,83.08895405669598,29.325513196480937,39.100684261974585,347.0185728250244,14.662756598240469
4.887585532746823,24.437927663734115,821.1143695014663,4.887585532746823,24.437927663734115,1353.86119257087,4.887585532746823
4.887585532746823,1480.9384164222874,136.85239491691104,9.775171065493646,14.662756598240469,48.87585532746823,4.887585532746823
0.0,185.7282502443793,254.15444770283483,0.0,9.775171065493646,376.3440860215054,14.662756598240469
48.87585532746823,63.53861192570871,366.5689149560117,29.325513196480937,4.887585532746823,171.0654936461388,58.651026392961874
24.437927663734115,122.18963831867057,83.08895405669598,29.325513196480937,9.775171065493646,518.0840664711633,19.550342130987293
4.887585532746823,923.7536656891496,14.662756598240469,4.887585532746823,29.325513196480937,87.97653958944282,9.775171065493646
4.887585532746823,53.763440860215056,190.6158357771261,0.0,29.325513196480937,278.5923753665689,4.887585532746823
9.775171065493646,293.2551319648094,664.7116324535679,4.887585532746823,92.86412512218965,141.73998044965788,4.887585532746823
24.437927663734115,29.325513196480937,87.97653958944282,53.763440860215056,43.98826979472141,19.550342130987293,29.325513196480937
34.21309872922776,263.92961876832845,728.2502443792766,48.87585532746823,92.86412512218965,474.0957966764418,24.437927663734115
4.887585532746823,131.96480938416423,29.325513196480937,4.887585532746823,9.775171065493646,210.16617790811338,4.887585532746823
0.0,87.97653958944282,537.6344086021505,4.887585532746823,9.775171065493646,87.97653958944282,4.887585532746823
9.775171065493646,146.6275659824047,34.21309872922776,4.887585532746823,4.887585532746823,434.99511241446726,0.0
4.887585532746823,9.775171065493646,78.20136852394917,43.98826979472141,0.0,78.20136852394917,34.21309872922776
34.21309872922776,122.18963831867057,39.100684261974585,73.31378299120234,464.3206256109482,283.47996089931576,43.98826979472141
14.662756598240469,14.662756598240469,58.651026392961874,131.96480938416423,83.08895405669598,263.92961876832845,4.887585532746823
9.775171065493646,4.887585532746823,1241.446725317693,24.437927663734115,19.550342130987293,14.662756598240469,0.0
4.887585532746823,425.2199413489736,356.7937438905181,4.887585532746823,87.97653958944282,14.662756598240469,0.0
19.550342130987293,215.05376344086022,29.325513196480937,14.662756598240469,112.41446725317694,865.1026392961877,19.550342130987293
48.87585532746823,483.8709677419355,107.52688172043011,14.662756598240469,19.550342130987293,107.52688172043011,68.42619745845552
14.662756598240469,562.0723362658846,298.14271749755625,4.887585532746823,9.775171065493646,342.1309872922776,9.775171065493646
4.887585532746823,376.3440860215054,1094.8191593352883,4.887585532746823,4.887585532746823,43.98826979472141,4.887585532746823
9.775171065493646,283.47996089931576,166.17790811339196,4.887585532746823,63.53861192570871,244.37927663734115,4.887585532746823
19.550342130987293,63.53861192570871,171.0654936461388,19.550342130987293,9.775171065493646,73.31378299120234,19.550342130987293
58.651026392961874,4.887585532746823,107.52688172043011,53.763440860215056,14.662756598240469,151.51515151515153,58.651026392961874
19.550342130987293,527.8592375366569,542.5219941348973,4.887585532746823,68.42619745845552,185.7282502443793,4.887585532746823
4.887585532746823,39.100684261974585,830.8895405669599,9.775171065493646,112.41446725317694,200.39100684261973,4.887585532746823
0.0,620.7233626588466,263.92961876832845,4.887585532746823,19.550342130987293,39.100684261974585,0.0
24.437927663734115,19.550342130987293,68.42619745845552,136.85239491691104,151.51515151515153,107.52688172043011,24.437927663734115
87.97653958944282,171.0654936461388,566.9599217986315,347.0185728250244,312.8054740957967,772.238514173998,63.53861192570871
34.21309872922776,1055.7184750733138,894.4281524926687,122.18963831867057,24.437927663734115,63.53861192570871,4.887585532746823
4.887585532746823,39.100684261974585,34.21309872922776,9.775171065493646,78.20136852394917,200.39100684261973,4.887585532746823
0.0,43.98826979472141,522.9716520039101,1124.1446725317692,171.0654936461388,205.27859237536657,4.887585532746823
9.775171065493646,4.887585532746823,1153.4701857282503,234.6041055718475,9.775171065493646,791.7888563049853,19.550342130987293
24.437927663734115,894.4281524926687,127.07722385141741,9.775171065493646,4.887585532746823,34.21309872922776,48.87585532746823
58.651026392961874,381.2316715542522,4.887585532746823,298.14271749755625,24.437927663734115,9.775171065493646,4.887585532746823
9.775171065493646,102.63929618768329,146.6275659824047,92.86412512218965,73.31378299120234,127.07722385141741,0.0
0.0,175.95307917888564,923.7536656891496,48.87585532746823,58.651026392961874,522.9716520039101,4.887585532746823
97.75171065493646,259.04203323558164,161.29032258064515,967.741935483871,58.651026392961874,371.4565004887586,24.437927663734115
19.550342130987293,24.437927663734115,200.39100684261973,141.73998044965788,19.550342130987293,391.00684261974584,58.651026392961874
9.775171065493646,4.887585532746823,547.4095796676442,4.887585532746823,34.21309872922776,229.7165200391007,9.775171065493646
9.775171065493646,234.6041055718475,322.5806451612903,434.99511241446726,34.21309872922776,449.65786901270775,0.0
39.100684261974585,322.5806451612903,151.51515151515153,498.5337243401759,48.87585532746823,263.92961876832845,4.887585532746823
9.775171065493646,1080.156402737048,112.41446725317694,9.775171065493646,14.662756598240469,14.662756598240469,14.662756598240469
39.100684261974585,43.98826979472141,14.662756598240469,933.5288367546432,53.763440860215056,180.84066471163246,48.87585532746823
9.775171065493646,4.887585532746823,703.8123167155426,151.51515151515153,58.651026392961874,171.0654936461388,4.887585532746823
259.04203323558164,219.94134897360706,566.9599217986315,791.7888563049853,78.20136852394917,371.4565004887586,4.887585532746823
14.662756598240469,376.3440860215054,381.2316715542522,19.550342130987293,117.30205278592375,620.7233626588466,4.887585532746823
4.887585532746823,29.325513196480937,53.763440860215056,278.5923753665689,14.662756598240469,405.6695992179863,9.775171065493646
215.05376344086022,112.41446725317694,953.0791788856305,689.149560117302,4.887585532746823,29.325513196480937,39.100684261974585
356.7937438905181,175.95307917888564,83.08895405669598,601.1730205278593,102.63929618768329,9.775171065493646,14.662756598240469
24.437927663734115,395.89442815249265,205.27859237536657,19.550342130987293,78.20136852394917,874.8778103616814,9.775171065493646
14.662756598240469,107.52688172043011,307.91788856304987,430.10752688172045,14.662756598240469,615.8357771260997,9.775171065493646
0.0,102.63929618768329,478.9833822091887,874.8778103616814,53.763440860215056,102.63929618768329,4.887585532746823
474.0957966764418,4.887585532746823,190.6158357771261,102.63929618768329,9.775171065493646,151.51515151515153,48.87585532746823
141.73998044965788,811.3391984359725,19.550342130987293,171.0654936461388,288.36754643206257,19.550342130987293,14.662756598240469
24.437927663734115,78.20136852394917,4.887585532746823,1133.919843597263,19.550342130987293,29.325513196480937,0.0
14.662756598240469,625.6109481915934,171.0654936461388,337.2434017595308,4.887585532746823,337.2434017595308,0.0
92.86412512218965,39.100684261974585,698.9247311827957,24.437927663734115,78.20136852394917,351.9061583577713,9.775171065493646
19.550342130987293,92.86412512218965,625.6109481915934,1490.713587487781,63.53861192570871,361.6813294232649,39.100684261974585
87.97653958944282,537.6344086021505,19.550342130987293,166.17790811339196,34.21309872922776,190.6158357771261,34.21309872922776
19.550342130987293,87.97653958944282,122.18963831867057,14.662756598240469,9.775171065493646,273.7047898338221,9.775171065493646
4.887585532746823,146.6275659824047,205.27859237536657,532.7468230694037,92.86412512218965,83.08895405669598,4.887585532746823
19.550342130987293,68.42619745845552,9.775171065493646,141.73998044965788,34.21309872922776,19.550342130987293,0.0
4.887585532746823,268.81720430107526,112.41446725317694,1138.8074291300097,151.51515151515153,860.2150537634409,48.87585532746823
0.0,263.92961876832845,811.3391984359725,92.86412512218965,48.87585532746823,73.31378299120234,39.100684261974585
112.41446725317694,24.437927663734115,34.21309872922776,4.887585532746823,19.550342130987293,1823.069403714565,4.887585532746823
151.51515151515153,376.3440860215054,469.208211143695,24.437927663734115,39.100684261974585,131.96480938416423,0.0
381.2316715542522,73.31378299120234,83.08895405669598,14.662756598240469,19.550342130987293,175.95307917888564,4.887585532746823
43.98826979472141,102.63929618768329,19.550342130987293,1016.6177908113393,14.662756598240469,53.763440860215056,34.21309872922776
391.00684261974584,107.52688172043011,9.775171065493646,58.651026392961874,4.887585532746823,239.49169110459434,43.98826979472141
122.18963831867057,141.73998044965788,728.2502443792766,503.42130987292273,24.437927663734115,92.86412512218965,9.775171065493646
24.437927663734115,391.00684261974584,122.18963831867057,542.5219941348973,0.0,542.5219941348973,9.775171065493646
303.03030303030306,39.100684261974585,4.887585532746823,386.119257086999,9.775171065493646,796.6764418377321,0.0
166.17790811339196,195.50342130987292,298.14271749755625,625.6109481915934,63.53861192570871,127.07722385141741,24.437927663734115
14.662756598240469,141.73998044965788,92.86412512218965,97.75171065493646,102.63929618768329,24.437927663734115,48.87585532746823
0.0,293.2551319648094,136.85239491691104,9.775171065493646,34.21309872922776,171.0654936461388,4.887585532746823
259.04203323558164,215.05376344086022,9.775171065493646,1339.1984359726293,29.325513196480937,29.325513196480937,9.775171065493646
83.08895405669598,19.550342130987293,347.0185728250244,146.6275659824047,29.325513196480937,1265.884652981427,0.0
29.325513196480937,1383.1867057673508,977.5171065493646,0.0,63.53861192570871,68.42619745845552,19.550342130987293
14.662756598240469,708.6999022482894,29.325513196480937,899.3157380254155,14.662756598240469,1021.5053763440861,48.87585532746823
19.550342130987293,24.437927663734115,4.887585532746823,410.55718475073314,4.887585532746823,151.51515151515153,9.775171065493646
0.0,395.89442815249265,4.887585532746823,24.437927663734115,283.47996089931576,117.30205278592375,9.775171065493646
0.0,283.47996089931576,190.6158357771261,9.775171065493646,210.16617790811338,322.5806451612903,9.775171065493646
469.208211143695,337.2434017595308,1593.3528836754642,171.0654936461388,83.08895405669598,180.84066471163246,9.775171065493646
156.40273704789834,73.31378299120234,83.08895405669598,689.149560117302,53.763440860215056,24.437927663734115,43.98826979472141
43.98826979472141,151.51515151515153,14.662756598240469,39.100684261974585,14.662756598240469,757.5757575757576,19.550342130987293
102.63929618768329,478.9833822091887,4.887585532746823,9.775171065493646,9.775171065493646,307.91788856304987,0.0
449.65786901270775,34.21309872922776,391.00684261974584,9.775171065493646,9.775171065493646,63.53861192570871,4.887585532746823
34.21309872922776,156.40273704789834,913.9784946236559,4.887585532746823,87.97653958944282,0.0,9.775171065493646
210.16617790811338,24.437927663734115,146.6275659824047,1891.4956011730205,39.100684261974585,273.7047898338221,43.98826979472141
283.47996089931576,117.30205278592375,19.550342130987293,229.7165200391007,48.87585532746823,860.2150537634409,24.437927663734115
122.18963831867057,24.437927663734115,229.7165200391007,19.550342130987293,161.29032258064515,508.30889540566966,0.0
43.98826979472141,19.550342130987293,689.149560117302,146.6275659824047,24.437927663734115,166.17790811339196,4.887585532746823
14.662756598240469,415.44477028347995,68.42619745845552,244.37927663734115,78.20136852394917,4.887585532746823,0.0
0.0,87.97653958944282,4.887585532746823,669.5992179863147,14.662756598240469,29.325513196480937,14.662756598240469
840.6647116324535,14.662756598240469,488.7585532746823,53.763440860215056,73.31378299120234,107.52688172043011,43.98826979472141
449.65786901270775,283.47996089931576,215.05376344086022,454.54545454545456,83.08895405669598,4.887585532746823,9.775171065493646
34.21309872922776,171.0654936461388,24.437927663734115,102.63929618768329,4.887585532746823,684.2619745845552,4.887585532746823
9.775171065493646,14.662756598240469,762.4633431085044,48.87585532746823,34.21309872922776,606.0606060606061,4.887585532746823
4.887585532746823,581.622678396872,122.18963831867057,268.81720430107526,43.98826979472141,684.2619745845552,24.437927663734115
4.887585532746823,522.9716520039101,342.1309872922776,239.49169110459434,112.41446725317694,24.437927663734115,58.651026392961874
0.0,19.550342130987293,107.52688172043011,14.662756598240469,63.53861192570871,9.775171065493646,4.887585532746823
14.662756598240469,112.41446725317694,234.6041055718475,816.2267839687195,68.42619745845552,298.14271749755625,4.887585532746823
9.775171065493646,200.39100684261973,327.4682306940371,63.53861192570871,102.63929618768329,34.21309872922776,4.887585532746823
395.89442815249265,347.0185728250244,151.51515151515153,215.05376344086022,48.87585532746823,640.2737047898338,24.437927663734115
87.97653958944282,307.91788856304987,122.18963831867057,1104.594330400782,39.100684261974585,874.8778103616814,58.651026392961874
14.662756598240469,131.96480938416423,366.5689149560117,332.35581622678393,78.20136852394917,63.53861192570871,4.887585532746823
9.775171065493646,73.31378299120234,1031.2805474095796,24.437927663734115,43.98826979472141,43.98826979472141,9.775171065493646
39.100684261974585,48.87585532746823,430.10752688172045,205.27859237536657,78.20136852394917,703.8123167155426,0.0
312.8054740957967,29.325513196480937,24.437927663734115,928.6412512218964,4.887585532746823,210.16617790811338,19.550342130987293
19.550342130987293,273.7047898338221,4.887585532746823,39.100684261974585,87.97653958944282,337.2434017595308,34.21309872922776
29.325513196480937,39.100684261974585,317.6930596285435,19.550342130987293,107.52688172043011,24.437927663734115,19.550342130987293
361.6813294232649,43.98826979472141,288.36754643206257,425.2199413489736,9.775171065493646,1202.3460410557186,9.775171065493646
34.21309872922776,19.550342130987293,371.4565004887586,307.91788856304987,4.887585532746823,112.41446725317694,4.887585532746823
381.2316715542522,288.36754643206257,215.05376344086022,757.5757575757576,97.75171065493646,293.2551319648094,0.0
293.2551319648094,151.51515151515153,215.05376344086022,141.73998044965788,39.100684261974585,498.5337243401759,43.98826979472141
24.437927663734115,635.386119257087,14.662756598240469,92.86412512218965,9.775171065493646,78.20136852394917,29.325513196480937
342.1309872922776,92.86412512218965,58.651026392961874,63.53861192570871,117.30205278592375,24.437927663734115,0.0
83.08895405669598,63.53861192570871,48.87585532746823,347.0185728250244,156.40273704789834,29.325513196480937,4.887585532746823
298.14271749755625,83.08895405669598,24.437927663734115,43.98826979472141,131.96480938416423,684.2619745845552,4.887585532746823
29.325513196480937,215.05376344086022,117.30205278592375,630.4985337243402,63.53861192570871,112.41446725317694,29.325513196480937
9.775171065493646,268.81720430107526,2253.1769305962853,342.1309872922776,39.100684261974585,122.18963831867057,43.98826979472141
557.1847507331378,283.47996089931576,151.51515151515153,97.75171065493646,63.53861192570871,610.9481915933529,9.775171065493646
527.8592375366569,19.550342130987293,14.662756598240469,347.0185728250244,9.775171065493646,268.81720430107526,0.0
317.6930596285435,268.81720430107526,259.04203323558164,337.2434017595308,166.17790811339196,254.15444770283483,9.775171065493646
63.53861192570871,175.95307917888564,78.20136852394917,29.325513196480937,122.18963831867057,307.91788856304987,14.662756598240469
9.775171065493646,14.662756598240469,347.0185728250244,1143.6950146627566,24.437927663734115,92.86412512218965,39.100684261974585
9.775171065493646,4.887585532746823,102.63929618768329,175.95307917888564,24.437927663734115,268.81720430107526,24.437927663734115
19.550342130987293,9.775171065493646,19.550342130987293,14.662756598240469,58.651026392961874,332.35581622678393,4.887585532746823
229.7165200391007,43.98826979472141,938.41642228739,459.4330400782014,34.21309872922776,405.6695992179863,4.887585532746823
185.7282502443793,102.63929618768329,112.41446725317694,239.49169110459434,131.96480938416423,698.9247311827957,0.0
73.31378299120234,469.208211143695,19.550342130987293,87.97653958944282,19.550342130987293,102.63929618768329,48.87585532746823
9.775171065493646,43.98826979472141,24.437927663734115,136.85239491691104,24.437927663734115,14.662756598240469,14.662756598240469
190.6158357771261,9.775171065493646,97.75171065493646,63.53861192570871,34.21309872922776,4.887585532746823,4.887585532746823
68.42619745845552,24.437927663734115,1231.6715542521995,195.50342130987292,9.775171065493646,34.21309872922776,4.887585532746823
747.800586510264,4.887585532746823,53.763440860215056,24.437927663734115,58.651026392961874,420.33235581622677,0.0
151.51515151515153,122.18963831867057,14.662756598240469,4.887585532746823,24.437927663734115,586.5102639296188,43.98826979472141
117.30205278592375,53.763440860215056,151.51515151515153,791.7888563049853,175.95307917888564,24.437927663734115,43.98826979472141
78.20136852394917,830.8895405669599,180.84066471163246,219.94134897360706,68.42619745845552,562.0723362658846,14.662756598240469
48.87585532746823,48.87585532746823,268.81720430107526,166.17790811339196,4.887585532746823,112.41446725317694,4.887585532746823
29.325513196480937,469.208211143695,303.03030303030306,210.16617790811338,43.98826979472141,117.30205278592375,0.0
73.31378299120234,48.87585532746823,34.21309872922776,14.662756598240469,53.763440860215056,190.6158357771261,24.437927663734115
635.386119257087,219.94134897360706,14.662756598240469,1133.919843597263,87.97653958944282,53.763440860215056,43.98826979472141
39.100684261974585,195.50342130987292,591.3978494623656,166.17790811339196,19.550342130987293,87.97653958944282,9.775171065493646
4.887585532746823,283.47996089931576,234.6041055718475,29.325513196480937,29.325513196480937,596.2854349951125,4.887585532746823
136.85239491691104,410.55718475073314,48.87585532746823,112.41446725317694,97.75171065493646,254.15444770283483,4.887585532746823
63.53861192570871,444.77028347996094,288.36754643206257,4.887585532746823,78.20136852394917,68.42619745845552,24.437927663734115
4.887585532746823,48.87585532746823,19.550342130987293,1358.7487781036168,131.96480938416423,29.325513196480937,43.98826979472141
63.53861192570871,14.662756598240469,723.3626588465298,107.52688172043011,19.550342130987293,547.4095796676442,24.437927663734115
263.92961876832845,664.7116324535679,307.91788856304987,9.775171065493646,24.437927663734115,376.3440860215054,9.775171065493646
547.4095796676442,180.84066471163246,24.437927663734115,4.887585532746823,127.07722385141741,249.26686217008796,0.0
136.85239491691104,180.84066471163246,4.887585532746823,53.763440860215056,78.20136852394917,1168.1329423264906,0.0
185.7282502443793,34.21309872922776,9.775171065493646,625.6109481915934,39.100684261974585,58.651026392961874,48.87585532746823
29.325513196480937,78.20136852394917,322.5806451612903,249.26686217008796,34.21309872922776,483.8709677419355,24.437927663734115
14.662756598240469,327.4682306940371,43.98826979472141,29.325513196480937,180.84066471163246,542.5219941348973,14.662756598240469
87.97653958944282,136.85239491691104,58.651026392961874,53.763440860215056,63.53861192570871,522.9716520039101,4.887585532746823
83.08895405669598,9.775171065493646,571.8475073313783,161.29032258064515,48.87585532746823,39.100684261974585,0.0
58.651026392961874,4.887585532746823,48.87585532746823,303.03030303030306,29.325513196480937,9.775171065493646,48.87585532746823
733.1378299120234,351.9061583577713,122.18963831867057,703.8123167155426,9.775171065493646,273.7047898338221,24.437927663734115
24.437927663734115,244.37927663734115,4.887585532746823,34.21309872922776,19.550342130987293,102.63929618768329,9.775171065493646
4.887585532746823,107.52688172043011,347.0185728250244,4.887585532746823,87.97653958944282,63.53861192570871,0.0
48.87585532746823,210.16617790811338,146.6275659824047,151.51515151515153,122.18963831867057,244.37927663734115,0.0
478.9833822091887,24.437927663734115,234.6041055718475,434.99511241446726,14.662756598240469,591.3978494623656,43.98826979472141
87.97653958944282,547.4095796676442,268.81720430107526,361.6813294232649,48.87585532746823,1397.8494623655913,24.437927663734115
53.763440860215056,107.52688172043011,141.73998044965788,39.100684261974585,107.52688172043011,92.86412512218965,0.0
83.08895405669598,14.662756598240469,107.52688172043011,9.775171065493646,29.325513196480937,4.887585532746823,4.887585532746823
166.17790811339196,532.7468230694037,312.8054740957967,0.0,9.775171065493646,904.2033235581623,4.887585532746823
53.763440860215056,117.30205278592375,249.26686217008796,1270.772238514174,141.73998044965788,293.2551319648094,24.437927663734115
195.50342130987292,381.2316715542522,24.437927663734115,151.51515151515153,24.437927663734115,532.7468230694037,43.98826979472141
24.437927663734115,112.41446725317694,141.73998044965788,24.437927663734115,29.325513196480937,459.4330400782014,14.662756598240469
14.662756598240469,43.98826979472141,107.52688172043011,24.437927663734115,9.775171065493646,449.65786901270775,0.0
439.8826979472141,127.07722385141741,53.763440860215056,9.775171065493646,68.42619745845552,29.325513196480937,4.887585532746823
224.82893450635387,175.95307917888564,43.98826979472141,1549.364613880743,117.30205278592375,63.53861192570871,4.887585532746823
136.85239491691104,73.31378299120234,63.53861192570871,78.20136852394917,78.20136852394917,1070.3812316715544,53.763440860215056
508.30889540566966,469.208211143695,83.08895405669598,4.887585532746823,48.87585532746823,1143.6950146627566,19.550342130987293
24.437927663734115,29.325513196480937,620.7233626588466,645.1612903225806,14.662756598240469,43.98826979472141,4.887585532746823
83.08895405669598,200.39100684261973,811.3391984359725,620.7233626588466,43.98826979472141,9.775171065493646,4.887585532746823
239.49169110459434,141.73998044965788,180.84066471163246,122.18963831867057,39.100684261974585,0.0,9.775171065493646
107.52688172043011,298.14271749755625,39.100684261974585,9.775171065493646,34.21309872922776,4.887585532746823,48.87585532746823
39.100684261974585,14.662756598240469,63.53861192570871,957.9667644183774,19.550342130987293,645.1612903225806,19.550342130987293
34.21309872922776,205.27859237536657,73.31378299120234,224.82893450635387,29.325513196480937,664.7116324535679,9.775171065493646
698.9247311827957,166.17790811339196,131.96480938416423,29.325513196480937,19.550342130987293,366.5689149560117,0.0
190.6158357771261,14.662756598240469,278.5923753665689,14.662756598240469,317.6930596285435,34.21309872922776,19.550342130987293
87.97653958944282,669.5992179863147,356.7937438905181,679.3743890518084,122.18963831867057,259.04203323558164,63.53861192570871
332.35581622678393,83.08895405669598,78.20136852394917,557.1847507331378,29.325513196480937,210.16617790811338,14.662756598240469
200.39100684261973,195.50342130987292,4.887585532746823,29.325513196480937,34.21309872922776,92.86412512218965,0.0
9.775171065493646,513.1964809384165,87.97653958944282,659.824046920821,39.100684261974585,361.6813294232649,9.775171065493646
43.98826979472141,73.31378299120234,312.8054740957967,39.100684261974585,9.775171065493646,1906.158357771261,9.775171065493646
190.6158357771261,444.77028347996094,73.31378299120234,224.82893450635387,141.73998044965788,78.20136852394917,58.651026392961874
73.31378299120234,34.21309872922776,24.437927663734115,708.6999022482894,14.662756598240469,14.662756598240469,14.662756598240469
29.325513196480937,307.91788856304987,48.87585532746823,175.95307917888564,29.325513196480937,4.887585532746823,0.0
97.75171065493646,87.97653958944282,131.96480938416423,9.775171065493646,9.775171065493646,4.887585532746823,9.775171065493646
19.550342130987293,4.887585532746823,371.4565004887586,791.7888563049853,83.08895405669598,156.40273704789834,14.662756598240469
703.8123167155426,273.7047898338221,19.550342130987293,322.5806451612903,63.53861192570871,48.87585532746823,43.98826979472141
73.31378299120234,19.550342130987293,4.887585532746823,43.98826979472141,9.775171065493646,29.325513196480937,24.437927663734115
9.775171065493646,273.7047898338221,97.75171065493646,166.17790811339196,43.98826979472141,552.297165200391,14.662756598240469
0.0,244.37927663734115,703.8123167155426,293.2551319648094,68.42619745845552,254.15444770283483,4.887585532746823
4.887585532746823,48.87585532746823,63.53861192570871,97.75171065493646,58.651026392961874,73.31378299120234,4.887585532746823
542.5219941348973,508.30889540566966,34.21309872922776,298.14271749755625,136.85239491691104,92.86412512218965,39.100684261974585
107.52688172043011,19.550342130987293,63.53861192570871,127.07722385141741,34.21309872922776,127.07722385141741,48.87585532746823
78.20136852394917,654.9364613880742,43.98826979472141,19.550342130987293,0.0,816.2267839687195,9.775171065493646
9.775171065493646,83.08895405669598,39.100684261974585,34.21309872922776,14.662756598240469,39.100684261974585,0.0
0.0,4.887585532746823,347.0185728250244,63.53861192570871,58.651026392961874,615.8357771260997,4.887585532746823
430.10752688172045,391.00684261974584,552.297165200391,0.0,78.20136852394917,474.0957966764418,43.98826979472141
180.84066471163246,112.41446725317694,24.437927663734115,312.8054740957967,19.550342130987293,43.98826979472141,29.325513196480937
151.51515151515153,410.55718475073314,39.100684261974585,708.6999022482894,14.662756598240469,48.87585532746823,9.775171065493646
430.10752688172045,180.84066471163246,43.98826979472141,19.550342130987293,4.887585532746823,850.4398826979472,4.887585532746823
48.87585532746823,14.662756598240469,78.20136852394917,9.775171065493646,215.05376344086022,107.52688172043011,4.887585532746823
298.14271749755625,391.00684261974584,371.4565004887586,127.07722385141741,102.63929618768329,239.49169110459434,9.775171065493646
34.21309872922776,151.51515151515153,205.27859237536657,547.4095796676442,127.07722385141741,136.85239491691104,34.21309872922776
14.662756598240469,4.887585532746823,962.8543499511242,229.7165200391007,19.550342130987293,557.1847507331378,14.662756598240469
39.100684261974585,63.53861192570871,43.98826979472141,332.35581622678393,24.437927663734115,97.75171065493646,0.0
244.37927663734115,366.5689149560117,4.887585532746823,552.297165200391,9.775171065493646,855.327468230694,4.887585532746823
107.52688172043011,43.98826979472141,4.887585532746823,24.437927663734115,102.63929618768329,48.87585532746823,14.662756598240469
283.47996089931576,117.30205278592375,24.437927663734115,131.96480938416423,78.20136852394917,9.775171065493646,58.651026392961874
537.6344086021505,122.18963831867057,87.97653958944282,161.29032258064515,43.98826979472141,4.887585532746823,19.550342130987293
19.550342130987293,899.3157380254155,63.53861192570871,14.662756598240469,19.550342130987293,34.21309872922776,9.775171065493646
9.775171065493646,615.8357771260997,434.99511241446726,180.84066471163246,43.98826979472141,19.550342130987293,4.887585532746823
283.47996089931576,146.6275659824047,518.0840664711633,698.9247311827957,34.21309872922776,581.622678396872,4.887585532746823
156.40273704789834,68.42619745845552,29.325513196480937,87.97653958944282,9.775171065493646,1290.3225806451612,43.98826979472141
366.5689149560117,386.119257086999,34.21309872922776,107.52688172043011,53.763440860215056,58.651026392961874,4.887585532746823
53.763440860215056,210.16617790811338,73.31378299120234,9.775171065493646,29.325513196480937,9.775171065493646,4.887585532746823
58.651026392961874,24.437927663734115,83.08895405669598,659.824046920821,19.550342130987293,229.7165200391007,4.887585532746823
112.41446725317694,73.31378299120234,459.4330400782014,117.30205278592375,4.887585532746823,1246.3343108504398,9.775171065493646
127.07722385141741,112.41446725317694,1031.2805474095796,1871.9452590420333,0.0,200.39100684261973,39.100684261974585
48.87585532746823,83.08895405669598,34.21309872922776,327.4682306940371,43.98826979472141,122.18963831867057,43.98826979472141
73.31378299120234,288.36754643206257,146.6275659824047,449.65786901270775,195.50342130987292,493.6461388074291,9.775171065493646
273.7047898338221,689.149560117302,146.6275659824047,493.6461388074291,29.325513196480937,9.775171065493646,0.0
63.53861192570871,34.21309872922776,151.51515151515153,122.18963831867057,24.437927663734115,58.651026392961874,4.887585532746823
342.1309872922776,9.775171065493646,92.86412512218965,601.1730205278593,53.763440860215056,713.5874877810362,29.325513196480937
68.42619745845552,249.26686217008796,263.92961876832845,39.100684261974585,48.87585532746823,53.763440860215056,43.98826979472141
19.550342130987293,9.775171065493646,127.07722385141741,4.887585532746823,14.662756598240469,337.2434017595308,9.775171065493646
9.775171065493646,14.662756598240469,14.662756598240469,141.73998044965788,14.662756598240469,29.325513196480937,4.887585532746823
288.36754643206257,307.91788856304987,43.98826979472141,29.325513196480937,4.887585532746823,195.50342130987292,4.887585532746823
596.2854349951125,400.78201368523946,244.37927663734115,938.41642228739,166.17790811339196,219.94134897360706,4.887585532746823
24.437927663734115,122.18963831867057,195.50342130987292,200.39100684261973,9.775171065493646,34.21309872922776,39.100684261974585
73.31378299120234,9.775171065493646,87.97653958944282,29.325513196480937,117.30205278592375,78.20136852394917,19.550342130987293
