HandOpen,HandClose,Wrist Flexion,Wrist Extension,Supination,Pronation,Rest
14.662756598240469,131.96480938416423,112.41446725317694,43.98826979472141,4.887585532746823,87.97653958944282,9.775171065493646
4.887585532746823,58.651026392961874,48.87585532746823,24.437927663734115,4.887585532746823,39.100684261974585,78.20136852394917
34.21309872922776,29.325513196480937,24.437927663734115,14.662756598240469,4.887585532746823,19.550342130987293,141.73998044965788
63.53861192570871,9.775171065493646,9.775171065493646,14.662756598240469,29.325513196480937,9.775171065493646,180.84066471163246
141.73998044965788,9.775171065493646,14.662756598240469,9.775171065493646,107.52688172043011,9.775171065493646,185.7282502443793
200.39100684261973,0.0,9.775171065493646,4.887585532746823,131.96480938416423,9.775171065493646,141.73998044965788
185.7282502443793,4.887585532746823,9.775171065493646,0.0,171.0654936461388,9.775171065493646,78.20136852394917
151.51515151515153,0.0,9.775171065493646,9.775171065493646,151.51515151515153,43.98826979472141,29.325513196480937
87.97653958944282,58.651026392961874,4.887585532746823,14.662756598240469,78.20136852394917,87.97653958944282,14.662756598240469
39.100684261974585,136.85239491691104,288.36754643206257,73.31378299120234,29.325513196480937,83.08895405669598,9.775171065493646
24.437927663734115,166.17790811339196,219.94134897360706,131.96480938416423,19.550342130987293,146.6275659824047,9.775171065493646
9.775171065493646,175.95307917888564,107.52688172043011,146.6275659824047,9.775171065493646,205.27859237536657,0.0
9.775171065493646,107.52688172043011,43.98826979472141,141.73998044965788,4.887585532746823,156.40273704789834,0.0
9.775171065493646,43.98826979472141,48.87585532746823,92.86412512218965,0.0,68.42619745845552,0.0
0.0,29.325513196480937,43.98826979472141,43.98826979472141,19.550342130987293,29.325513196480937,34.21309872922776
9.775171065493646,9.775171065493646,24.437927663734115,19.550342130987293,122.18963831867057,14.662756598240469,87.97653958944282
48.87585532746823,9.775171065493646,4.887585532746823,9.775171065493646,185.7282502443793,9.775171065493646,131.96480938416423
107.52688172043011,4.887585532746823,9.775171065493646,0.0,171.0654936461388,4.887585532746823,200.39100684261973
166.17790811339196,4.887585532746823,4.887585532746823,9.775171065493646,166.17790811339196,9.775171065493646,185.7282502443793
180.84066471163246,0.0,4.887585532746823,9.775171065493646,161.29032258064515,4.887585532746823,175.95307917888564
122.18963831867057,14.662756598240469,9.775171065493646,9.775171065493646,127.07722385141741,34.21309872922776,102.63929618768329
73.31378299120234,48.87585532746823,4.887585532746823,4.887585532746823,63.53861192570871,78.20136852394917,43.98826979472141
29.325513196480937,29.325513196480937,9.775171065493646,39.100684261974585,34.21309872922776,117.30205278592375,19.550342130987293
14.662756598240469,63.53861192570871,171.0654936461388,92.86412512218965,19.550342130987293,97.75171065493646,9.775171065493646
14.662756598240469,131.96480938416423,288.36754643206257,141.73998044965788,4.887585532746823,43.98826979472141,9.775171065493646
4.887585532746823,112.41446725317694,122.18963831867057,151.51515151515153,9.775171065493646,19.550342130987293,4.887585532746823
4.887585532746823,78.20136852394917,58.651026392961874,127.07722385141741,9.775171065493646,4.887585532746823,9.775171065493646
0.0,92.86412512218965,24.437927663734115,87.97653958944282,0.0,9.775171065493646,9.775171065493646
0.0,48.87585532746823,14.662756598240469,53.763440860215056,0.0,4.887585532746823,29.325513196480937
63.53861192570871,9.775171065493646,4.887585532746823,14.662756598240469,14.662756598240469,0.0,166.17790811339196
166.17790811339196,39.100684261974585,48.87585532746823,4.887585532746823,39.100684261974585,29.325513196480937,87.97653958944282
29.325513196480937,156.40273704789834,102.63929618768329,0.0,131.96480938416423,43.98826979472141,9.775171065493646
4.887585532746823,73.31378299120234,136.85239491691104,112.41446725317694,161.29032258064515,29.325513196480937,9.775171065493646
0.0,4.887585532746823,166.17790811339196,117.30205278592375,4.887585532746823,0.0,97.75171065493646
136.85239491691104,4.887585532746823,9.775171065493646,14.662756598240469,48.87585532746823,9.775171065493646,180.84066471163246
136.85239491691104,19.550342130987293,4.887585532746823,4.887585532746823,127.07722385141741,4.887585532746823,14.662756598240469
14.662756598240469,195.50342130987292,239.49169110459434,19.550342130987293,9.775171065493646,9.775171065493646,9.775171065493646
0.0,97.75171065493646,371.4565004887586,141.73998044965788,9.775171065493646,0.0,4.887585532746823
24.437927663734115,4.887585532746823,156.40273704789834,53.763440860215056,4.887585532746823,107.52688172043011,141.73998044965788
195.50342130987292,9.775171065493646,39.100684261974585,0.0,107.52688172043011,73.31378299120234,151.51515151515153
63.53861192570871,122.18963831867057,112.41446725317694,4.887585532746823,107.52688172043011,4.887585532746823,19.550342130987293
4.887585532746823,175.95307917888564,337.2434017595308,58.651026392961874,9.775171065493646,9.775171065493646,4.887585532746823
0.0,24.437927663734115,112.41446725317694,136.85239491691104,9.775171065493646,53.763440860215056,24.437927663734115
97.75171065493646,4.887585532746823,53.763440860215056,14.662756598240469,4.887585532746823,14.662756598240469,175.95307917888564
166.17790811339196,14.662756598240469,131.96480938416423,4.887585532746823,136.85239491691104,9.775171065493646,97.75171065493646
19.550342130987293,156.40273704789834,410.55718475073314,4.887585532746823,68.42619745845552,19.550342130987293,14.662756598240469
4.887585532746823,107.52688172043011,92.86412512218965,107.52688172043011,4.887585532746823,24.437927663734115,9.775171065493646
9.775171065493646,9.775171065493646,9.775171065493646,83.08895405669598,4.887585532746823,24.437927663734115,48.87585532746823
141.73998044965788,0.0,102.63929618768329,14.662756598240469,112.41446725317694,39.100684261974585,244.37927663734115
166.17790811339196,19.550342130987293,161.29032258064515,0.0,268.81720430107526,14.662756598240469,39.100684261974585
9.775171065493646,141.73998044965788,298.14271749755625,24.437927663734115,29.325513196480937,4.887585532746823,4.887585532746823
0.0,29.325513196480937,58.651026392961874,112.41446725317694,4.887585532746823,0.0,9.775171065493646
19.550342130987293,4.887585532746823,73.31378299120234,53.763440860215056,4.887585532746823,97.75171065493646,78.20136852394917
190.6158357771261,127.07722385141741,156.40273704789834,9.775171065493646,146.6275659824047,166.17790811339196,131.96480938416423
87.97653958944282,19.550342130987293,29.325513196480937,4.887585532746823,43.98826979472141,19.550342130987293,4.887585532746823
9.775171065493646,87.97653958944282,117.30205278592375,92.86412512218965,9.775171065493646,9.775171065493646,9.775171065493646
0.0,14.662756598240469,9.775171065493646,92.86412512218965,9.775171065493646,24.437927663734115,24.437927663734115
68.42619745845552,9.775171065493646,210.16617790811338,9.775171065493646,29.325513196480937,200.39100684261973,180.84066471163246
210.16617790811338,0.0,391.00684261974584,9.775171065493646,92.86412512218965,48.87585532746823,136.85239491691104
48.87585532746823,112.41446725317694,161.29032258064515,4.887585532746823,102.63929618768329,9.775171065493646,9.775171065493646
0.0,117.30205278592375,48.87585532746823,131.96480938416423,9.775171065493646,0.0,9.775171065493646
24.437927663734115,19.550342130987293,14.662756598240469,83.08895405669598,0.0,63.53861192570871,87.97653958944282
229.7165200391007,14.662756598240469,127.07722385141741,9.775171065493646,9.775171065493646,136.85239491691104,180.84066471163246
68.42619745845552,0.0,9.775171065493646,0.0,166.17790811339196,9.775171065493646,24.437927663734115
4.887585532746823,244.37927663734115,83.08895405669598,24.437927663734115,78.20136852394917,4.887585532746823,4.887585532746823
4.887585532746823,273.7047898338221,4.887585532746823,156.40273704789834,14.662756598240469,0.0,0.0
92.86412512218965,24.437927663734115,273.7047898338221,58.651026392961874,9.775171065493646,4.887585532746823,122.18963831867057
190.6158357771261,4.887585532746823,112.41446725317694,9.775171065493646,68.42619745845552,141.73998044965788,151.51515151515153
19.550342130987293,48.87585532746823,53.763440860215056,9.775171065493646,171.0654936461388,53.763440860215056,19.550342130987293
0.0,185.7282502443793,34.21309872922776,43.98826979472141,14.662756598240469,0.0,9.775171065493646
9.775171065493646,58.651026392961874,24.437927663734115,161.29032258064515,4.887585532746823,53.763440860215056,19.550342130987293
122.18963831867057,4.887585532746823,288.36754643206257,39.100684261974585,39.100684261974585,39.100684261974585,171.0654936461388
117.30205278592375,0.0,161.29032258064515,0.0,146.6275659824047,4.887585532746823,43.98826979472141
14.662756598240469,303.03030303030306,97.75171065493646,9.775171065493646,175.95307917888564,29.325513196480937,4.887585532746823
0.0,307.91788856304987,9.775171065493646,63.53861192570871,14.662756598240469,39.100684261974585,9.775171065493646
9.775171065493646,19.550342130987293,361.6813294232649,127.07722385141741,0.0,9.775171065493646,24.437927663734115
175.95307917888564,4.887585532746823,87.97653958944282,24.437927663734115,24.437927663734115,29.325513196480937,151.51515151515153
83.08895405669598,48.87585532746823,117.30205278592375,0.0,312.8054740957967,4.887585532746823,92.86412512218965
0.0,210.16617790811338,9.775171065493646,4.887585532746823,48.87585532746823,4.887585532746823,4.887585532746823
4.887585532746823,34.21309872922776,542.5219941348973,107.52688172043011,4.887585532746823,4.887585532746823,4.887585532746823
83.08895405669598,4.887585532746823,327.4682306940371,78.20136852394917,0.0,4.887585532746823,58.651026392961874
141.73998044965788,9.775171065493646,63.53861192570871,4.887585532746823,34.21309872922776,43.98826979472141,161.29032258064515
14.662756598240469,92.86412512218965,58.651026392961874,0.0,298.14271749755625,34.21309872922776,24.437927663734115
4.887585532746823,175.95307917888564,254.15444770283483,9.775171065493646,102.63929618768329,9.775171065493646,4.887585532746823
0.0,24.437927663734115,24.437927663734115,117.30205278592375,4.887585532746823,4.887585532746823,9.775171065493646
131.96480938416423,9.775171065493646,63.53861192570871,68.42619745845552,0.0,4.887585532746823,92.86412512218965
112.41446725317694,4.887585532746823,156.40273704789834,9.775171065493646,141.73998044965788,0.0,151.51515151515153
9.775171065493646,122.18963831867057,24.437927663734115,0.0,117.30205278592375,136.85239491691104,14.662756598240469
4.887585532746823,239.49169110459434,92.86412512218965,58.651026392961874,14.662756598240469,171.0654936461388,4.887585532746823
14.662756598240469,14.662756598240469,151.51515151515153,141.73998044965788,9.775171065493646,14.662756598240469,19.550342130987293
166.17790811339196,0.0,14.662756598240469,14.662756598240469,9.775171065493646,4.887585532746823,195.50342130987292
102.63929618768329,9.775171065493646,4.887585532746823,9.775171065493646,185.7282502443793,136.85239491691104,63.53861192570871
14.662756598240469,131.96480938416423,288.36754643206257,0.0,58.651026392961874,112.41446725317694,0.0
4.887585532746823,131.96480938416423,439.8826979472141,112.41446725317694,4.887585532746823,14.662756598240469,9.775171065493646
78.20136852394917,14.662756598240469,112.41446725317694,102.63929618768329,4.887585532746823,4.887585532746823,58.651026392961874
171.0654936461388,0.0,4.887585532746823,4.887585532746823,29.325513196480937,0.0,180.84066471163246
14.662756598240469,83.08895405669598,92.86412512218965,0.0,180.84066471163246,73.31378299120234,24.437927663734115
4.887585532746823,195.50342130987292,229.7165200391007,24.437927663734115,39.100684261974585,78.20136852394917,4.887585532746823
4.887585532746823,19.550342130987293,215.05376344086022,146.6275659824047,9.775171065493646,19.550342130987293,4.887585532746823
131.96480938416423,9.775171065493646,112.41446725317694,73.31378299120234,4.887585532746823,9.775171065493646,122.18963831867057
166.17790811339196,14.662756598240469,63.53861192570871,9.775171065493646,48.87585532746823,9.775171065493646,146.6275659824047
14.662756598240469,146.6275659824047,97.75171065493646,4.887585532746823,190.6158357771261,136.85239491691104,14.662756598240469
0.0,161.29032258064515,14.662756598240469,53.763440860215056,19.550342130987293,14.662756598240469,4.887585532746823
14.662756598240469,9.775171065493646,146.6275659824047,117.30205278592375,0.0,9.775171065493646,19.550342130987293
156.40273704789834,4.887585532746823,19.550342130987293,14.662756598240469,9.775171065493646,4.887585532746823,161.29032258064515
63.53861192570871,63.53861192570871,454.54545454545456,0.0,215.05376344086022,48.87585532746823,112.41446725317694
9.775171065493646,146.6275659824047,39.100684261974585,9.775171065493646,24.437927663734115,83.08895405669598,4.887585532746823
4.887585532746823,141.73998044965788,29.325513196480937,127.07722385141741,9.775171065493646,14.662756598240469,0.0
48.87585532746823,9.775171065493646,29.325513196480937,156.40273704789834,29.325513196480937,4.887585532746823,58.651026392961874
180.84066471163246,4.887585532746823,210.16617790811338,14.662756598240469,9.775171065493646,19.550342130987293,136.85239491691104
29.325513196480937,156.40273704789834,327.4682306940371,0.0,92.86412512218965,92.86412512218965,9.775171065493646
0.0,97.75171065493646,136.85239491691104,9.775171065493646,254.15444770283483,9.775171065493646,4.887585532746823
4.887585532746823,4.887585532746823,58.651026392961874,141.73998044965788,34.21309872922776,4.887585532746823,0.0
68.42619745845552,4.887585532746823,48.87585532746823,73.31378299120234,4.887585532746823,4.887585532746823,122.18963831867057
166.17790811339196,122.18963831867057,97.75171065493646,9.775171065493646,4.887585532746823,4.887585532746823,161.29032258064515
39.100684261974585,146.6275659824047,131.96480938416423,4.887585532746823,200.39100684261973,239.49169110459434,19.550342130987293
9.775171065493646,29.325513196480937,9.775171065493646,29.325513196480937,83.08895405669598,273.7047898338221,0.0
34.21309872922776,9.775171065493646,14.662756598240469,146.6275659824047,9.775171065493646,19.550342130987293,19.550342130987293
112.41446725317694,4.887585532746823,317.6930596285435,53.763440860215056,9.775171065493646,4.887585532746823,185.7282502443793
107.52688172043011,244.37927663734115,53.763440860215056,4.887585532746823,53.763440860215056,9.775171065493646,102.63929618768329
9.775171065493646,386.119257086999,24.437927663734115,4.887585532746823,190.6158357771261,78.20136852394917,9.775171065493646
4.887585532746823,24.437927663734115,29.325513196480937,83.08895405669598,19.550342130987293,92.86412512218965,4.887585532746823
58.651026392961874,4.887585532746823,9.775171065493646,112.41446725317694,4.887585532746823,4.887585532746823,58.651026392961874
141.73998044965788,29.325513196480937,268.81720430107526,9.775171065493646,4.887585532746823,4.887585532746823,210.16617790811338
24.437927663734115,141.73998044965788,29.325513196480937,0.0,97.75171065493646,92.86412512218965,24.437927663734115
4.887585532746823,107.52688172043011,9.775171065493646,4.887585532746823,112.41446725317694,78.20136852394917,0.0
0.0,9.775171065493646,9.775171065493646,127.07722385141741,19.550342130987293,19.550342130987293,9.775171065493646
112.41446725317694,4.887585532746823,39.100684261974585,73.31378299120234,4.887585532746823,4.887585532746823,131.96480938416423
141.73998044965788,34.21309872922776,141.73998044965788,9.775171065493646,4.887585532746823,0.0,215.05376344086022
9.775171065493646,166.17790811339196,112.41446725317694,9.775171065493646,127.07722385141741,92.86412512218965,29.325513196480937
4.887585532746823,83.08895405669598,4.887585532746823,48.87585532746823,112.41446725317694,156.40273704789834,4.887585532746823
24.437927663734115,9.775171065493646,0.0,156.40273704789834,14.662756598240469,4.887585532746823,9.775171065493646
195.50342130987292,0.0,4.887585532746823,34.21309872922776,4.887585532746823,9.775171065493646,151.51515151515153
68.42619745845552,180.84066471163246,48.87585532746823,9.775171065493646,34.21309872922776,4.887585532746823,112.41446725317694
9.775171065493646,205.27859237536657,175.95307917888564,9.775171065493646,175.95307917888564,4.887585532746823,4.887585532746823
0.0,19.550342130987293,19.550342130987293,92.86412512218965,29.325513196480937,259.04203323558164,9.775171065493646
58.651026392961874,9.775171065493646,9.775171065493646,112.41446725317694,4.887585532746823,97.75171065493646,43.98826979472141
171.0654936461388,0.0,234.6041055718475,9.775171065493646,4.887585532746823,9.775171065493646,195.50342130987292
19.550342130987293,239.49169110459434,112.41446725317694,9.775171065493646,9.775171065493646,4.887585532746823,63.53861192570871
0.0,141.73998044965788,127.07722385141741,4.887585532746823,146.6275659824047,34.21309872922776,14.662756598240469
4.887585532746823,9.775171065493646,9.775171065493646,102.63929618768329,136.85239491691104,53.763440860215056,4.887585532746823
161.29032258064515,0.0,4.887585532746823,83.08895405669598,19.550342130987293,4.887585532746823,112.41446725317694
146.6275659824047,0.0,454.54545454545456,4.887585532746823,0.0,0.0,141.73998044965788
14.662756598240469,249.26686217008796,239.49169110459434,9.775171065493646,92.86412512218965,19.550342130987293,14.662756598240469
4.887585532746823,83.08895405669598,122.18963831867057,39.100684261974585,83.08895405669598,97.75171065493646,4.887585532746823
9.775171065493646,0.0,19.550342130987293,180.84066471163246,4.887585532746823,4.887585532746823,9.775171065493646
141.73998044965788,9.775171065493646,175.95307917888564,43.98826979472141,4.887585532746823,4.887585532746823,166.17790811339196
73.31378299120234,97.75171065493646,9.775171065493646,14.662756598240469,63.53861192570871,0.0,117.30205278592375
4.887585532746823,195.50342130987292,4.887585532746823,9.775171065493646,205.27859237536657,4.887585532746823,9.775171065493646
9.775171065493646,24.437927663734115,0.0,39.100684261974585,43.98826979472141,73.31378299120234,4.887585532746823
58.651026392961874,4.887585532746823,498.5337243401759,161.29032258064515,4.887585532746823,122.18963831867057,63.53861192570871
161.29032258064515,4.887585532746823,259.04203323558164,58.651026392961874,4.887585532746823,9.775171065493646,234.6041055718475
9.775171065493646,161.29032258064515,141.73998044965788,4.887585532746823,0.0,78.20136852394917,34.21309872922776
4.887585532746823,131.96480938416423,117.30205278592375,4.887585532746823,156.40273704789834,43.98826979472141,4.887585532746823
4.887585532746823,9.775171065493646,39.100684261974585,63.53861192570871,175.95307917888564,19.550342130987293,4.887585532746823
78.20136852394917,0.0,78.20136852394917,117.30205278592375,14.662756598240469,34.21309872922776,87.97653958944282
131.96480938416423,9.775171065493646,249.26686217008796,9.775171065493646,0.0,4.887585532746823,141.73998044965788
19.550342130987293,171.0654936461388,171.0654936461388,9.775171065493646,146.6275659824047,4.887585532746823,19.550342130987293
4.887585532746823,68.42619745845552,14.662756598240469,4.887585532746823,278.5923753665689,68.42619745845552,4.887585532746823
14.662756598240469,9.775171065493646,127.07722385141741,131.96480938416423,24.437927663734115,63.53861192570871,29.325513196480937
180.84066471163246,4.887585532746823,122.18963831867057,83.08895405669598,9.775171065493646,4.887585532746823,185.7282502443793
141.73998044965788,92.86412512218965,9.775171065493646,9.775171065493646,9.775171065493646,9.775171065493646,87.97653958944282
14.662756598240469,73.31378299120234,0.0,0.0,58.651026392961874,0.0,14.662756598240469
4.887585532746823,24.437927663734115,151.51515151515153,39.100684261974585,102.63929618768329,39.100684261974585,4.887585532746823
39.100684261974585,0.0,322.5806451612903,156.40273704789834,68.42619745845552,78.20136852394917,48.87585532746823
224.82893450635387,4.887585532746823,24.437927663734115,29.325513196480937,4.887585532746823,14.662756598240469,175.95307917888564
78.20136852394917,224.82893450635387,4.887585532746823,4.887585532746823,78.20136852394917,4.887585532746823,29.325513196480937
14.662756598240469,151.51515151515153,9.775171065493646,4.887585532746823,166.17790811339196,24.437927663734115,4.887585532746823
9.775171065493646,4.887585532746823,224.82893450635387,34.21309872922776,14.662756598240469,97.75171065493646,9.775171065493646
185.7282502443793,4.887585532746823,68.42619745845552,146.6275659824047,4.887585532746823,29.325513196480937,107.52688172043011
146.6275659824047,156.40273704789834,9.775171065493646,43.98826979472141,0.0,9.775171065493646,156.40273704789834
14.662756598240469,322.5806451612903,0.0,9.775171065493646,122.18963831867057,4.887585532746823,14.662756598240469
0.0,63.53861192570871,4.887585532746823,9.775171065493646,127.07722385141741,180.84066471163246,9.775171065493646
4.887585532746823,4.887585532746823,249.26686217008796,58.651026392961874,9.775171065493646,78.20136852394917,9.775171065493646
190.6158357771261,0.0,166.17790811339196,112.41446725317694,4.887585532746823,9.775171065493646,171.0654936461388
92.86412512218965,39.100684261974585,14.662756598240469,14.662756598240469,9.775171065493646,4.887585532746823,131.96480938416423
9.775171065493646,24.437927663734115,0.0,9.775171065493646,210.16617790811338,4.887585532746823,4.887585532746823
4.887585532746823,29.325513196480937,92.86412512218965,4.887585532746823,156.40273704789834,4.887585532746823,4.887585532746823
68.42619745845552,19.550342130987293,219.94134897360706,87.97653958944282,19.550342130987293,171.0654936461388,63.53861192570871
185.7282502443793,9.775171065493646,19.550342130987293,122.18963831867057,0.0,34.21309872922776,205.27859237536657
34.21309872922776,131.96480938416423,0.0,4.887585532746823,92.86412512218965,9.775171065493646,14.662756598240469
9.775171065493646,122.18963831867057,4.887585532746823,4.887585532746823,136.85239491691104,0.0,9.775171065493646
9.775171065493646,14.662756598240469,166.17790811339196,4.887585532746823,9.775171065493646,4.887585532746823,4.887585532746823
48.87585532746823,4.887585532746823,83.08895405669598,83.08895405669598,9.775171065493646,229.7165200391007,92.86412512218965
161.29032258064515,4.887585532746823,9.775171065493646,87.97653958944282,63.53861192570871,136.85239491691104,175.95307917888564
39.100684261974585,171.0654936461388,9.775171065493646,4.887585532746823,259.04203323558164,14.662756598240469,19.550342130987293
4.887585532746823,78.20136852394917,19.550342130987293,4.887585532746823,68.42619745845552,4.887585532746823,9.775171065493646
4.887585532746823,9.775171065493646,224.82893450635387,24.437927663734115,4.887585532746823,97.75171065493646,4.887585532746823
161.29032258064515,9.775171065493646,156.40273704789834,131.96480938416423,9.775171065493646,53.763440860215056,146.6275659824047
102.63929618768329,73.31378299120234,14.662756598240469,43.98826979472141,244.37927663734115,19.550342130987293,122.18963831867057
9.775171065493646,92.86412512218965,4.887585532746823,4.887585532746823,131.96480938416423,9.775171065493646,9.775171065493646
4.887585532746823,39.100684261974585,24.437927663734115,0.0,14.662756598240469,4.887585532746823,4.887585532746823
34.21309872922776,4.887585532746823,102.63929618768329,14.662756598240469,4.887585532746823,156.40273704789834,29.325513196480937
141.73998044965788,4.887585532746823,229.7165200391007,146.6275659824047,4.887585532746823,122.18963831867057,200.39100684261973
151.51515151515153,97.75171065493646,24.437927663734115,34.21309872922776,210.16617790811338,14.662756598240469,63.53861192570871
9.775171065493646,127.07722385141741,9.775171065493646,4.887585532746823,146.6275659824047,4.887585532746823,0.0
4.887585532746823,19.550342130987293,107.52688172043011,4.887585532746823,14.662756598240469,9.775171065493646,9.775171065493646
127.07722385141741,0.0,48.87585532746823,34.21309872922776,9.775171065493646,39.100684261974585,102.63929618768329
156.40273704789834,4.887585532746823,14.662756598240469,107.52688172043011,68.42619745845552,4.887585532746823,131.96480938416423
14.662756598240469,92.86412512218965,4.887585532746823,19.550342130987293,307.91788856304987,39.100684261974585,14.662756598240469
4.887585532746823,180.84066471163246,9.775171065493646,4.887585532746823,39.100684261974585,9.775171065493646,0.0
14.662756598240469,24.437927663734115,200.39100684261973,4.887585532746823,9.775171065493646,9.775171065493646,0.0
180.84066471163246,14.662756598240469,24.437927663734115,24.437927663734115,9.775171065493646,112.41446725317694,234.6041055718475
131.96480938416423,0.0,9.775171065493646,127.07722385141741,73.31378299120234,24.437927663734115,131.96480938416423
9.775171065493646,195.50342130987292,9.775171065493646,34.21309872922776,239.49169110459434,4.887585532746823,9.775171065493646
0.0,219.94134897360706,9.775171065493646,4.887585532746823,29.325513196480937,4.887585532746823,0.0
73.31378299120234,43.98826979472141,131.96480938416423,4.887585532746823,9.775171065493646,43.98826979472141,48.87585532746823
156.40273704789834,0.0,58.651026392961874,34.21309872922776,68.42619745845552,151.51515151515153,190.6158357771261
19.550342130987293,78.20136852394917,4.887585532746823,141.73998044965788,171.0654936461388,39.100684261974585,34.21309872922776
9.775171065493646,136.85239491691104,0.0,53.763440860215056,102.63929618768329,4.887585532746823,9.775171065493646
4.887585532746823,34.21309872922776,24.437927663734115,9.775171065493646,9.775171065493646,9.775171065493646,4.887585532746823
117.30205278592375,9.775171065493646,97.75171065493646,4.887585532746823,9.775171065493646,19.550342130987293,112.41446725317694
200.39100684261973,0.0,9.775171065493646,68.42619745845552,78.20136852394917,9.775171065493646,171.0654936461388
19.550342130987293,102.63929618768329,4.887585532746823,112.41446725317694,58.651026392961874,43.98826979472141,9.775171065493646
4.887585532746823,107.52688172043011,0.0,19.550342130987293,29.325513196480937,131.96480938416423,0.0
9.775171065493646,4.887585532746823,43.98826979472141,4.887585532746823,9.775171065493646,14.662756598240469,4.887585532746823
175.95307917888564,0.0,195.50342130987292,9.775171065493646,4.887585532746823,14.662756598240469,171.0654936461388
92.86412512218965,117.30205278592375,68.42619745845552,92.86412512218965,146.6275659824047,97.75171065493646,141.73998044965788
4.887585532746823,102.63929618768329,9.775171065493646,87.97653958944282,83.08895405669598,102.63929618768329,4.887585532746823
9.775171065493646,14.662756598240469,0.0,9.775171065493646,14.662756598240469,4.887585532746823,9.775171065493646
4.887585532746823,9.775171065493646,39.100684261974585,4.887585532746823,9.775171065493646,34.21309872922776,53.763440860215056
195.50342130987292,29.325513196480937,24.437927663734115,19.550342130987293,14.662756598240469,9.775171065493646,180.84066471163246
161.29032258064515,14.662756598240469,34.21309872922776,141.73998044965788,73.31378299120234,131.96480938416423,24.437927663734115
9.775171065493646,136.85239491691104,4.887585532746823,43.98826979472141,131.96480938416423,29.325513196480937,0.0
4.887585532746823,19.550342130987293,4.887585532746823,9.775171065493646,14.662756598240469,4.887585532746823,9.775171065493646
92.86412512218965,0.0,4.887585532746823,0.0,4.887585532746823,4.887585532746823,107.52688172043011
166.17790811339196,4.887585532746823,190.6158357771261,14.662756598240469,151.51515151515153,34.21309872922776,185.7282502443793
24.437927663734115,83.08895405669598,73.31378299120234,112.41446725317694,127.07722385141741,141.73998044965788,24.437927663734115
0.0,205.27859237536657,9.775171065493646,39.100684261974585,14.662756598240469,29.325513196480937,9.775171065493646
9.775171065493646,34.21309872922776,4.887585532746823,4.887585532746823,0.0,9.775171065493646,4.887585532746823
180.84066471163246,9.775171065493646,14.662756598240469,9.775171065493646,4.887585532746823,4.887585532746823,131.96480938416423
97.75171065493646,9.775171065493646,48.87585532746823,19.550342130987293,39.100684261974585,39.100684261974585,97.75171065493646
9.775171065493646,24.437927663734115,185.7282502443793,146.6275659824047,166.17790811339196,151.51515151515153,9.775171065493646
4.887585532746823,117.30205278592375,24.437927663734115,39.100684261974585,29.325513196480937,39.100684261974585,4.887585532746823
43.98826979472141,24.437927663734115,0.0,14.662756598240469,4.887585532746823,4.887585532746823,29.325513196480937
195.50342130987292,4.887585532746823,102.63929618768329,9.775171065493646,0.0,4.887585532746823,185.7282502443793
53.763440860215056,9.775171065493646,117.30205278592375,29.325513196480937,34.21309872922776,146.6275659824047,73.31378299120234
9.775171065493646,87.97653958944282,34.21309872922776,122.18963831867057,58.651026392961874,107.52688172043011,4.887585532746823
0.0,92.86412512218965,9.775171065493646,43.98826979472141,68.42619745845552,9.775171065493646,9.775171065493646
112.41446725317694,14.662756598240469,4.887585532746823,14.662756598240469,9.775171065493646,14.662756598240469,141.73998044965788
117.30205278592375,4.887585532746823,185.7282502443793,4.887585532746823,0.0,0.0,175.95307917888564
9.775171065493646,14.662756598240469,107.52688172043011,34.21309872922776,151.51515151515153,9.775171065493646,19.550342130987293
0.0,171.0654936461388,14.662756598240469,127.07722385141741,29.325513196480937,24.437927663734115,0.0
48.87585532746823,122.18963831867057,0.0,43.98826979472141,0.0,151.51515151515153,4.887585532746823
161.29032258064515,14.662756598240469,53.763440860215056,4.887585532746823,9.775171065493646,24.437927663734115,151.51515151515153
78.20136852394917,0.0,29.325513196480937,9.775171065493646,151.51515151515153,0.0,127.07722385141741
4.887585532746823,43.98826979472141,34.21309872922776,19.550342130987293,112.41446725317694,63.53861192570871,9.775171065493646
4.887585532746823,136.85239491691104,9.775171065493646,122.18963831867057,24.437927663734115,166.17790811339196,4.887585532746823
107.52688172043011,53.763440860215056,9.775171065493646,63.53861192570871,4.887585532746823,19.550342130987293,34.21309872922776
151.51515151515153,0.0,175.95307917888564,14.662756598240469,0.0,0.0,224.82893450635387
19.550342130987293,4.887585532746823,58.651026392961874,9.775171065493646,43.98826979472141,0.0,92.86412512218965
4.887585532746823,83.08895405669598,9.775171065493646,29.325513196480937,195.50342130987292,73.31378299120234,9.775171065493646
0.0,156.40273704789834,4.887585532746823,122.18963831867057,24.437927663734115,87.97653958944282,4.887585532746823
161.29032258064515,14.662756598240469,0.0,24.437927663734115,4.887585532746823,24.437927663734115,107.52688172043011
171.0654936461388,0.0,24.437927663734115,9.775171065493646,4.887585532746823,4.887585532746823,195.50342130987292
14.662756598240469,4.887585532746823,48.87585532746823,0.0,14.662756598240469,39.100684261974585,24.437927663734115
9.775171065493646,161.29032258064515,78.20136852394917,68.42619745845552,141.73998044965788,19.550342130987293,9.775171065493646
34.21309872922776,83.08895405669598,29.325513196480937,117.30205278592375,73.31378299120234,102.63929618768329,4.887585532746823
219.94134897360706,4.887585532746823,43.98826979472141,9.775171065493646,9.775171065493646,14.662756598240469,151.51515151515153
83.08895405669598,4.887585532746823,263.92961876832845,4.887585532746823,0.0,9.775171065493646,141.73998044965788
4.887585532746823,127.07722385141741,39.100684261974585,9.775171065493646,136.85239491691104,14.662756598240469,14.662756598240469
4.887585532746823,205.27859237536657,4.887585532746823,83.08895405669598,83.08895405669598,63.53861192570871,4.887585532746823
92.86412512218965,24.437927663734115,14.662756598240469,58.651026392961874,9.775171065493646,92.86412512218965,39.100684261974585
131.96480938416423,4.887585532746823,9.775171065493646,9.775171065493646,4.887585532746823,9.775171065493646,200.39100684261973
14.662756598240469,9.775171065493646,161.29032258064515,4.887585532746823,39.100684261974585,9.775171065493646,107.52688172043011
9.775171065493646,78.20136852394917,107.52688172043011,4.887585532746823,278.5923753665689,19.550342130987293,9.775171065493646
14.662756598240469,239.49169110459434,14.662756598240469,122.18963831867057,87.97653958944282,48.87585532746823,0.0
268.81720430107526,24.437927663734115,0.0,43.98826979472141,4.887585532746823,141.73998044965788,102.63929618768329
122.18963831867057,4.887585532746823,34.21309872922776,4.887585532746823,0.0,19.550342130987293,136.85239491691104
14.662756598240469,4.887585532746823,136.85239491691104,0.0,131.96480938416423,0.0,19.550342130987293
9.775171065493646,92.86412512218965,53.763440860215056,24.437927663734115,351.9061583577713,29.325513196480937,4.887585532746823
19.550342130987293,97.75171065493646,9.775171065493646,107.52688172043011,34.21309872922776,9.775171065493646,0.0
215.05376344086022,4.887585532746823,4.887585532746823,58.651026392961874,14.662756598240469,0.0,161.29032258064515
83.08895405669598,9.775171065493646,141.73998044965788,0.0,0.0,4.887585532746823,161.29032258064515
4.887585532746823,68.42619745845552,107.52688172043011,4.887585532746823,180.84066471163246,4.887585532746823,9.775171065493646
0.0,63.53861192570871,9.775171065493646,39.100684261974585,273.7047898338221,78.20136852394917,9.775171065493646
107.52688172043011,19.550342130987293,4.887585532746823,141.73998044965788,29.325513196480937,215.05376344086022,43.98826979472141
131.96480938416423,4.887585532746823,48.87585532746823,39.100684261974585,9.775171065493646,9.775171065493646,200.39100684261973
19.550342130987293,9.775171065493646,244.37927663734115,4.887585532746823,9.775171065493646,0.0,48.87585532746823
0.0,97.75171065493646,34.21309872922776,4.887585532746823,117.30205278592375,4.887585532746823,4.887585532746823
4.887585532746823,78.20136852394917,4.887585532746823,34.21309872922776,205.27859237536657,195.50342130987292,4.887585532746823
151.51515151515153,9.775171065493646,0.0,112.41446725317694,24.437927663734115,161.29032258064515,73.31378299120234
107.52688172043011,0.0,29.325513196480937,24.437927663734115,4.887585532746823,14.662756598240469,141.73998044965788
4.887585532746823,9.775171065493646,4.887585532746823,14.662756598240469,39.100684261974585,4.887585532746823,19.550342130987293
9.775171065493646,215.05376344086022,215.05376344086022,4.887585532746823,205.27859237536657,0.0,9.775171065493646
24.437927663734115,107.52688172043011,175.95307917888564,34.21309872922776,73.31378299120234,9.775171065493646,9.775171065493646
200.39100684261973,9.775171065493646,14.662756598240469,87.97653958944282,9.775171065493646,127.07722385141741,136.85239491691104
107.52688172043011,4.887585532746823,87.97653958944282,14.662756598240469,4.887585532746823,19.550342130987293,102.63929618768329
9.775171065493646,92.86412512218965,34.21309872922776,9.775171065493646,161.29032258064515,4.887585532746823,4.887585532746823
0.0,215.05376344086022,9.775171065493646,4.887585532746823,68.42619745845552,34.21309872922776,14.662756598240469
78.20136852394917,29.325513196480937,0.0,63.53861192570871,9.775171065493646,68.42619745845552,34.21309872922776
185.7282502443793,14.662756598240469,4.887585532746823,122.18963831867057,4.887585532746823,68.42619745845552,180.84066471163246
19.550342130987293,34.21309872922776,185.7282502443793,19.550342130987293,9.775171065493646,14.662756598240469,92.86412512218965
0.0,122.18963831867057,131.96480938416423,9.775171065493646,107.52688172043011,9.775171065493646,14.662756598240469
0.0,34.21309872922776,9.775171065493646,4.887585532746823,254.15444770283483,68.42619745845552,9.775171065493646
127.07722385141741,9.775171065493646,0.0,73.31378299120234,24.437927663734115,68.42619745845552,122.18963831867057
185.7282502443793,4.887585532746823,24.437927663734115,102.63929618768329,9.775171065493646,4.887585532746823,190.6158357771261
19.550342130987293,4.887585532746823,288.36754643206257,4.887585532746823,24.437927663734115,4.887585532746823,34.21309872922776
9.775171065493646,97.75171065493646,87.97653958944282,9.775171065493646,63.53861192570871,92.86412512218965,9.775171065493646
24.437927663734115,58.651026392961874,4.887585532746823,4.887585532746823,34.21309872922776,278.5923753665689,4.887585532746823
180.84066471163246,14.662756598240469,4.887585532746823,92.86412512218965,9.775171065493646,29.325513196480937,117.30205278592375
63.53861192570871,9.775171065493646,24.437927663734115,34.21309872922776,9.775171065493646,9.775171065493646,87.97653958944282
9.775171065493646,0.0,131.96480938416423,4.887585532746823,156.40273704789834,4.887585532746823,14.662756598240469
4.887585532746823,151.51515151515153,122.18963831867057,4.887585532746823,112.41446725317694,9.775171065493646,4.887585532746823
97.75171065493646,117.30205278592375,9.775171065493646,9.775171065493646,14.662756598240469,127.07722385141741,29.325513196480937
180.84066471163246,9.775171065493646,19.550342130987293,122.18963831867057,4.887585532746823,53.763440860215056,180.84066471163246
19.550342130987293,0.0,141.73998044965788,43.98826979472141,9.775171065493646,9.775171065493646,73.31378299120234
4.887585532746823,39.100684261974585,63.53861192570871,14.662756598240469,180.84066471163246,0.0,4.887585532746823
4.887585532746823,151.51515151515153,4.887585532746823,4.887585532746823,97.75171065493646,4.887585532746823,0.0
146.6275659824047,58.651026392961874,4.887585532746823,9.775171065493646,14.662756598240469,43.98826979472141,102.63929618768329
200.39100684261973,14.662756598240469,0.0,107.52688172043011,0.0,112.41446725317694,175.95307917888564
24.437927663734115,4.887585532746823,146.6275659824047,58.651026392961874,4.887585532746823,24.437927663734115,19.550342130987293
4.887585532746823,92.86412512218965,151.51515151515153,9.775171065493646,259.04203323558164,4.887585532746823,4.887585532746823
19.550342130987293,39.100684261974585,14.662756598240469,9.775171065493646,151.51515151515153,117.30205278592375,4.887585532746823
200.39100684261973,4.887585532746823,14.662756598240469,29.325513196480937,34.21309872922776,175.95307917888564,161.29032258064515
78.20136852394917,9.775171065493646,166.17790811339196,127.07722385141741,4.887585532746823,9.775171065493646,141.73998044965788
14.662756598240469,0.0,107.52688172043011,43.98826979472141,19.550342130987293,4.887585532746823,9.775171065493646
0.0,63.53861192570871,9.775171065493646,9.775171065493646,151.51515151515153,9.775171065493646,4.887585532746823
68.42619745845552,53.763440860215056,9.775171065493646,4.887585532746823,14.662756598240469,83.08895405669598,34.21309872922776
151.51515151515153,9.775171065493646,48.87585532746823,58.651026392961874,4.887585532746823,175.95307917888564,195.50342130987292
29.325513196480937,4.887585532746823,39.100684261974585,102.63929618768329,4.887585532746823,19.550342130987293,122.18963831867057
4.887585532746823,19.550342130987293,14.662756598240469,9.775171065493646,39.100684261974585,4.887585532746823,14.662756598240469
9.775171065493646,131.96480938416423,0.0,4.887585532746823,112.41446725317694,24.437927663734115,4.887585532746823
117.30205278592375,73.31378299120234,14.662756598240469,0.0,48.87585532746823,244.37927663734115,73.31378299120234
156.40273704789834,4.887585532746823,4.887585532746823,78.20136852394917,4.887585532746823,83.08895405669598,166.17790811339196
24.437927663734115,9.775171065493646,73.31378299120234,122.18963831867057,9.775171065493646,9.775171065493646,19.550342130987293
9.775171065493646,141.73998044965788,107.52688172043011,14.662756598240469,161.29032258064515,4.887585532746823,4.887585532746823
19.550342130987293,127.07722385141741,19.550342130987293,9.775171065493646,185.7282502443793,19.550342130987293,0.0
156.40273704789834,24.437927663734115,4.887585532746823,0.0,19.550342130987293,9.775171065493646,127.07722385141741
68.42619745845552,4.887585532746823,9.775171065493646,107.52688172043011,4.887585532746823,68.42619745845552,127.07722385141741
4.887585532746823,9.775171065493646,288.36754643206257,78.20136852394917,9.775171065493646,58.651026392961874,9.775171065493646
4.887585532746823,151.51515151515153,107.52688172043011,4.887585532746823,171.0654936461388,53.763440860215056,4.887585532746823
97.75171065493646,48.87585532746823,9.775171065493646,0.0,83.08895405669598,87.97653958944282,39.100684261974585
161.29032258064515,0.0,0.0,39.100684261974585,9.775171065493646,48.87585532746823,185.7282502443793
39.100684261974585,0.0,0.0,141.73998044965788,9.775171065493646,9.775171065493646,68.42619745845552
4.887585532746823,4.887585532746823,107.52688172043011,34.21309872922776,34.21309872922776,9.775171065493646,4.887585532746823
4.887585532746823,102.63929618768329,259.04203323558164,9.775171065493646,210.16617790811338,34.21309872922776,4.887585532746823
156.40273704789834,244.37927663734115,19.550342130987293,0.0,24.437927663734115,97.75171065493646,29.325513196480937
171.0654936461388,39.100684261974585,4.887585532746823,19.550342130987293,19.550342130987293,107.52688172043011,107.52688172043011
14.662756598240469,9.775171065493646,112.41446725317694,117.30205278592375,58.651026392961874,4.887585532746823,29.325513196480937
4.887585532746823,19.550342130987293,131.96480938416423,29.325513196480937,48.87585532746823,0.0,0.0
29.325513196480937,219.94134897360706,14.662756598240469,4.887585532746823,63.53861192570871,58.651026392961874,4.887585532746823
210.16617790811338,53.763440860215056,9.775171065493646,9.775171065493646,4.887585532746823,268.81720430107526,83.08895405669598
127.07722385141741,4.887585532746823,9.775171065493646,14.662756598240469,0.0,34.21309872922776,293.2551319648094
4.887585532746823,0.0,136.85239491691104,117.30205278592375,24.437927663734115,4.887585532746823,68.42619745845552
4.887585532746823,156.40273704789834,4.887585532746823,29.325513196480937,234.6041055718475,19.550342130987293,9.775171065493646
92.86412512218965,175.95307917888564,14.662756598240469,9.775171065493646,87.97653958944282,107.52688172043011,9.775171065493646
190.6158357771261,14.662756598240469,0.0,4.887585532746823,4.887585532746823,34.21309872922776,141.73998044965788
29.325513196480937,4.887585532746823,9.775171065493646,58.651026392961874,0.0,4.887585532746823,97.75171065493646
4.887585532746823,9.775171065493646,229.7165200391007,107.52688172043011,19.550342130987293,4.887585532746823,9.775171065493646
0.0,53.763440860215056,469.208211143695,4.887585532746823,171.0654936461388,0.0,14.662756598240469
234.6041055718475,136.85239491691104,34.21309872922776,4.887585532746823,14.662756598240469,87.97653958944282,87.97653958944282
107.52688172043011,9.775171065493646,9.775171065493646,0.0,4.887585532746823,117.30205278592375,175.95307917888564
14.662756598240469,4.887585532746823,112.41446725317694,68.42619745845552,4.887585532746823,4.887585532746823,19.550342130987293
4.887585532746823,43.98826979472141,53.763440860215056,92.86412512218965,53.763440860215056,4.887585532746823,4.887585532746823
14.662756598240469,244.37927663734115,9.775171065493646,14.662756598240469,87.97653958944282,9.775171065493646,0.0
190.6158357771261,136.85239491691104,14.662756598240469,9.775171065493646,19.550342130987293,127.07722385141741,117.30205278592375
83.08895405669598,9.775171065493646,9.775171065493646,4.887585532746823,4.887585532746823,73.31378299120234,92.86412512218965
9.775171065493646,4.887585532746823,68.42619745845552,122.18963831867057,0.0,4.887585532746823,9.775171065493646
0.0,122.18963831867057,73.31378299120234,48.87585532746823,78.20136852394917,0.0,9.775171065493646
34.21309872922776,78.20136852394917,9.775171065493646,4.887585532746823,146.6275659824047,14.662756598240469,34.21309872922776
215.05376344086022,4.887585532746823,4.887585532746823,0.0,48.87585532746823,136.85239491691104,234.6041055718475
68.42619745845552,0.0,39.100684261974585,29.325513196480937,0.0,102.63929618768329,127.07722385141741
4.887585532746823,19.550342130987293,151.51515151515153,117.30205278592375,9.775171065493646,9.775171065493646,14.662756598240469
4.887585532746823,224.82893450635387,78.20136852394917,34.21309872922776,161.29032258064515,34.21309872922776,4.887585532746823
107.52688172043011,151.51515151515153,4.887585532746823,0.0,131.96480938416423,156.40273704789834,48.87585532746823
161.29032258064515,14.662756598240469,0.0,4.887585532746823,9.775171065493646,34.21309872922776,156.40273704789834
9.775171065493646,4.887585532746823,117.30205278592375,24.437927663734115,4.887585532746823,4.887585532746823,24.437927663734115
4.887585532746823,39.100684261974585,136.85239491691104,92.86412512218965,127.07722385141741,9.775171065493646,14.662756598240469
19.550342130987293,210.16617790811338,29.325513196480937,34.21309872922776,146.6275659824047,29.325513196480937,9.775171065493646
210.16617790811338,58.651026392961874,0.0,4.887585532746823,19.550342130987293,141.73998044965788,175.95307917888564
136.85239491691104,0.0,4.887585532746823,4.887585532746823,4.887585532746823,19.550342130987293,175.95307917888564
19.550342130987293,0.0,29.325513196480937,19.550342130987293,4.887585532746823,14.662756598240469,24.437927663734115
0.0,141.73998044965788,141.73998044965788,131.96480938416423,43.98826979472141,0.0,9.775171065493646
43.98826979472141,156.40273704789834,112.41446725317694,24.437927663734115,87.97653958944282,4.887585532746823,43.98826979472141
190.6158357771261,14.662756598240469,4.887585532746823,9.775171065493646,43.98826979472141,254.15444770283483,215.05376344086022
34.21309872922776,0.0,43.98826979472141,0.0,14.662756598240469,278.5923753665689,92.86412512218965
9.775171065493646,4.887585532746823,107.52688172043011,24.437927663734115,4.887585532746823,24.437927663734115,9.775171065493646
9.775171065493646,87.97653958944282,14.662756598240469,112.41446725317694,68.42619745845552,0.0,0.0
73.31378299120234,34.21309872922776,9.775171065493646,24.437927663734115,200.39100684261973,9.775171065493646,63.53861192570871
161.29032258064515,9.775171065493646,4.887585532746823,4.887585532746823,19.550342130987293,122.18963831867057,161.29032258064515
34.21309872922776,9.775171065493646,4.887585532746823,0.0,9.775171065493646,14.662756598240469,19.550342130987293
4.887585532746823,53.763440860215056,298.14271749755625,43.98826979472141,156.40273704789834,4.887585532746823,0.0
9.775171065493646,288.36754643206257,263.92961876832845,83.08895405669598,273.7047898338221,58.651026392961874,4.887585532746823
136.85239491691104,24.437927663734115,14.662756598240469,19.550342130987293,29.325513196480937,200.39100684261973,117.30205278592375
136.85239491691104,4.887585532746823,0.0,9.775171065493646,4.887585532746823,24.437927663734115,146.6275659824047
14.662756598240469,14.662756598240469,4.887585532746823,0.0,9.775171065493646,4.887585532746823,19.550342130987293
4.887585532746823,4.887585532746823,83.08895405669598,19.550342130987293,63.53861192570871,4.887585532746823,4.887585532746823
9.775171065493646,141.73998044965788,53.763440860215056,102.63929618768329,78.20136852394917,9.775171065493646,24.437927663734115
185.7282502443793,48.87585532746823,4.887585532746823,24.437927663734115,4.887585532746823,107.52688172043011,200.39100684261973
107.52688172043011,4.887585532746823,4.887585532746823,9.775171065493646,9.775171065493646,34.21309872922776,63.53861192570871
9.775171065493646,4.887585532746823,185.7282502443793,4.887585532746823,9.775171065493646,29.325513196480937,4.887585532746823
0.0,136.85239491691104,83.08895405669598,24.437927663734115,92.86412512218965,4.887585532746823,0.0
43.98826979472141,171.0654936461388,4.887585532746823,127.07722385141741,53.763440860215056,0.0,48.87585532746823
215.05376344086022,24.437927663734115,4.887585532746823,29.325513196480937,14.662756598240469,63.53861192570871,166.17790811339196
87.97653958944282,14.662756598240469,48.87585532746823,0.0,4.887585532746823,151.51515151515153,29.325513196480937
14.662756598240469,19.550342130987293,166.17790811339196,9.775171065493646,14.662756598240469,19.550342130987293,4.887585532746823
9.775171065493646,92.86412512218965,48.87585532746823,9.775171065493646,151.51515151515153,0.0,4.887585532746823
146.6275659824047,166.17790811339196,9.775171065493646,131.96480938416423,112.41446725317694,58.651026392961874,122.18963831867057
136.85239491691104,9.775171065493646,0.0,53.763440860215056,9.775171065493646,190.6158357771261,161.29032258064515
14.662756598240469,0.0,73.31378299120234,0.0,14.662756598240469,34.21309872922776,24.437927663734115
4.887585532746823,97.75171065493646,127.07722385141741,4.887585532746823,43.98826979472141,9.775171065493646,0.0
29.325513196480937,141.73998044965788,9.775171065493646,58.651026392961874,53.763440860215056,4.887585532746823,39.100684261974585
112.41446725317694,24.437927663734115,0.0,83.08895405669598,14.662756598240469,63.53861192570871,508.30889540566966
63.53861192570871,4.887585532746823,0.0,9.775171065493646,4.887585532746823,97.75171065493646,29.325513196480937
9.775171065493646,14.662756598240469,127.07722385141741,4.887585532746823,14.662756598240469,9.775171065493646,0.0
9.775171065493646,312.8054740957967,87.97653958944282,4.887585532746823,9.775171065493646,4.887585532746823,48.87585532746823
63.53861192570871,136.85239491691104,24.437927663734115,83.08895405669598,171.0654936461388,9.775171065493646,190.6158357771261
166.17790811339196,14.662756598240469,4.887585532746823,63.53861192570871,122.18963831867057,195.50342130987292,48.87585532746823
24.437927663734115,9.775171065493646,0.0,4.887585532746823,4.887585532746823,58.651026392961874,9.775171065493646
0.0,9.775171065493646,146.6275659824047,4.887585532746823,0.0,4.887585532746823,29.325513196480937
4.887585532746823,156.40273704789834,156.40273704789834,43.98826979472141,219.94134897360706,4.887585532746823,19.550342130987293
141.73998044965788,68.42619745845552,24.437927663734115,87.97653958944282,107.52688172043011,0.0,151.51515151515153
141.73998044965788,0.0,0.0,9.775171065493646,14.662756598240469,161.29032258064515,107.52688172043011
24.437927663734115,0.0,43.98826979472141,4.887585532746823,0.0,53.763440860215056,9.775171065493646
9.775171065493646,4.887585532746823,73.31378299120234,4.887585532746823,14.662756598240469,4.887585532746823,0.0
14.662756598240469,117.30205278592375,9.775171065493646,14.662756598240469,156.40273704789834,9.775171065493646,112.41446725317694
205.27859237536657,78.20136852394917,0.0,97.75171065493646,24.437927663734115,87.97653958944282,195.50342130987292
107.52688172043011,4.887585532746823,9.775171065493646,43.98826979472141,9.775171065493646,229.7165200391007,83.08895405669598
14.662756598240469,4.887585532746823,107.52688172043011,9.775171065493646,9.775171065493646,53.763440860215056,83.08895405669598
0.0,171.0654936461388,190.6158357771261,4.887585532746823,39.100684261974585,4.887585532746823,4.887585532746823
43.98826979472141,131.96480938416423,19.550342130987293,14.662756598240469,141.73998044965788,4.887585532746823,78.20136852394917
234.6041055718475,29.325513196480937,0.0,127.07722385141741,29.325513196480937,53.763440860215056,43.98826979472141
68.42619745845552,4.887585532746823,58.651026392961874,63.53861192570871,9.775171065493646,127.07722385141741,24.437927663734115
9.775171065493646,14.662756598240469,83.08895405669598,4.887585532746823,0.0,24.437927663734115,29.325513196480937
4.887585532746823,278.5923753665689,92.86412512218965,9.775171065493646,0.0,9.775171065493646,4.887585532746823
112.41446725317694,107.52688172043011,9.775171065493646,83.08895405669598,146.6275659824047,48.87585532746823,122.18963831867057
146.6275659824047,4.887585532746823,9.775171065493646,68.42619745845552,215.05376344086022,229.7165200391007,185.7282502443793
14.662756598240469,4.887585532746823,68.42619745845552,14.662756598240469,19.550342130987293,29.325513196480937,14.662756598240469
4.887585532746823,4.887585532746823,83.08895405669598,0.0,4.887585532746823,9.775171065493646,0.0
4.887585532746823,141.73998044965788,4.887585532746823,4.887585532746823,87.97653958944282,14.662756598240469,58.651026392961874
156.40273704789834,234.6041055718475,4.887585532746823,92.86412512218965,171.0654936461388,48.87585532746823,273.7047898338221
68.42619745845552,19.550342130987293,4.887585532746823,87.97653958944282,4.887585532746823,92.86412512218965,19.550342130987293
4.887585532746823,9.775171065493646,141.73998044965788,14.662756598240469,0.0,14.662756598240469,4.887585532746823
4.887585532746823,131.96480938416423,112.41446725317694,0.0,87.97653958944282,9.775171065493646,4.887585532746823
43.98826979472141,102.63929618768329,9.775171065493646,4.887585532746823,166.17790811339196,9.775171065493646,73.31378299120234
171.0654936461388,9.775171065493646,0.0,83.08895405669598,87.97653958944282,0.0,122.18963831867057
73.31378299120234,4.887585532746823,122.18963831867057,39.100684261974585,4.887585532746823,215.05376344086022,14.662756598240469
9.775171065493646,4.887585532746823,175.95307917888564,4.887585532746823,4.887585532746823,151.51515151515153,4.887585532746823
4.887585532746823,141.73998044965788,58.651026392961874,4.887585532746823,87.97653958944282,9.775171065493646,9.775171065493646
92.86412512218965,127.07722385141741,4.887585532746823,19.550342130987293,180.84066471163246,4.887585532746823,439.8826979472141
166.17790811339196,4.887585532746823,0.0,117.30205278592375,24.437927663734115,68.42619745845552,195.50342130987292
14.662756598240469,4.887585532746823,97.75171065493646,53.763440860215056,4.887585532746823,127.07722385141741,9.775171065493646
4.887585532746823,43.98826979472141,166.17790811339196,4.887585532746823,4.887585532746823,14.662756598240469,4.887585532746823
14.662756598240469,200.39100684261973,39.100684261974585,0.0,92.86412512218965,0.0,87.97653958944282
180.84066471163246,78.20136852394917,4.887585532746823,58.651026392961874,14.662756598240469,58.651026392961874,136.85239491691104
136.85239491691104,4.887585532746823,9.775171065493646,112.41446725317694,19.550342130987293,87.97653958944282,107.52688172043011
9.775171065493646,0.0,180.84066471163246,14.662756598240469,24.437927663734115,4.887585532746823,4.887585532746823
4.887585532746823,73.31378299120234,68.42619745845552,9.775171065493646,4.887585532746823,9.775171065493646,48.87585532746823
73.31378299120234,234.6041055718475,9.775171065493646,0.0,97.75171065493646,19.550342130987293,180.84066471163246
190.6158357771261,97.75171065493646,0.0,87.97653958944282,87.97653958944282,92.86412512218965,24.437927663734115
34.21309872922776,9.775171065493646,83.08895405669598,97.75171065493646,9.775171065493646,53.763440860215056,4.887585532746823
4.887585532746823,14.662756598240469,58.651026392961874,9.775171065493646,9.775171065493646,9.775171065493646,0.0
0.0,185.7282502443793,53.763440860215056,4.887585532746823,29.325513196480937,0.0,151.51515151515153
175.95307917888564,63.53861192570871,58.651026392961874,19.550342130987293,224.82893450635387,29.325513196480937,131.96480938416423
141.73998044965788,9.775171065493646,48.87585532746823,102.63929618768329,97.75171065493646,117.30205278592375,9.775171065493646
14.662756598240469,9.775171065493646,92.86412512218965,73.31378299120234,0.0,122.18963831867057,4.887585532746823
4.887585532746823,48.87585532746823,4.887585532746823,4.887585532746823,4.887585532746823,14.662756598240469,4.887585532746823
9.775171065493646,156.40273704789834,9.775171065493646,9.775171065493646,92.86412512218965,4.887585532746823,161.29032258064515
131.96480938416423,53.763440860215056,4.887585532746823,34.21309872922776,146.6275659824047,48.87585532746823,102.63929618768329
102.63929618768329,4.887585532746823,122.18963831867057,131.96480938416423,24.437927663734115,63.53861192570871,34.21309872922776
4.887585532746823,19.550342130987293,117.30205278592375,53.763440860215056,9.775171065493646,4.887585532746823,14.662756598240469
4.887585532746823,190.6158357771261,14.662756598240469,14.662756598240469,0.0,0.0,58.651026392961874
48.87585532746823,43.98826979472141,0.0,4.887585532746823,136.85239491691104,14.662756598240469,156.40273704789834
200.39100684261973,4.887585532746823,24.437927663734115,78.20136852394917,107.52688172043011,185.7282502443793,146.6275659824047
53.763440860215056,4.887585532746823,102.63929618768329,83.08895405669598,9.775171065493646,215.05376344086022,4.887585532746823
4.887585532746823,14.662756598240469,63.53861192570871,9.775171065493646,0.0,43.98826979472141,9.775171065493646
19.550342130987293,107.52688172043011,24.437927663734115,4.887585532746823,4.887585532746823,4.887585532746823,210.16617790811338
156.40273704789834,63.53861192570871,0.0,14.662756598240469,185.7282502443793,9.775171065493646,97.75171065493646
112.41446725317694,9.775171065493646,87.97653958944282,127.07722385141741,68.42619745845552,39.100684261974585,14.662756598240469
4.887585532746823,4.887585532746823,234.6041055718475,53.763440860215056,4.887585532746823,156.40273704789834,14.662756598240469
9.775171065493646,78.20136852394917,43.98826979472141,9.775171065493646,9.775171065493646,19.550342130987293,180.84066471163246
48.87585532746823,146.6275659824047,9.775171065493646,0.0,200.39100684261973,0.0,141.73998044965788
190.6158357771261,19.550342130987293,9.775171065493646,58.651026392961874,112.41446725317694,83.08895405669598,9.775171065493646
34.21309872922776,4.887585532746823,78.20136852394917,97.75171065493646,9.775171065493646,43.98826979472141,0.0
4.887585532746823,4.887585532746823,361.6813294232649,24.437927663734115,9.775171065493646,136.85239491691104,4.887585532746823
9.775171065493646,141.73998044965788,53.763440860215056,9.775171065493646,9.775171065493646,9.775171065493646,166.17790811339196
136.85239491691104,224.82893450635387,4.887585532746823,4.887585532746823,92.86412512218965,4.887585532746823,102.63929618768329
127.07722385141741,19.550342130987293,68.42619745845552,83.08895405669598,53.763440860215056,73.31378299120234,9.775171065493646
14.662756598240469,4.887585532746823,249.26686217008796,68.42619745845552,9.775171065493646,97.75171065493646,4.887585532746823
4.887585532746823,87.97653958944282,58.651026392961874,9.775171065493646,9.775171065493646,0.0,9.775171065493646
4.887585532746823,146.6275659824047,4.887585532746823,0.0,9.775171065493646,4.887585532746823,166.17790811339196
146.6275659824047,73.31378299120234,4.887585532746823,9.775171065493646,102.63929618768329,4.887585532746823,131.96480938416423
224.82893450635387,4.887585532746823,239.49169110459434,102.63929618768329,58.651026392961874,205.27859237536657,14.662756598240469
24.437927663734115,4.887585532746823,92.86412512218965,73.31378299120234,9.775171065493646,283.47996089931576,9.775171065493646
9.775171065493646,224.82893450635387,14.662756598240469,4.887585532746823,0.0,29.325513196480937,63.53861192570871
43.98826979472141,136.85239491691104,9.775171065493646,4.887585532746823,48.87585532746823,4.887585532746823,180.84066471163246
239.49169110459434,14.662756598240469,83.08895405669598,34.21309872922776,156.40273704789834,24.437927663734115,29.325513196480937
146.6275659824047,9.775171065493646,175.95307917888564,102.63929618768329,14.662756598240469,146.6275659824047,4.887585532746823
14.662756598240469,14.662756598240469,9.775171065493646,29.325513196480937,0.0,34.21309872922776,0.0
9.775171065493646,190.6158357771261,9.775171065493646,9.775171065493646,9.775171065493646,9.775171065493646,141.73998044965788
92.86412512218965,78.20136852394917,0.0,4.887585532746823,87.97653958944282,4.887585532746823,146.6275659824047
156.40273704789834,9.775171065493646,68.42619745845552,19.550342130987293,171.0654936461388,78.20136852394917,29.325513196480937
19.550342130987293,9.775171065493646,200.39100684261973,127.07722385141741,24.437927663734115,332.35581622678393,4.887585532746823
0.0,78.20136852394917,19.550342130987293,29.325513196480937,14.662756598240469,34.21309872922776,4.887585532746823
4.887585532746823,136.85239491691104,4.887585532746823,4.887585532746823,9.775171065493646,9.775171065493646,161.29032258064515
73.31378299120234,63.53861192570871,34.21309872922776,4.887585532746823,4.887585532746823,0.0,97.75171065493646
29.325513196480937,9.775171065493646,185.7282502443793,43.98826979472141,43.98826979472141,161.29032258064515,9.775171065493646
19.550342130987293,4.887585532746823,83.08895405669598,127.07722385141741,68.42619745845552,190.6158357771261,4.887585532746823
0.0,146.6275659824047,14.662756598240469,34.21309872922776,9.775171065493646,19.550342130987293,39.100684261974585
141.73998044965788,131.96480938416423,4.887585532746823,9.775171065493646,34.21309872922776,4.887585532746823,200.39100684261973
415.44477028347995,4.887585532746823,78.20136852394917,4.887585532746823,210.16617790811338,4.887585532746823,39.100684261974585
53.763440860215056,4.887585532746823,58.651026392961874,39.100684261974585,48.87585532746823,9.775171065493646,4.887585532746823
4.887585532746823,78.20136852394917,24.437927663734115,136.85239491691104,4.887585532746823,102.63929618768329,4.887585532746823
4.887585532746823,200.39100684261973,9.775171065493646,48.87585532746823,0.0,19.550342130987293,19.550342130987293
239.49169110459434,24.437927663734115,9.775171065493646,0.0,48.87585532746823,4.887585532746823,200.39100684261973
483.8709677419355,9.775171065493646,307.91788856304987,0.0,185.7282502443793,0.0,48.87585532746823
39.100684261974585,0.0,78.20136852394917,83.08895405669598,29.325513196480937,127.07722385141741,9.775171065493646
14.662756598240469,185.7282502443793,4.887585532746823,102.63929618768329,4.887585532746823,58.651026392961874,4.887585532746823
0.0,78.20136852394917,4.887585532746823,9.775171065493646,4.887585532746823,9.775171065493646,102.63929618768329
151.51515151515153,14.662756598240469,4.887585532746823,4.887585532746823,136.85239491691104,4.887585532746823,151.51515151515153
102.63929618768329,4.887585532746823,83.08895405669598,9.775171065493646,117.30205278592375,29.325513196480937,9.775171065493646
14.662756598240469,97.75171065493646,92.86412512218965,127.07722385141741,19.550342130987293,136.85239491691104,4.887585532746823
4.887585532746823,141.73998044965788,9.775171065493646,68.42619745845552,9.775171065493646,43.98826979472141,24.437927663734115
68.42619745845552,48.87585532746823,0.0,9.775171065493646,24.437927663734115,4.887585532746823,161.29032258064515
434.99511241446726,0.0,141.73998044965788,9.775171065493646,278.5923753665689,9.775171065493646,102.63929618768329
48.87585532746823,34.21309872922776,24.437927663734115,34.21309872922776,63.53861192570871,14.662756598240469,9.775171065493646
4.887585532746823,200.39100684261973,87.97653958944282,131.96480938416423,4.887585532746823,190.6158357771261,4.887585532746823
19.550342130987293,29.325513196480937,78.20136852394917,34.21309872922776,9.775171065493646,68.42619745845552,58.651026392961874
210.16617790811338,4.887585532746823,4.887585532746823,4.887585532746823,347.0185728250244,4.887585532746823,185.7282502443793
19.550342130987293,4.887585532746823,83.08895405669598,4.887585532746823,263.92961876832845,9.775171065493646,34.21309872922776
29.325513196480937,29.325513196480937,122.18963831867057,24.437927663734115,24.437927663734115,9.775171065493646,9.775171065493646
48.87585532746823,210.16617790811338,14.662756598240469,112.41446725317694,4.887585532746823,87.97653958944282,4.887585532746823
9.775171065493646,97.75171065493646,0.0,34.21309872922776,4.887585532746823,9.775171065493646,107.52688172043011
146.6275659824047,9.775171065493646,43.98826979472141,9.775171065493646,175.95307917888564,9.775171065493646,122.18963831867057
29.325513196480937,9.775171065493646,161.29032258064515,4.887585532746823,127.07722385141741,4.887585532746823,19.550342130987293
9.775171065493646,39.100684261974585,39.100684261974585,24.437927663734115,9.775171065493646,92.86412512218965,9.775171065493646
73.31378299120234,141.73998044965788,4.887585532746823,117.30205278592375,9.775171065493646,117.30205278592375,0.0
298.14271749755625,39.100684261974585,0.0,34.21309872922776,4.887585532746823,68.42619745845552,141.73998044965788
102.63929618768329,9.775171065493646,0.0,4.887585532746823,136.85239491691104,9.775171065493646,92.86412512218965
9.775171065493646,0.0,102.63929618768329,0.0,122.18963831867057,4.887585532746823,9.775171065493646
4.887585532746823,4.887585532746823,190.6158357771261,34.21309872922776,19.550342130987293,58.651026392961874,4.887585532746823
4.887585532746823,136.85239491691104,19.550342130987293,127.07722385141741,0.0,58.651026392961874,29.325513196480937
483.8709677419355,259.04203323558164,34.21309872922776,43.98826979472141,9.775171065493646,0.0,205.27859237536657
107.52688172043011,34.21309872922776,376.3440860215054,4.887585532746823,195.50342130987292,58.651026392961874,63.53861192570871
4.887585532746823,9.775171065493646,58.651026392961874,4.887585532746823,141.73998044965788,146.6275659824047,87.97653958944282
0.0,78.20136852394917,9.775171065493646,39.100684261974585,9.775171065493646,43.98826979472141,9.775171065493646
635.386119257087,229.7165200391007,4.887585532746823,112.41446725317694,0.0,4.887585532746823,151.51515151515153
190.6158357771261,19.550342130987293,0.0,34.21309872922776,146.6275659824047,58.651026392961874,146.6275659824047
19.550342130987293,9.775171065493646,263.92961876832845,4.887585532746823,87.97653958944282,4.887585532746823,9.775171065493646
4.887585532746823,9.775171065493646,347.0185728250244,4.887585532746823,0.0,92.86412512218965,9.775171065493646
14.662756598240469,146.6275659824047,24.437927663734115,19.550342130987293,19.550342130987293,24.437927663734115,9.775171065493646
552.297165200391,117.30205278592375,9.775171065493646,107.52688172043011,127.07722385141741,4.887585532746823,224.82893450635387
229.7165200391007,14.662756598240469,29.325513196480937,39.100684261974585,171.0654936461388,4.887585532746823,83.08895405669598
24.437927663734115,0.0,175.95307917888564,4.887585532746823,14.662756598240469,136.85239491691104,9.775171065493646
14.662756598240469,9.775171065493646,53.763440860215056,4.887585532746823,4.887585532746823,239.49169110459434,4.887585532746823
0.0,161.29032258064515,0.0,53.763440860215056,0.0,9.775171065493646,136.85239491691104
53.763440860215056,122.18963831867057,4.887585532746823,141.73998044965788,39.100684261974585,4.887585532746823,200.39100684261973
312.8054740957967,9.775171065493646,34.21309872922776,4.887585532746823,239.49169110459434,14.662756598240469,14.662756598240469
102.63929618768329,9.775171065493646,102.63929618768329,4.887585532746823,63.53861192570871,244.37927663734115,9.775171065493646
43.98826979472141,4.887585532746823,58.651026392961874,4.887585532746823,9.775171065493646,53.763440860215056,4.887585532746823
9.775171065493646,268.81720430107526,9.775171065493646,73.31378299120234,4.887585532746823,14.662756598240469,185.7282502443793
102.63929618768329,83.08895405669598,9.775171065493646,83.08895405669598,107.52688172043011,9.775171065493646,107.52688172043011
166.17790811339196,4.887585532746823,14.662756598240469,4.887585532746823,180.84066471163246,0.0,14.662756598240469
9.775171065493646,9.775171065493646,122.18963831867057,0.0,19.550342130987293,146.6275659824047,0.0
9.775171065493646,195.50342130987292,29.325513196480937,4.887585532746823,0.0,53.763440860215056,48.87585532746823
117.30205278592375,161.29032258064515,0.0,107.52688172043011,0.0,9.775171065493646,185.7282502443793
34.21309872922776,19.550342130987293,4.887585532746823,97.75171065493646,107.52688172043011,4.887585532746823,43.98826979472141
234.6041055718475,0.0,53.763440860215056,0.0,19.550342130987293,0.0,9.775171065493646
185.7282502443793,48.87585532746823,24.437927663734115,4.887585532746823,4.887585532746823,122.18963831867057,4.887585532746823
376.3440860215054,288.36754643206257,381.2316715542522,14.662756598240469,0.0,102.63929618768329,127.07722385141741
53.763440860215056,53.763440860215056,117.30205278592375,122.18963831867057,131.96480938416423,4.887585532746823,210.16617790811338
4.887585532746823,4.887585532746823,34.21309872922776,53.763440860215056,161.29032258064515,4.887585532746823,19.550342130987293
190.6158357771261,0.0,43.98826979472141,9.775171065493646,9.775171065493646,92.86412512218965,9.775171065493646
34.21309872922776,78.20136852394917,19.550342130987293,0.0,4.887585532746823,351.9061583577713,9.775171065493646
4.887585532746823,175.95307917888564,14.662756598240469,68.42619745845552,4.887585532746823,24.437927663734115,229.7165200391007
0.0,19.550342130987293,4.887585532746823,107.52688172043011,19.550342130987293,4.887585532746823,102.63929618768329
4.887585532746823,0.0,4.887585532746823,19.550342130987293,171.0654936461388,4.887585532746823,9.775171065493646
151.51515151515153,14.662756598240469,190.6158357771261,4.887585532746823,48.87585532746823,9.775171065493646,4.887585532746823
9.775171065493646,215.05376344086022,122.18963831867057,9.775171065493646,4.887585532746823,141.73998044965788,58.651026392961874
430.10752688172045,87.97653958944282,9.775171065493646,131.96480938416423,4.887585532746823,136.85239491691104,190.6158357771261
117.30205278592375,4.887585532746823,146.6275659824047,92.86412512218965,112.41446725317694,14.662756598240469,215.05376344086022
4.887585532746823,9.775171065493646,278.5923753665689,9.775171065493646,273.7047898338221,24.437927663734115,14.662756598240469
87.97653958944282,219.94134897360706,43.98826979472141,0.0,87.97653958944282,136.85239491691104,9.775171065493646
625.6109481915934,190.6158357771261,9.775171065493646,53.763440860215056,43.98826979472141,39.100684261974585,122.18963831867057
48.87585532746823,19.550342130987293,0.0,92.86412512218965,122.18963831867057,4.887585532746823,102.63929618768329
9.775171065493646,9.775171065493646,146.6275659824047,9.775171065493646,122.18963831867057,0.0,9.775171065493646
29.325513196480937,4.887585532746823,107.52688172043011,4.887585532746823,9.775171065493646,29.325513196480937,4.887585532746823
439.8826979472141,117.30205278592375,19.550342130987293,0.0,0.0,156.40273704789834,63.53861192570871
92.86412512218965,112.41446725317694,24.437927663734115,78.20136852394917,0.0,39.100684261974585,180.84066471163246
4.887585532746823,14.662756598240469,0.0,117.30205278592375,161.29032258064515,4.887585532746823,48.87585532746823
0.0,0.0,4.887585532746823,9.775171065493646,78.20136852394917,4.887585532746823,0.0
254.15444770283483,9.775171065493646,298.14271749755625,0.0,63.53861192570871,24.437927663734115,4.887585532746823
78.20136852394917,146.6275659824047,34.21309872922776,0.0,381.2316715542522,200.39100684261973,146.6275659824047
102.63929618768329,117.30205278592375,0.0,97.75171065493646,97.75171065493646,63.53861192570871,112.41446725317694
14.662756598240469,14.662756598240469,122.18963831867057,87.97653958944282,107.52688172043011,24.437927663734115,14.662756598240469
215.05376344086022,9.775171065493646,327.4682306940371,4.887585532746823,63.53861192570871,0.0,9.775171065493646
312.8054740957967,156.40273704789834,161.29032258064515,9.775171065493646,14.662756598240469,39.100684261974585,24.437927663734115
68.42619745845552,205.27859237536657,24.437927663734115,19.550342130987293,263.92961876832845,97.75171065493646,195.50342130987292
73.31378299120234,43.98826979472141,4.887585532746823,117.30205278592375,19.550342130987293,48.87585532746823,112.41446725317694
43.98826979472141,9.775171065493646,200.39100684261973,48.87585532746823,4.887585532746823,4.887585532746823,9.775171065493646
14.662756598240469,4.887585532746823,371.4565004887586,9.775171065493646,703.8123167155426,9.775171065493646,0.0
210.16617790811338,156.40273704789834,48.87585532746823,0.0,801.5640273704789,122.18963831867057,83.08895405669598
97.75171065493646,78.20136852394917,0.0,58.651026392961874,48.87585532746823,117.30205278592375,136.85239491691104
9.775171065493646,4.887585532746823,0.0,102.63929618768329,68.42619745845552,4.887585532746823,19.550342130987293
73.31378299120234,4.887585532746823,586.5102639296188,9.775171065493646,9.775171065493646,4.887585532746823,4.887585532746823
420.33235581622677,92.86412512218965,200.39100684261973,4.887585532746823,351.9061583577713,4.887585532746823,4.887585532746823
24.437927663734115,180.84066471163246,43.98826979472141,4.887585532746823,224.82893450635387,87.97653958944282,161.29032258064515
4.887585532746823,19.550342130987293,9.775171065493646,78.20136852394917,29.325513196480937,29.325513196480937,161.29032258064515
146.6275659824047,4.887585532746823,107.52688172043011,87.97653958944282,366.5689149560117,4.887585532746823,14.662756598240469
376.3440860215054,4.887585532746823,444.77028347996094,9.775171065493646,53.763440860215056,4.887585532746823,9.775171065493646
146.6275659824047,9.775171065493646,1006.8426197458455,4.887585532746823,195.50342130987292,83.08895405669598,14.662756598240469
29.325513196480937,263.92961876832845,48.87585532746823,19.550342130987293,68.42619745845552,347.0185728250244,190.6158357771261
4.887585532746823,39.100684261974585,239.49169110459434,107.52688172043011,4.887585532746823,43.98826979472141,73.31378299120234
278.5923753665689,9.775171065493646,19.550342130987293,43.98826979472141,4.887585532746823,9.775171065493646,9.775171065493646
376.3440860215054,9.775171065493646,9.775171065493646,9.775171065493646,327.4682306940371,0.0,4.887585532746823
29.325513196480937,34.21309872922776,4.887585532746823,4.887585532746823,474.0957966764418,19.550342130987293,92.86412512218965
9.775171065493646,151.51515151515153,303.03030303030306,43.98826979472141,278.5923753665689,151.51515151515153,156.40273704789834
14.662756598240469,112.41446725317694,244.37927663734115,122.18963831867057,24.437927663734115,48.87585532746823,24.437927663734115
53.763440860215056,14.662756598240469,205.27859237536657,43.98826979472141,288.36754643206257,4.887585532746823,4.887585532746823
210.16617790811338,0.0,356.7937438905181,4.887585532746823,97.75171065493646,0.0,4.887585532746823
19.550342130987293,97.75171065493646,24.437927663734115,9.775171065493646,322.5806451612903,156.40273704789834,156.40273704789834
4.887585532746823,146.6275659824047,278.5923753665689,19.550342130987293,19.550342130987293,43.98826979472141,161.29032258064515
131.96480938416423,24.437927663734115,777.1260997067449,141.73998044965788,107.52688172043011,0.0,14.662756598240469
34.21309872922776,4.887585532746823,107.52688172043011,68.42619745845552,78.20136852394917,4.887585532746823,9.775171065493646
131.96480938416423,4.887585532746823,9.775171065493646,4.887585532746823,175.95307917888564,9.775171065493646,19.550342130987293
4.887585532746823,146.6275659824047,518.0840664711633,4.887585532746823,39.100684261974585,39.100684261974585,171.0654936461388
0.0,102.63929618768329,542.5219941348973,48.87585532746823,29.325513196480937,78.20136852394917,87.97653958944282
288.36754643206257,9.775171065493646,508.30889540566966,122.18963831867057,136.85239491691104,73.31378299120234,4.887585532746823
459.4330400782014,0.0,141.73998044965788,14.662756598240469,29.325513196480937,9.775171065493646,0.0
39.100684261974585,14.662756598240469,454.54545454545456,9.775171065493646,39.100684261974585,4.887585532746823,92.86412512218965
9.775171065493646,337.2434017595308,107.52688172043011,4.887585532746823,73.31378299120234,4.887585532746823,161.29032258064515
4.887585532746823,136.85239491691104,9.775171065493646,78.20136852394917,9.775171065493646,34.21309872922776,39.100684261974585
190.6158357771261,9.775171065493646,19.550342130987293,83.08895405669598,19.550342130987293,161.29032258064515,4.887585532746823
141.73998044965788,9.775171065493646,327.4682306940371,9.775171065493646,136.85239491691104,29.325513196480937,0.0
9.775171065493646,83.08895405669598,229.7165200391007,0.0,234.6041055718475,4.887585532746823,141.73998044965788
24.437927663734115,92.86412512218965,53.763440860215056,4.887585532746823,39.100684261974585,200.39100684261973,146.6275659824047
14.662756598240469,9.775171065493646,9.775171065493646,156.40273704789834,9.775171065493646,19.550342130987293,19.550342130987293
391.00684261974584,9.775171065493646,190.6158357771261,78.20136852394917,244.37927663734115,9.775171065493646,9.775171065493646
185.7282502443793,4.887585532746823,161.29032258064515,9.775171065493646,249.26686217008796,0.0,24.437927663734115
19.550342130987293,229.7165200391007,9.775171065493646,0.0,24.437927663734115,4.887585532746823,190.6158357771261
48.87585532746823,63.53861192570871,4.887585532746823,43.98826979472141,0.0,73.31378299120234,87.97653958944282
151.51515151515153,14.662756598240469,425.2199413489736,102.63929618768329,430.10752688172045,58.651026392961874,4.887585532746823
117.30205278592375,0.0,97.75171065493646,29.325513196480937,239.49169110459434,0.0,4.887585532746823
78.20136852394917,24.437927663734115,14.662756598240469,0.0,43.98826979472141,9.775171065493646,122.18963831867057
19.550342130987293,156.40273704789834,645.1612903225806,9.775171065493646,63.53861192570871,180.84066471163246,122.18963831867057
19.550342130987293,190.6158357771261,127.07722385141741,83.08895405669598,43.98826979472141,141.73998044965788,14.662756598240469
454.54545454545456,14.662756598240469,43.98826979472141,122.18963831867057,92.86412512218965,29.325513196480937,0.0
53.763440860215056,9.775171065493646,117.30205278592375,9.775171065493646,112.41446725317694,4.887585532746823,4.887585532746823
14.662756598240469,92.86412512218965,92.86412512218965,0.0,29.325513196480937,0.0,141.73998044965788
9.775171065493646,327.4682306940371,4.887585532746823,0.0,63.53861192570871,68.42619745845552,136.85239491691104
239.49169110459434,48.87585532746823,4.887585532746823,83.08895405669598,73.31378299120234,161.29032258064515,9.775171065493646
39.100684261974585,4.887585532746823,19.550342130987293,92.86412512218965,278.5923753665689,14.662756598240469,4.887585532746823
48.87585532746823,39.100684261974585,288.36754643206257,14.662756598240469,112.41446725317694,14.662756598240469,4.887585532746823
9.775171065493646,127.07722385141741,19.550342130987293,4.887585532746823,78.20136852394917,92.86412512218965,180.84066471163246
200.39100684261973,48.87585532746823,4.887585532746823,29.325513196480937,58.651026392961874,63.53861192570871,73.31378299120234
83.08895405669598,4.887585532746823,102.63929618768329,122.18963831867057,107.52688172043011,53.763440860215056,4.887585532746823
9.775171065493646,4.887585532746823,117.30205278592375,43.98826979472141,102.63929618768329,14.662756598240469,4.887585532746823
97.75171065493646,166.17790811339196,112.41446725317694,14.662756598240469,4.887585532746823,9.775171065493646,92.86412512218965
48.87585532746823,107.52688172043011,24.437927663734115,0.0,4.887585532746823,24.437927663734115,171.0654936461388
63.53861192570871,14.662756598240469,4.887585532746823,24.437927663734115,361.6813294232649,112.41446725317694,19.550342130987293
185.7282502443793,4.887585532746823,4.887585532746823,146.6275659824047,112.41446725317694,34.21309872922776,4.887585532746823
9.775171065493646,4.887585532746823,24.437927663734115,58.651026392961874,4.887585532746823,4.887585532746823,0.0
4.887585532746823,166.17790811339196,708.6999022482894,9.775171065493646,24.437927663734115,4.887585532746823,117.30205278592375
58.651026392961874,195.50342130987292,34.21309872922776,14.662756598240469,87.97653958944282,92.86412512218965,131.96480938416423
175.95307917888564,29.325513196480937,195.50342130987292,63.53861192570871,317.6930596285435,244.37927663734115,9.775171065493646
9.775171065493646,4.887585532746823,1275.659824046921,112.41446725317694,53.763440860215056,29.325513196480937,0.0
4.887585532746823,131.96480938416423,48.87585532746823,24.437927663734115,39.100684261974585,9.775171065493646,14.662756598240469
4.887585532746823,122.18963831867057,4.887585532746823,9.775171065493646,39.100684261974585,4.887585532746823,180.84066471163246
239.49169110459434,29.325513196480937,63.53861192570871,4.887585532746823,566.9599217986315,131.96480938416423,78.20136852394917
97.75171065493646,0.0,1099.7067448680352,83.08895405669598,73.31378299120234,136.85239491691104,4.887585532746823
58.651026392961874,0.0,63.53861192570871,87.97653958944282,29.325513196480937,14.662756598240469,9.775171065493646
263.92961876832845,102.63929618768329,39.100684261974585,14.662756598240469,205.27859237536657,4.887585532746823,112.41446725317694
63.53861192570871,215.05376344086022,53.763440860215056,0.0,122.18963831867057,87.97653958944282,185.7282502443793
68.42619745845552,63.53861192570871,244.37927663734115,0.0,102.63929618768329,34.21309872922776,19.550342130987293
102.63929618768329,4.887585532746823,391.00684261974584,112.41446725317694,92.86412512218965,4.887585532746823,4.887585532746823
24.437927663734115,122.18963831867057,48.87585532746823,63.53861192570871,200.39100684261973,0.0,4.887585532746823
122.18963831867057,117.30205278592375,78.20136852394917,14.662756598240469,180.84066471163246,9.775171065493646,131.96480938416423
244.37927663734115,4.887585532746823,190.6158357771261,9.775171065493646,161.29032258064515,9.775171065493646,131.96480938416423
97.75171065493646,4.887585532746823,298.14271749755625,63.53861192570871,14.662756598240469,29.325513196480937,4.887585532746823
34.21309872922776,4.887585532746823,278.5923753665689,97.75171065493646,39.100684261974585,34.21309872922776,0.0
78.20136852394917,19.550342130987293,83.08895405669598,14.662756598240469,141.73998044965788,4.887585532746823,19.550342130987293
283.47996089931576,469.208211143695,14.662756598240469,4.887585532746823,205.27859237536657,0.0,219.94134897360706
24.437927663734115,303.03030303030306,268.81720430107526,4.887585532746823,24.437927663734115,24.437927663734115,48.87585532746823
24.437927663734115,19.550342130987293,694.0371456500488,107.52688172043011,136.85239491691104,151.51515151515153,4.887585532746823
9.775171065493646,190.6158357771261,97.75171065493646,102.63929618768329,9.775171065493646,34.21309872922776,9.775171065493646
136.85239491691104,312.8054740957967,298.14271749755625,9.775171065493646,171.0654936461388,19.550342130987293,68.42619745845552
127.07722385141741,24.437927663734115,234.6041055718475,4.887585532746823,78.20136852394917,4.887585532746823,161.29032258064515
68.42619745845552,9.775171065493646,19.550342130987293,9.775171065493646,83.08895405669598,9.775171065493646,24.437927663734115
0.0,0.0,107.52688172043011,117.30205278592375,14.662756598240469,24.437927663734115,4.887585532746823
175.95307917888564,14.662756598240469,127.07722385141741,92.86412512218965,263.92961876832845,92.86412512218965,4.887585532746823
263.92961876832845,83.08895405669598,415.44477028347995,9.775171065493646,229.7165200391007,63.53861192570871,151.51515151515153
48.87585532746823,4.887585532746823,83.08895405669598,0.0,122.18963831867057,9.775171065493646,146.6275659824047
73.31378299120234,391.00684261974584,39.100684261974585,34.21309872922776,146.6275659824047,9.775171065493646,19.550342130987293
24.437927663734115,278.5923753665689,410.55718475073314,102.63929618768329,273.7047898338221,58.651026392961874,9.775171065493646
224.82893450635387,78.20136852394917,78.20136852394917,48.87585532746823,136.85239491691104,14.662756598240469,19.550342130987293
39.100684261974585,102.63929618768329,39.100684261974585,4.887585532746823,146.6275659824047,68.42619745845552,210.16617790811338
254.15444770283483,4.887585532746823,83.08895405669598,14.662756598240469,9.775171065493646,9.775171065493646,83.08895405669598
19.550342130987293,39.100684261974585,122.18963831867057,92.86412512218965,131.96480938416423,4.887585532746823,9.775171065493646
156.40273704789834,127.07722385141741,508.30889540566966,122.18963831867057,420.33235581622677,19.550342130987293,4.887585532746823
97.75171065493646,356.7937438905181,24.437927663734115,9.775171065493646,58.651026392961874,24.437927663734115,68.42619745845552
9.775171065493646,14.662756598240469,112.41446725317694,4.887585532746823,68.42619745845552,4.887585532746823,185.7282502443793
9.775171065493646,14.662756598240469,97.75171065493646,9.775171065493646,102.63929618768329,9.775171065493646,29.325513196480937
361.6813294232649,4.887585532746823,596.2854349951125,131.96480938416423,131.96480938416423,24.437927663734115,4.887585532746823
122.18963831867057,87.97653958944282,14.662756598240469,107.52688172043011,92.86412512218965,117.30205278592375,9.775171065493646
102.63929618768329,562.0723362658846,29.325513196480937,4.887585532746823,161.29032258064515,34.21309872922776,151.51515151515153
19.550342130987293,19.550342130987293,425.2199413489736,0.0,175.95307917888564,4.887585532746823,136.85239491691104
24.437927663734115,0.0,322.5806451612903,9.775171065493646,156.40273704789834,4.887585532746823,19.550342130987293
58.651026392961874,591.3978494623656,29.325513196480937,102.63929618768329,63.53861192570871,34.21309872922776,9.775171065493646
234.6041055718475,933.5288367546432,351.9061583577713,34.21309872922776,92.86412512218965,83.08895405669598,29.325513196480937
146.6275659824047,34.21309872922776,171.0654936461388,0.0,87.97653958944282,73.31378299120234,215.05376344086022
9.775171065493646,14.662756598240469,268.81720430107526,9.775171065493646,102.63929618768329,14.662756598240469,48.87585532746823
19.550342130987293,102.63929618768329,102.63929618768329,43.98826979472141,97.75171065493646,4.887585532746823,4.887585532746823
361.6813294232649,122.18963831867057,860.2150537634409,112.41446725317694,14.662756598240469,78.20136852394917,0.0
127.07722385141741,34.21309872922776,131.96480938416423,34.21309872922776,78.20136852394917,283.47996089931576,73.31378299120234
19.550342130987293,4.887585532746823,29.325513196480937,14.662756598240469,322.5806451612903,24.437927663734115,180.84066471163246
4.887585532746823,112.41446725317694,0.0,4.887585532746823,122.18963831867057,4.887585532746823,29.325513196480937
4.887585532746823,508.30889540566966,58.651026392961874,29.325513196480937,92.86412512218965,0.0,4.887585532746823
224.82893450635387,73.31378299120234,723.3626588465298,112.41446725317694,34.21309872922776,14.662756598240469,4.887585532746823
87.97653958944282,19.550342130987293,606.0606060606061,43.98826979472141,263.92961876832845,78.20136852394917,107.52688172043011
4.887585532746823,205.27859237536657,58.651026392961874,14.662756598240469,58.651026392961874,166.17790811339196,151.51515151515153
43.98826979472141,19.550342130987293,34.21309872922776,0.0,9.775171065493646,14.662756598240469,9.775171065493646
327.4682306940371,865.1026392961877,24.437927663734115,39.100684261974585,24.437927663734115,68.42619745845552,0.0
102.63929618768329,190.6158357771261,224.82893450635387,117.30205278592375,254.15444770283483,39.100684261974585,4.887585532746823
9.775171065493646,14.662756598240469,288.36754643206257,14.662756598240469,107.52688172043011,14.662756598240469,195.50342130987292
0.0,478.9833822091887,19.550342130987293,9.775171065493646,122.18963831867057,4.887585532746823,78.20136852394917
53.763440860215056,283.47996089931576,48.87585532746823,9.775171065493646,14.662756598240469,0.0,4.887585532746823
53.763440860215056,97.75171065493646,190.6158357771261,58.651026392961874,0.0,4.887585532746823,9.775171065493646
14.662756598240469,830.8895405669599,161.29032258064515,171.0654936461388,195.50342130987292,161.29032258064515,63.53861192570871
200.39100684261973,53.763440860215056,127.07722385141741,29.325513196480937,166.17790811339196,112.41446725317694,200.39100684261973
43.98826979472141,591.3978494623656,97.75171065493646,9.775171065493646,14.662756598240469,14.662756598240469,24.437927663734115
102.63929618768329,24.437927663734115,102.63929618768329,4.887585532746823,9.775171065493646,9.775171065493646,9.775171065493646
9.775171065493646,4.887585532746823,14.662756598240469,9.775171065493646,9.775171065493646,39.100684261974585,4.887585532746823
210.16617790811338,547.4095796676442,122.18963831867057,122.18963831867057,259.04203323558164,107.52688172043011,141.73998044965788
14.662756598240469,1373.4115347018571,156.40273704789834,131.96480938416423,29.325513196480937,73.31378299120234,122.18963831867057
146.6275659824047,92.86412512218965,39.100684261974585,14.662756598240469,24.437927663734115,14.662756598240469,14.662756598240469
166.17790811339196,4.887585532746823,434.99511241446726,9.775171065493646,9.775171065493646,53.763440860215056,0.0
19.550342130987293,747.800586510264,63.53861192570871,4.887585532746823,156.40273704789834,151.51515151515153,14.662756598240469
9.775171065493646,73.31378299120234,4.887585532746823,195.50342130987292,127.07722385141741,24.437927663734115,205.27859237536657
83.08895405669598,1270.772238514174,205.27859237536657,156.40273704789834,43.98826979472141,4.887585532746823,63.53861192570871
180.84066471163246,58.651026392961874,19.550342130987293,9.775171065493646,4.887585532746823,0.0,0.0
200.39100684261973,136.85239491691104,34.21309872922776,303.03030303030306,9.775171065493646,83.08895405669598,9.775171065493646
48.87585532746823,557.1847507331378,185.7282502443793,156.40273704789834,215.05376344086022,752.6881720430108,78.20136852394917
9.775171065493646,127.07722385141741,14.662756598240469,19.550342130987293,151.51515151515153,34.21309872922776,166.17790811339196
263.92961876832845,342.1309872922776,4.887585532746823,9.775171065493646,24.437927663734115,4.887585532746823,24.437927663734115
141.73998044965788,63.53861192570871,171.0654936461388,9.775171065493646,34.21309872922776,4.887585532746823,4.887585532746823
122.18963831867057,146.6275659824047,752.6881720430108,78.20136852394917,43.98826979472141,83.08895405669598,0.0
9.775171065493646,39.100684261974585,34.21309872922776,200.39100684261973,127.07722385141741,127.07722385141741,112.41446725317694
0.0,4.887585532746823,9.775171065493646,24.437927663734115,78.20136852394917,117.30205278592375,151.51515151515153
58.651026392961874,405.6695992179863,430.10752688172045,14.662756598240469,4.887585532746823,29.325513196480937,14.662756598240469
259.04203323558164,14.662756598240469,171.0654936461388,4.887585532746823,4.887585532746823,259.04203323558164,4.887585532746823
14.662756598240469,2033.2355816226786,19.550342130987293,4.887585532746823,43.98826979472141,249.26686217008796,4.887585532746823
4.887585532746823,488.7585532746823,39.100684261974585,14.662756598240469,263.92961876832845,14.662756598240469,175.95307917888564
4.887585532746823,762.4633431085044,107.52688172043011,127.07722385141741,58.651026392961874,4.887585532746823,78.20136852394917
122.18963831867057,29.325513196480937,806.4516129032257,171.0654936461388,29.325513196480937,0.0,9.775171065493646
146.6275659824047,234.6041055718475,53.763440860215056,87.97653958944282,24.437927663734115,337.2434017595308,4.887585532746823
14.662756598240469,1065.4936461388074,14.662756598240469,29.325513196480937,19.550342130987293,78.20136852394917,53.763440860215056
4.887585532746823,381.2316715542522,327.4682306940371,9.775171065493646,200.39100684261973,73.31378299120234,166.17790811339196
234.6041055718475,1133.919843597263,171.0654936461388,9.775171065493646,127.07722385141741,14.662756598240469,24.437927663734115
136.85239491691104,166.17790811339196,317.6930596285435,34.21309872922776,9.775171065493646,498.5337243401759,4.887585532746823
14.662756598240469,24.437927663734115,19.550342130987293,9.775171065493646,151.51515151515153,503.42130987292273,9.775171065493646
9.775171065493646,1363.6363636363635,4.887585532746823,34.21309872922776,102.63929618768329,48.87585532746823,112.41446725317694
19.550342130987293,112.41446725317694,78.20136852394917,175.95307917888564,48.87585532746823,180.84066471163246,141.73998044965788
229.7165200391007,2082.1114369501465,439.8826979472141,459.4330400782014,14.662756598240469,254.15444770283483,14.662756598240469
117.30205278592375,175.95307917888564,34.21309872922776,68.42619745845552,14.662756598240469,772.238514173998,9.775171065493646
4.887585532746823,200.39100684261973,29.325513196480937,117.30205278592375,68.42619745845552,29.325513196480937,14.662756598240469
0.0,19.550342130987293,19.550342130987293,518.0840664711633,78.20136852394917,136.85239491691104,185.7282502443793
39.100684261974585,474.0957966764418,635.386119257087,34.21309872922776,43.98826979472141,434.99511241446726,117.30205278592375
317.6930596285435,454.54545454545456,73.31378299120234,9.775171065493646,29.325513196480937,615.8357771260997,9.775171065493646
58.651026392961874,694.0371456500488,327.4682306940371,0.0,4.887585532746823,136.85239491691104,0.0
9.775171065493646,977.5171065493646,19.550342130987293,263.92961876832845,78.20136852394917,244.37927663734115,63.53861192570871
234.6041055718475,53.763440860215056,464.3206256109482,777.1260997067449,58.651026392961874,361.6813294232649,175.95307917888564
78.20136852394917,762.4633431085044,488.7585532746823,29.325513196480937,14.662756598240469,713.5874877810362,24.437927663734115
263.92961876832845,307.91788856304987,34.21309872922776,102.63929618768329,4.887585532746823,43.98826979472141,9.775171065493646
19.550342130987293,24.437927663734115,68.42619745845552,439.8826979472141,229.7165200391007,1050.830889540567,4.887585532746823
4.887585532746823,488.7585532746823,200.39100684261973,136.85239491691104,122.18963831867057,185.7282502443793,122.18963831867057
131.96480938416423,879.7653958944283,34.21309872922776,9.775171065493646,161.29032258064515,1867.0576735092864,151.51515151515153
366.5689149560117,34.21309872922776,19.550342130987293,0.0,29.325513196480937,156.40273704789834,14.662756598240469
29.325513196480937,4.887585532746823,68.42619745845552,767.3509286412512,24.437927663734115,586.5102639296188,4.887585532746823
4.887585532746823,562.0723362658846,190.6158357771261,327.4682306940371,175.95307917888564,1495.601173020528,4.887585532746823
24.437927663734115,195.50342130987292,200.39100684261973,175.95307917888564,171.0654936461388,107.52688172043011,171.0654936461388
19.550342130987293,640.2737047898338,136.85239491691104,190.6158357771261,34.21309872922776,219.94134897360706,102.63929618768329
156.40273704789834,78.20136852394917,4.887585532746823,29.325513196480937,14.662756598240469,151.51515151515153,9.775171065493646
29.325513196480937,488.7585532746823,151.51515151515153,127.07722385141741,9.775171065493646,782.0136852394917,9.775171065493646
9.775171065493646,557.1847507331378,444.77028347996094,122.18963831867057,317.6930596285435,234.6041055718475,63.53861192570871
4.887585532746823,68.42619745845552,34.21309872922776,117.30205278592375,78.20136852394917,239.49169110459434,205.27859237536657
229.7165200391007,747.800586510264,53.763440860215056,175.95307917888564,9.775171065493646,899.3157380254155,24.437927663734115
259.04203323558164,97.75171065493646,73.31378299120234,1275.659824046921,9.775171065493646,200.39100684261973,4.887585532746823
29.325513196480937,244.37927663734115,244.37927663734115,43.98826979472141,156.40273704789834,679.3743890518084,0.0
9.775171065493646,180.84066471163246,180.84066471163246,9.775171065493646,234.6041055718475,2126.099706744868,131.96480938416423
0.0,542.5219941348973,244.37927663734115,190.6158357771261,19.550342130987293,283.47996089931576,161.29032258064515
356.7937438905181,728.2502443792766,34.21309872922776,1480.9384164222874,19.550342130987293,259.04203323558164,19.550342130987293
136.85239491691104,102.63929618768329,43.98826979472141,63.53861192570871,68.42619745845552,24.437927663734115,0.0
29.325513196480937,53.763440860215056,415.44477028347995,14.662756598240469,151.51515151515153,2013.685239491691,9.775171065493646
9.775171065493646,386.119257086999,483.8709677419355,796.6764418377321,131.96480938416423,166.17790811339196,166.17790811339196
0.0,78.20136852394917,53.763440860215056,131.96480938416423,19.550342130987293,420.33235581622677,97.75171065493646
229.7165200391007,288.36754643206257,117.30205278592375,327.4682306940371,9.775171065493646,215.05376344086022,4.887585532746823
127.07722385141741,53.763440860215056,469.208211143695,19.550342130987293,48.87585532746823,562.0723362658846,4.887585532746823
9.775171065493646,151.51515151515153,166.17790811339196,596.2854349951125,195.50342130987292,278.5923753665689,73.31378299120234
9.775171065493646,3866.080156402737,9.775171065493646,195.50342130987292,14.662756598240469,43.98826979472141,175.95307917888564
117.30205278592375,488.7585532746823,19.550342130987293,53.763440860215056,34.21309872922776,713.5874877810362,29.325513196480937
29.325513196480937,117.30205278592375,127.07722385141741,1295.2101661779081,9.775171065493646,107.52688172043011,9.775171065493646
58.651026392961874,566.9599217986315,102.63929618768329,58.651026392961874,117.30205278592375,1353.86119257087,0.0
24.437927663734115,39.100684261974585,386.119257086999,268.81720430107526,288.36754643206257,1324.535679374389,97.75171065493646
19.550342130987293,1407.6246334310852,19.550342130987293,356.7937438905181,53.763440860215056,522.9716520039101,151.51515151515153
83.08895405669598,68.42619745845552,131.96480938416423,268.81720430107526,9.775171065493646,24.437927663734115,9.775171065493646
24.437927663734115,2746.8230694037143,254.15444770283483,97.75171065493646,107.52688172043011,278.5923753665689,4.887585532746823
332.35581622678393,83.08895405669598,141.73998044965788,224.82893450635387,97.75171065493646,518.0840664711633,9.775171065493646
24.437927663734115,884.6529814271751,9.775171065493646,772.238514173998,53.763440860215056,14.662756598240469,161.29032258064515
92.86412512218965,73.31378299120234,332.35581622678393,483.8709677419355,4.887585532746823,268.81720430107526,107.52688172043011
87.97653958944282,24.437927663734115,552.297165200391,337.2434017595308,48.87585532746823,928.6412512218964,4.887585532746823
53.763440860215056,58.651026392961874,107.52688172043011,83.08895405669598,254.15444770283483,78.20136852394917,9.775171065493646
4.887585532746823,0.0,131.96480938416423,566.9599217986315,97.75171065493646,1358.7487781036168,68.42619745845552
9.775171065493646,3343.108504398827,205.27859237536657,997.0674486803518,9.775171065493646,171.0654936461388,175.95307917888564
244.37927663734115,268.81720430107526,244.37927663734115,239.49169110459434,0.0,474.0957966764418,24.437927663734115
180.84066471163246,97.75171065493646,263.92961876832845,415.44477028347995,332.35581622678393,39.100684261974585,4.887585532746823
19.550342130987293,200.39100684261973,48.87585532746823,738.0254154447704,107.52688172043011,337.2434017595308,4.887585532746823
9.775171065493646,312.8054740957967,9.775171065493646,268.81720430107526,48.87585532746823,1388.0742913000977,97.75171065493646
175.95307917888564,141.73998044965788,288.36754643206257,430.10752688172045,14.662756598240469,78.20136852394917,146.6275659824047
337.2434017595308,107.52688172043011,117.30205278592375,689.149560117302,205.27859237536657,874.8778103616814,24.437927663734115
43.98826979472141,24.437927663734115,14.662756598240469,728.2502443792766,249.26686217008796,650.0488758553274,9.775171065493646
9.775171065493646,664.7116324535679,19.550342130987293,195.50342130987292,9.775171065493646,161.29032258064515,9.775171065493646
39.100684261974585,210.16617790811338,327.4682306940371,469.208211143695,9.775171065493646,1353.86119257087,180.84066471163246
205.27859237536657,801.5640273704789,478.9833822091887,659.824046920821,83.08895405669598,58.651026392961874,122.18963831867057
210.16617790811338,259.04203323558164,298.14271749755625,547.4095796676442,215.05376344086022,620.7233626588466,4.887585532746823
9.775171065493646,1133.919843597263,29.325513196480937,288.36754643206257,48.87585532746823,698.9247311827957,9.775171065493646
14.662756598240469,259.04203323558164,351.9061583577713,522.9716520039101,0.0,1769.3059628543501,73.31378299120234
9.775171065493646,259.04203323558164,131.96480938416423,224.82893450635387,4.887585532746823,68.42619745845552,171.0654936461388
171.0654936461388,869.9902248289345,136.85239491691104,219.94134897360706,342.1309872922776,826.0019550342131,29.325513196480937
254.15444770283483,185.7282502443793,14.662756598240469,1085.0439882697947,102.63929618768329,606.0606060606061,4.887585532746823
14.662756598240469,219.94134897360706,43.98826979472141,39.100684261974585,14.662756598240469,679.3743890518084,0.0
19.550342130987293,273.7047898338221,733.1378299120234,136.85239491691104,4.887585532746823,259.04203323558164,131.96480938416423
4.887585532746823,610.9481915933529,146.6275659824047,923.7536656891496,0.0,29.325513196480937,156.40273704789834
78.20136852394917,180.84066471163246,19.550342130987293,234.6041055718475,210.16617790811338,166.17790811339196,24.437927663734115
102.63929618768329,68.42619745845552,498.5337243401759,1148.5826001955033,97.75171065493646,982.4046920821114,4.887585532746823
34.21309872922776,547.4095796676442,244.37927663734115,146.6275659824047,43.98826979472141,405.6695992179863,9.775171065493646
9.775171065493646,107.52688172043011,78.20136852394917,425.2199413489736,4.887585532746823,43.98826979472141,146.6275659824047
39.100684261974585,219.94134897360706,190.6158357771261,992.179863147605,156.40273704789834,689.149560117302,122.18963831867057
19.550342130987293,180.84066471163246,141.73998044965788,664.7116324535679,229.7165200391007,400.78201368523946,14.662756598240469
190.6158357771261,273.7047898338221,87.97653958944282,1397.8494623655913,34.21309872922776,205.27859237536657,0.0
14.662756598240469,371.4565004887586,87.97653958944282,508.30889540566966,9.775171065493646,24.437927663734115,63.53861192570871
161.29032258064515,34.21309872922776,39.100684261974585,1754.6432062561096,4.887585532746823,1265.884652981427,180.84066471163246
136.85239491691104,146.6275659824047,127.07722385141741,786.9012707722385,39.100684261974585,1065.4936461388074,29.325513196480937
83.08895405669598,117.30205278592375,43.98826979472141,127.07722385141741,303.03030303030306,263.92961876832845,14.662756598240469
14.662756598240469,830.8895405669599,215.05376344086022,826.0019550342131,29.325513196480937,1197.4584555229717,4.887585532746823
4.887585532746823,48.87585532746823,322.5806451612903,195.50342130987292,14.662756598240469,43.98826979472141,136.85239491691104
4.887585532746823,1114.3695014662756,63.53861192570871,596.2854349951125,14.662756598240469,190.6158357771261,141.73998044965788
78.20136852394917,444.77028347996094,78.20136852394917,879.7653958944283,127.07722385141741,200.39100684261973,4.887585532746823
278.5923753665689,606.0606060606061,195.50342130987292,136.85239491691104,122.18963831867057,219.94134897360706,0.0
24.437927663734115,19.550342130987293,9.775171065493646,1026.392961876833,39.100684261974585,171.0654936461388,9.775171065493646
4.887585532746823,425.2199413489736,14.662756598240469,752.6881720430108,4.887585532746823,303.03030303030306,185.7282502443793
107.52688172043011,117.30205278592375,87.97653958944282,601.1730205278593,0.0,141.73998044965788,83.08895405669598
83.08895405669598,913.9784946236559,97.75171065493646,1202.3460410557186,195.50342130987292,386.119257086999,9.775171065493646
161.29032258064515,307.91788856304987,278.5923753665689,298.14271749755625,87.97653958944282,1471.1632453567938,4.887585532746823
29.325513196480937,63.53861192570871,19.550342130987293,826.0019550342131,58.651026392961874,43.98826979472141,39.100684261974585
43.98826979472141,957.9667644183774,29.325513196480937,156.40273704789834,24.437927663734115,293.2551319648094,205.27859237536657
131.96480938416423,131.96480938416423,146.6275659824047,43.98826979472141,63.53861192570871,205.27859237536657,68.42619745845552
131.96480938416423,146.6275659824047,146.6275659824047,415.44477028347995,259.04203323558164,689.149560117302,14.662756598240469
9.775171065493646,889.5405669599219,117.30205278592375,376.3440860215054,78.20136852394917,454.54545454545456,4.887585532746823
0.0,29.325513196480937,19.550342130987293,317.6930596285435,9.775171065493646,73.31378299120234,107.52688172043011
234.6041055718475,1500.4887585532747,73.31378299120234,444.77028347996094,9.775171065493646,43.98826979472141,161.29032258064515
146.6275659824047,669.5992179863147,141.73998044965788,303.03030303030306,254.15444770283483,1891.4956011730205,19.550342130987293
63.53861192570871,254.15444770283483,503.42130987292273,239.49169110459434,73.31378299120234,131.96480938416423,0.0
0.0,703.8123167155426,87.97653958944282,1016.6177908113393,9.775171065493646,141.73998044965788,9.775171065493646
112.41446725317694,29.325513196480937,171.0654936461388,166.17790811339196,39.100684261974585,469.208211143695,161.29032258064515
87.97653958944282,366.5689149560117,146.6275659824047,244.37927663734115,48.87585532746823,24.437927663734115,146.6275659824047
63.53861192570871,58.651026392961874,195.50342130987292,400.78201368523946,263.92961876832845,39.100684261974585,4.887585532746823
9.775171065493646,933.5288367546432,24.437927663734115,78.20136852394917,48.87585532746823,337.2434017595308,4.887585532746823
127.07722385141741,171.0654936461388,376.3440860215054,1471.1632453567938,4.887585532746823,557.1847507331378,48.87585532746823
58.651026392961874,43.98826979472141,58.651026392961874,117.30205278592375,87.97653958944282,303.03030303030306,180.84066471163246
166.17790811339196,610.9481915933529,83.08895405669598,234.6041055718475,219.94134897360706,219.94134897360706,29.325513196480937
4.887585532746823,322.5806451612903,122.18963831867057,293.2551319648094,83.08895405669598,547.4095796676442,9.775171065493646
4.887585532746823,97.75171065493646,219.94134897360706,1036.1681329423266,9.775171065493646,73.31378299120234,4.887585532746823
92.86412512218965,557.1847507331378,151.51515151515153,742.9130009775172,14.662756598240469,347.0185728250244,102.63929618768329
317.6930596285435,68.42619745845552,254.15444770283483,127.07722385141741,303.03030303030306,249.26686217008796,171.0654936461388
83.08895405669598,522.9716520039101,24.437927663734115,337.2434017595308,131.96480938416423,620.7233626588466,19.550342130987293
24.437927663734115,224.82893450635387,9.775171065493646,806.4516129032257,48.87585532746823,708.6999022482894,4.887585532746823
4.887585532746823,83.08895405669598,953.0791788856305,136.85239491691104,14.662756598240469,78.20136852394917,4.887585532746823
337.2434017595308,747.800586510264,102.63929618768329,483.8709677419355,58.651026392961874,1642.2287390029326,141.73998044965788
68.42619745845552,850.4398826979472,9.775171065493646,117.30205278592375,219.94134897360706,327.4682306940371,127.07722385141741
4.887585532746823,293.2551319648094,171.0654936461388,1011.7302052785923,73.31378299120234,371.4565004887586,14.662756598240469
4.887585532746823,161.29032258064515,166.17790811339196,547.4095796676442,9.775171065493646,161.29032258064515,4.887585532746823
63.53861192570871,850.4398826979472,747.800586510264,449.65786901270775,63.53861192570871,68.42619745845552,58.651026392961874
278.5923753665689,24.437927663734115,29.325513196480937,29.325513196480937,215.05376344086022,4.887585532746823,180.84066471163246
63.53861192570871,117.30205278592375,249.26686217008796,469.208211143695,63.53861192570871,772.238514173998,48.87585532746823
4.887585532746823,806.4516129032257,400.78201368523946,376.3440860215054,9.775171065493646,415.44477028347995,4.887585532746823
9.775171065493646,83.08895405669598,29.325513196480937,112.41446725317694,48.87585532746823,171.0654936461388,4.887585532746823
122.18963831867057,708.6999022482894,48.87585532746823,786.9012707722385,185.7282502443793,141.73998044965788,151.51515151515153
78.20136852394917,219.94134897360706,73.31378299120234,738.0254154447704,185.7282502443793,29.325513196480937,107.52688172043011
9.775171065493646,39.100684261974585,151.51515151515153,24.437927663734115,19.550342130987293,542.5219941348973,9.775171065493646
141.73998044965788,337.2434017595308,63.53861192570871,2111.4369501466276,9.775171065493646,386.119257086999,0.0
53.763440860215056,102.63929618768329,219.94134897360706,591.3978494623656,19.550342130987293,24.437927663734115,24.437927663734115
122.18963831867057,234.6041055718475,9.775171065493646,244.37927663734115,175.95307917888564,1031.2805474095796,200.39100684261973
19.550342130987293,87.97653958944282,459.4330400782014,156.40273704789834,53.763440860215056,386.119257086999,68.42619745845552
9.775171065493646,943.3040078201368,200.39100684261973,405.6695992179863,4.887585532746823,1945.2590420332356,4.887585532746823
0.0,97.75171065493646,161.29032258064515,102.63929618768329,9.775171065493646,249.26686217008796,9.775171065493646
117.30205278592375,415.44477028347995,14.662756598240469,19.550342130987293,229.7165200391007,156.40273704789834,58.651026392961874
224.82893450635387,527.8592375366569,68.42619745845552,1031.2805474095796,190.6158357771261,1368.5239491691104,151.51515151515153
14.662756598240469,1309.8729227761485,249.26686217008796,215.05376344086022,29.325513196480937,518.0840664711633,19.550342130987293
9.775171065493646,200.39100684261973,219.94134897360706,24.437927663734115,9.775171065493646,224.82893450635387,0.0
39.100684261974585,527.8592375366569,141.73998044965788,249.26686217008796,9.775171065493646,293.2551319648094,9.775171065493646
273.7047898338221,29.325513196480937,381.2316715542522,1001.9550342130987,298.14271749755625,224.82893450635387,151.51515151515153
58.651026392961874,625.6109481915934,34.21309872922776,48.87585532746823,97.75171065493646,107.52688172043011,107.52688172043011
9.775171065493646,29.325513196480937,439.8826979472141,635.386119257087,19.550342130987293,474.0957966764418,9.775171065493646
9.775171065493646,669.5992179863147,131.96480938416423,83.08895405669598,9.775171065493646,131.96480938416423,0.0
136.85239491691104,816.2267839687195,146.6275659824047,962.8543499511242,112.41446725317694,127.07722385141741,34.21309872922776
141.73998044965788,43.98826979472141,312.8054740957967,698.9247311827957,107.52688172043011,19.550342130987293,190.6158357771261
9.775171065493646,356.7937438905181,288.36754643206257,410.55718475073314,166.17790811339196,268.81720430107526,63.53861192570871
9.775171065493646,1182.7956989247311,19.550342130987293,1422.2873900293257,24.437927663734115,992.179863147605,4.887585532746823
24.437927663734115,87.97653958944282,4.887585532746823,190.6158357771261,9.775171065493646,53.763440860215056,9.775171065493646
180.84066471163246,34.21309872922776,19.550342130987293,640.2737047898338,117.30205278592375,63.53861192570871,102.63929618768329
83.08895405669598,107.52688172043011,268.81720430107526,332.35581622678393,87.97653958944282,254.15444770283483,171.0654936461388
73.31378299120234,107.52688172043011,136.85239491691104,43.98826979472141,9.775171065493646,830.8895405669599,19.550342130987293
14.662756598240469,591.3978494623656,24.437927663734115,122.18963831867057,4.887585532746823,156.40273704789834,4.887585532746823
215.05376344086022,39.100684261974585,68.42619745845552,273.7047898338221,83.08895405669598,19.550342130987293,0.0
185.7282502443793,439.8826979472141,332.35581622678393,215.05376344086022,254.15444770283483,513.1964809384165,161.29032258064515
39.100684261974585,53.763440860215056,107.52688172043011,762.4633431085044,78.20136852394917,351.9061583577713,112.41446725317694
4.887585532746823,791.7888563049853,63.53861192570871,381.2316715542522,39.100684261974585,117.30205278592375,9.775171065493646
24.437927663734115,190.6158357771261,4.887585532746823,464.3206256109482,34.21309872922776,4.887585532746823,9.775171065493646
117.30205278592375,43.98826979472141,185.7282502443793,127.07722385141741,224.82893450635387,234.6041055718475,24.437927663734115
171.0654936461388,102.63929618768329,498.5337243401759,234.6041055718475,180.84066471163246,464.3206256109482,171.0654936461388
83.08895405669598,498.5337243401759,48.87585532746823,581.622678396872,19.550342130987293,68.42619745845552,68.42619745845552
14.662756598240469,127.07722385141741,24.437927663734115,185.7282502443793,9.775171065493646,601.1730205278593,9.775171065493646
112.41446725317694,63.53861192570871,259.04203323558164,190.6158357771261,141.73998044965788,547.4095796676442,9.775171065493646
263.92961876832845,591.3978494623656,146.6275659824047,19.550342130987293,146.6275659824047,420.33235581622677,117.30205278592375
24.437927663734115,791.7888563049853,136.85239491691104,43.98826979472141,34.21309872922776,29.325513196480937,151.51515151515153
9.775171065493646,34.21309872922776,122.18963831867057,200.39100684261973,14.662756598240469,527.8592375366569,14.662756598240469
14.662756598240469,381.2316715542522,53.763440860215056,332.35581622678393,4.887585532746823,234.6041055718475,4.887585532746823
73.31378299120234,430.10752688172045,43.98826979472141,29.325513196480937,136.85239491691104,102.63929618768329,0.0
73.31378299120234,342.1309872922776,166.17790811339196,366.5689149560117,136.85239491691104,97.75171065493646,131.96480938416423
4.887585532746823,48.87585532746823,19.550342130987293,48.87585532746823,24.437927663734115,1314.7605083088954,112.41446725317694
9.775171065493646,14.662756598240469,43.98826979472141,1324.535679374389,4.887585532746823,669.5992179863147,14.662756598240469
146.6275659824047,757.5757575757576,283.47996089931576,180.84066471163246,24.437927663734115,293.2551319648094,0.0
102.63929618768329,483.8709677419355,210.16617790811338,366.5689149560117,205.27859237536657,816.2267839687195,9.775171065493646
166.17790811339196,29.325513196480937,14.662756598240469,43.98826979472141,136.85239491691104,997.0674486803518,190.6158357771261
9.775171065493646,263.92961876832845,4.887585532746823,195.50342130987292,14.662756598240469,34.21309872922776,78.20136852394917
4.887585532746823,718.475073313783,127.07722385141741,180.84066471163246,4.887585532746823,14.662756598240469,9.775171065493646
239.49169110459434,586.5102639296188,503.42130987292273,337.2434017595308,34.21309872922776,171.0654936461388,4.887585532746823
131.96480938416423,34.21309872922776,63.53861192570871,215.05376344086022,327.4682306940371,107.52688172043011,83.08895405669598
24.437927663734115,625.6109481915934,19.550342130987293,913.9784946236559,83.08895405669598,571.8475073313783,161.29032258064515
9.775171065493646,156.40273704789834,146.6275659824047,175.95307917888564,4.887585532746823,278.5923753665689,29.325513196480937
63.53861192570871,229.7165200391007,532.7468230694037,34.21309872922776,4.887585532746823,24.437927663734115,4.887585532746823
234.6041055718475,14.662756598240469,224.82893450635387,1358.7487781036168,171.0654936461388,434.99511241446726,9.775171065493646
24.437927663734115,728.2502443792766,58.651026392961874,835.7771260997067,278.5923753665689,195.50342130987292,136.85239491691104
4.887585532746823,53.763440860215056,327.4682306940371,420.33235581622677,29.325513196480937,332.35581622678393,131.96480938416423
0.0,425.2199413489736,200.39100684261973,1089.9315738025416,14.662756598240469,122.18963831867057,19.550342130987293
195.50342130987292,48.87585532746823,562.0723362658846,107.52688172043011,39.100684261974585,224.82893450635387,4.887585532746823
73.31378299120234,376.3440860215054,24.437927663734115,557.1847507331378,293.2551319648094,826.0019550342131,24.437927663734115
39.100684261974585,312.8054740957967,161.29032258064515,29.325513196480937,185.7282502443793,307.91788856304987,205.27859237536657
9.775171065493646,29.325513196480937,48.87585532746823,381.2316715542522,9.775171065493646,317.6930596285435,68.42619745845552
9.775171065493646,9.775171065493646,151.51515151515153,747.800586510264,0.0,58.651026392961874,0.0
127.07722385141741,430.10752688172045,14.662756598240469,156.40273704789834,122.18963831867057,263.92961876832845,0.0
117.30205278592375,459.4330400782014,29.325513196480937,1260.9970674486804,141.73998044965788,322.5806451612903,97.75171065493646
4.887585532746823,307.91788856304987,386.119257086999,518.0840664711633,127.07722385141741,43.98826979472141,151.51515151515153
102.63929618768329,29.325513196480937,117.30205278592375,68.42619745845552,14.662756598240469,381.2316715542522,19.550342130987293
205.27859237536657,39.100684261974585,63.53861192570871,34.21309872922776,9.775171065493646,210.16617790811338,9.775171065493646
48.87585532746823,1114.3695014662756,4.887585532746823,0.0,224.82893450635387,78.20136852394917,0.0
9.775171065493646,53.763440860215056,439.8826979472141,1368.5239491691104,63.53861192570871,102.63929618768329,131.96480938416423
43.98826979472141,19.550342130987293,303.03030303030306,772.238514173998,14.662756598240469,762.4633431085044,127.07722385141741
14.662756598240469,337.2434017595308,195.50342130987292,498.5337243401759,9.775171065493646,342.1309872922776,9.775171065493646
131.96480938416423,234.6041055718475,19.550342130987293,210.16617790811338,29.325513196480937,112.41446725317694,9.775171065493646
166.17790811339196,34.21309872922776,410.55718475073314,513.1964809384165,249.26686217008796,293.2551319648094,19.550342130987293
4.887585532746823,43.98826979472141,259.04203323558164,48.87585532746823,112.41446725317694,19.550342130987293,200.39100684261973
9.775171065493646,0.0,107.52688172043011,224.82893450635387,19.550342130987293,1124.1446725317692,73.31378299120234
24.437927663734115,175.95307917888564,29.325513196480937,938.41642228739,4.887585532746823,630.4985337243402,9.775171065493646
24.437927663734115,171.0654936461388,68.42619745845552,918.8660801564027,112.41446725317694,229.7165200391007,0.0
254.15444770283483,312.8054740957967,102.63929618768329,73.31378299120234,200.39100684261973,278.5923753665689,73.31378299120234
83.08895405669598,127.07722385141741,273.7047898338221,928.6412512218964,34.21309872922776,645.1612903225806,175.95307917888564
4.887585532746823,48.87585532746823,83.08895405669598,464.3206256109482,4.887585532746823,185.7282502443793,14.662756598240469
78.20136852394917,136.85239491691104,171.0654936461388,171.0654936461388,4.887585532746823,83.08895405669598,0.0
381.2316715542522,532.7468230694037,39.100684261974585,87.97653958944282,263.92961876832845,347.0185728250244,4.887585532746823
39.100684261974585,39.100684261974585,190.6158357771261,386.119257086999,92.86412512218965,146.6275659824047,136.85239491691104
4.887585532746823,4.887585532746823,9.775171065493646,606.0606060606061,19.550342130987293,122.18963831867057,131.96480938416423
43.98826979472141,967.741935483871,645.1612903225806,273.7047898338221,0.0,180.84066471163246,9.775171065493646
117.30205278592375,879.7653958944283,24.437927663734115,586.5102639296188,63.53861192570871,503.42130987292273,4.887585532746823
53.763440860215056,24.437927663734115,43.98826979472141,127.07722385141741,234.6041055718475,131.96480938416423,29.325513196480937
14.662756598240469,151.51515151515153,185.7282502443793,322.5806451612903,78.20136852394917,24.437927663734115,175.95307917888564
0.0,327.4682306940371,34.21309872922776,73.31378299120234,4.887585532746823,444.77028347996094,73.31378299120234
156.40273704789834,298.14271749755625,24.437927663734115,131.96480938416423,9.775171065493646,136.85239491691104,4.887585532746823
87.97653958944282,24.437927663734115,205.27859237536657,78.20136852394917,171.0654936461388,29.325513196480937,9.775171065493646
14.662756598240469,9.775171065493646,190.6158357771261,19.550342130987293,68.42619745845552,263.92961876832845,97.75171065493646
4.887585532746823,268.81720430107526,19.550342130987293,928.6412512218964,4.887585532746823,19.550342130987293,156.40273704789834
4.887585532746823,175.95307917888564,4.887585532746823,327.4682306940371,24.437927663734115,63.53861192570871,19.550342130987293
195.50342130987292,268.81720430107526,263.92961876832845,239.49169110459434,19.550342130987293,210.16617790811338,4.887585532746823
