HandOpen,HandClose,Wrist Flexion,Wrist Extension,Supination,Pronation,Rest
43.98826979472141,9.775171065493646,0.0,48.87585532746823,24.437927663734115,19.550342130987293,4.887585532746823
63.53861192570871,4.887585532746823,4.887585532746823,58.651026392961874,34.21309872922776,4.887585532746823,9.775171065493646
58.651026392961874,4.887585532746823,4.887585532746823,29.325513196480937,29.325513196480937,9.775171065493646,4.887585532746823
53.763440860215056,24.437927663734115,0.0,9.775171065493646,9.775171065493646,4.887585532746823,14.662756598240469
24.437927663734115,4.887585532746823,4.887585532746823,4.887585532746823,4.887585532746823,0.0,43.98826979472141
9.775171065493646,0.0,0.0,9.775171065493646,0.0,9.775171065493646,83.08895405669598
4.887585532746823,9.775171065493646,14.662756598240469,0.0,4.887585532746823,29.325513196480937,87.97653958944282
4.887585532746823,0.0,48.87585532746823,0.0,0.0,43.98826979472141,68.42619745845552
9.775171065493646,19.550342130987293,73.31378299120234,9.775171065493646,4.887585532746823,39.100684261974585,24.437927663734115
9.775171065493646,43.98826979472141,78.20136852394917,34.21309872922776,4.887585532746823,24.437927663734115,14.662756598240469
0.0,58.651026392961874,53.763440860215056,43.98826979472141,9.775171065493646,14.662756598240469,4.887585532746823
4.887585532746823,48.87585532746823,102.63929618768329,43.98826979472141,0.0,4.887585532746823,14.662756598240469
9.775171065493646,48.87585532746823,58.651026392961874,48.87585532746823,4.887585532746823,9.775171065493646,0.0
14.662756598240469,29.325513196480937,24.437927663734115,24.437927663734115,14.662756598240469,4.887585532746823,4.887585532746823
39.100684261974585,14.662756598240469,9.775171065493646,19.550342130987293,29.325513196480937,0.0,4.887585532746823
63.53861192570871,9.775171065493646,9.775171065493646,4.887585532746823,39.100684261974585,4.887585532746823,4.887585532746823
68.42619745845552,0.0,9.775171065493646,4.887585532746823,39.100684261974585,24.437927663734115,0.0
53.763440860215056,0.0,4.887585532746823,4.887585532746823,29.325513196480937,14.662756598240469,9.775171065493646
19.550342130987293,9.775171065493646,9.775171065493646,9.775171065493646,19.550342130987293,9.775171065493646,48.87585532746823
9.775171065493646,4.887585532746823,4.887585532746823,4.887585532746823,9.775171065493646,0.0,83.08895405669598
9.775171065493646,0.0,24.437927663734115,4.887585532746823,9.775171065493646,39.100684261974585,92.86412512218965
9.775171065493646,4.887585532746823,48.87585532746823,9.775171065493646,4.887585532746823,68.42619745845552,78.20136852394917
0.0,34.21309872922776,53.763440860215056,24.437927663734115,4.887585532746823,63.53861192570871,29.325513196480937
0.0,73.31378299120234,39.100684261974585,53.763440860215056,9.775171065493646,43.98826979472141,14.662756598240469
0.0,58.651026392961874,34.21309872922776,53.763440860215056,4.887585532746823,58.651026392961874,9.775171065493646
4.887585532746823,34.21309872922776,14.662756598240469,39.100684261974585,4.887585532746823,131.96480938416423,9.775171065493646
0.0,24.437927663734115,9.775171065493646,34.21309872922776,9.775171065493646,161.29032258064515,9.775171065493646
9.775171065493646,14.662756598240469,9.775171065493646,19.550342130987293,19.550342130987293,78.20136852394917,0.0
39.100684261974585,14.662756598240469,0.0,4.887585532746823,19.550342130987293,29.325513196480937,9.775171065493646
63.53861192570871,9.775171065493646,9.775171065493646,4.887585532746823,24.437927663734115,24.437927663734115,0.0
68.42619745845552,14.662756598240469,9.775171065493646,4.887585532746823,24.437927663734115,4.887585532746823,4.887585532746823
19.550342130987293,4.887585532746823,127.07722385141741,4.887585532746823,19.550342130987293,4.887585532746823,43.98826979472141
9.775171065493646,4.887585532746823,87.97653958944282,4.887585532746823,9.775171065493646,24.437927663734115,97.75171065493646
4.887585532746823,14.662756598240469,19.550342130987293,9.775171065493646,4.887585532746823,19.550342130987293,0.0
14.662756598240469,58.651026392961874,9.775171065493646,34.21309872922776,0.0,39.100684261974585,4.887585532746823
48.87585532746823,19.550342130987293,4.887585532746823,29.325513196480937,0.0,78.20136852394917,0.0
14.662756598240469,4.887585532746823,39.100684261974585,9.775171065493646,4.887585532746823,58.651026392961874,34.21309872922776
4.887585532746823,9.775171065493646,87.97653958944282,9.775171065493646,24.437927663734115,9.775171065493646,97.75171065493646
0.0,4.887585532746823,9.775171065493646,0.0,29.325513196480937,43.98826979472141,9.775171065493646
9.775171065493646,68.42619745845552,0.0,14.662756598240469,9.775171065493646,4.887585532746823,4.887585532746823
58.651026392961874,4.887585532746823,34.21309872922776,63.53861192570871,4.887585532746823,0.0,0.0
19.550342130987293,4.887585532746823,48.87585532746823,4.887585532746823,0.0,19.550342130987293,43.98826979472141
4.887585532746823,97.75171065493646,29.325513196480937,0.0,4.887585532746823,24.437927663734115,97.75171065493646
9.775171065493646,73.31378299120234,9.775171065493646,4.887585532746823,34.21309872922776,24.437927663734115,19.550342130987293
4.887585532746823,122.18963831867057,9.775171065493646,19.550342130987293,9.775171065493646,19.550342130987293,0.0
63.53861192570871,14.662756598240469,0.0,39.100684261974585,4.887585532746823,24.437927663734115,9.775171065493646
24.437927663734115,9.775171065493646,4.887585532746823,9.775171065493646,9.775171065493646,9.775171065493646,39.100684261974585
4.887585532746823,9.775171065493646,48.87585532746823,0.0,0.0,9.775171065493646,92.86412512218965
0.0,68.42619745845552,24.437927663734115,4.887585532746823,24.437927663734115,9.775171065493646,9.775171065493646
0.0,39.100684261974585,4.887585532746823,0.0,29.325513196480937,9.775171065493646,0.0
58.651026392961874,0.0,9.775171065493646,68.42619745845552,4.887585532746823,9.775171065493646,4.887585532746823
24.437927663734115,0.0,4.887585532746823,14.662756598240469,4.887585532746823,4.887585532746823,43.98826979472141
4.887585532746823,19.550342130987293,107.52688172043011,0.0,4.887585532746823,53.763440860215056,87.97653958944282
4.887585532746823,87.97653958944282,9.775171065493646,9.775171065493646,9.775171065493646,34.21309872922776,19.550342130987293
0.0,34.21309872922776,4.887585532746823,0.0,34.21309872922776,14.662756598240469,4.887585532746823
53.763440860215056,0.0,4.887585532746823,53.763440860215056,9.775171065493646,4.887585532746823,0.0
24.437927663734115,9.775171065493646,127.07722385141741,9.775171065493646,4.887585532746823,4.887585532746823,29.325513196480937
4.887585532746823,53.763440860215056,63.53861192570871,4.887585532746823,4.887585532746823,0.0,92.86412512218965
14.662756598240469,73.31378299120234,29.325513196480937,39.100684261974585,4.887585532746823,58.651026392961874,9.775171065493646
4.887585532746823,14.662756598240469,9.775171065493646,29.325513196480937,29.325513196480937,29.325513196480937,0.0
58.651026392961874,4.887585532746823,14.662756598240469,24.437927663734115,14.662756598240469,4.887585532746823,9.775171065493646
9.775171065493646,4.887585532746823,43.98826979472141,9.775171065493646,0.0,4.887585532746823,39.100684261974585
9.775171065493646,9.775171065493646,9.775171065493646,9.775171065493646,4.887585532746823,87.97653958944282,107.52688172043011
0.0,78.20136852394917,63.53861192570871,9.775171065493646,0.0,53.763440860215056,9.775171065493646
4.887585532746823,9.775171065493646,58.651026392961874,4.887585532746823,29.325513196480937,58.651026392961874,0.0
63.53861192570871,9.775171065493646,4.887585532746823,53.763440860215056,19.550342130987293,4.887585532746823,0.0
19.550342130987293,4.887585532746823,14.662756598240469,14.662756598240469,0.0,4.887585532746823,34.21309872922776
4.887585532746823,34.21309872922776,34.21309872922776,4.887585532746823,0.0,4.887585532746823,92.86412512218965
0.0,73.31378299120234,4.887585532746823,9.775171065493646,0.0,4.887585532746823,19.550342130987293
4.887585532746823,9.775171065493646,4.887585532746823,0.0,9.775171065493646,34.21309872922776,0.0
53.763440860215056,102.63929618768329,4.887585532746823,9.775171065493646,24.437927663734115,19.550342130987293,0.0
19.550342130987293,9.775171065493646,19.550342130987293,29.325513196480937,9.775171065493646,9.775171065493646,39.100684261974585
0.0,53.763440860215056,78.20136852394917,4.887585532746823,9.775171065493646,0.0,92.86412512218965
4.887585532746823,53.763440860215056,4.887585532746823,4.887585532746823,4.887585532746823,136.85239491691104,9.775171065493646
14.662756598240469,4.887585532746823,4.887585532746823,0.0,4.887585532746823,19.550342130987293,0.0
68.42619745845552,4.887585532746823,9.775171065493646,9.775171065493646,19.550342130987293,9.775171065493646,4.887585532746823
14.662756598240469,0.0,29.325513196480937,43.98826979472141,9.775171065493646,0.0,43.98826979472141
4.887585532746823,63.53861192570871,48.87585532746823,24.437927663734115,0.0,4.887585532746823,83.08895405669598
9.775171065493646,34.21309872922776,9.775171065493646,0.0,0.0,171.0654936461388,9.775171065493646
4.887585532746823,0.0,0.0,9.775171065493646,9.775171065493646,53.763440860215056,14.662756598240469
73.31378299120234,4.887585532746823,4.887585532746823,4.887585532746823,14.662756598240469,4.887585532746823,4.887585532746823
24.437927663734115,29.325513196480937,87.97653958944282,29.325513196480937,9.775171065493646,14.662756598240469,34.21309872922776
0.0,83.08895405669598,215.05376344086022,19.550342130987293,4.887585532746823,0.0,97.75171065493646
9.775171065493646,24.437927663734115,19.550342130987293,4.887585532746823,4.887585532746823,0.0,14.662756598240469
9.775171065493646,9.775171065493646,9.775171065493646,9.775171065493646,9.775171065493646,4.887585532746823,0.0
53.763440860215056,9.775171065493646,0.0,4.887585532746823,9.775171065493646,141.73998044965788,9.775171065493646
14.662756598240469,9.775171065493646,63.53861192570871,53.763440860215056,39.100684261974585,48.87585532746823,29.325513196480937
9.775171065493646,53.763440860215056,136.85239491691104,24.437927663734115,9.775171065493646,9.775171065493646,97.75171065493646
4.887585532746823,14.662756598240469,14.662756598240469,9.775171065493646,4.887585532746823,29.325513196480937,14.662756598240469
0.0,4.887585532746823,0.0,4.887585532746823,4.887585532746823,4.887585532746823,4.887585532746823
53.763440860215056,9.775171065493646,0.0,4.887585532746823,0.0,4.887585532746823,4.887585532746823
14.662756598240469,9.775171065493646,92.86412512218965,34.21309872922776,34.21309872922776,4.887585532746823,29.325513196480937
4.887585532746823,63.53861192570871,19.550342130987293,43.98826979472141,14.662756598240469,112.41446725317694,97.75171065493646
9.775171065493646,53.763440860215056,0.0,9.775171065493646,9.775171065493646,83.08895405669598,14.662756598240469
4.887585532746823,4.887585532746823,14.662756598240469,14.662756598240469,4.887585532746823,9.775171065493646,4.887585532746823
53.763440860215056,4.887585532746823,43.98826979472141,4.887585532746823,9.775171065493646,107.52688172043011,4.887585532746823
19.550342130987293,102.63929618768329,127.07722385141741,19.550342130987293,14.662756598240469,14.662756598240469,24.437927663734115
4.887585532746823,53.763440860215056,34.21309872922776,34.21309872922776,29.325513196480937,24.437927663734115,97.75171065493646
9.775171065493646,4.887585532746823,9.775171065493646,4.887585532746823,4.887585532746823,136.85239491691104,19.550342130987293
9.775171065493646,4.887585532746823,0.0,4.887585532746823,0.0,4.887585532746823,9.775171065493646
58.651026392961874,4.887585532746823,19.550342130987293,9.775171065493646,0.0,9.775171065493646,4.887585532746823
24.437927663734115,34.21309872922776,9.775171065493646,4.887585532746823,9.775171065493646,9.775171065493646,39.100684261974585
4.887585532746823,83.08895405669598,29.325513196480937,43.98826979472141,19.550342130987293,63.53861192570871,107.52688172043011
4.887585532746823,48.87585532746823,14.662756598240469,19.550342130987293,4.887585532746823,14.662756598240469,14.662756598240469
0.0,4.887585532746823,9.775171065493646,4.887585532746823,0.0,9.775171065493646,4.887585532746823
53.763440860215056,4.887585532746823,14.662756598240469,0.0,9.775171065493646,4.887585532746823,4.887585532746823
19.550342130987293,43.98826979472141,117.30205278592375,4.887585532746823,4.887585532746823,4.887585532746823,34.21309872922776
9.775171065493646,34.21309872922776,29.325513196480937,48.87585532746823,24.437927663734115,4.887585532746823,102.63929618768329
4.887585532746823,4.887585532746823,0.0,29.325513196480937,9.775171065493646,78.20136852394917,9.775171065493646
9.775171065493646,4.887585532746823,0.0,4.887585532746823,4.887585532746823,39.100684261974585,4.887585532746823
58.651026392961874,0.0,43.98826979472141,4.887585532746823,4.887585532746823,4.887585532746823,4.887585532746823
24.437927663734115,58.651026392961874,63.53861192570871,9.775171065493646,4.887585532746823,0.0,39.100684261974585
4.887585532746823,112.41446725317694,24.437927663734115,24.437927663734115,29.325513196480937,34.21309872922776,92.86412512218965
9.775171065493646,19.550342130987293,4.887585532746823,48.87585532746823,24.437927663734115,24.437927663734115,14.662756598240469
4.887585532746823,4.887585532746823,0.0,9.775171065493646,4.887585532746823,4.887585532746823,0.0
43.98826979472141,0.0,4.887585532746823,4.887585532746823,14.662756598240469,9.775171065493646,4.887585532746823
19.550342130987293,73.31378299120234,48.87585532746823,4.887585532746823,9.775171065493646,78.20136852394917,29.325513196480937
9.775171065493646,29.325513196480937,29.325513196480937,29.325513196480937,14.662756598240469,127.07722385141741,97.75171065493646
4.887585532746823,9.775171065493646,39.100684261974585,24.437927663734115,34.21309872922776,9.775171065493646,9.775171065493646
0.0,9.775171065493646,9.775171065493646,14.662756598240469,9.775171065493646,9.775171065493646,4.887585532746823
34.21309872922776,0.0,4.887585532746823,4.887585532746823,9.775171065493646,9.775171065493646,0.0
68.42619745845552,29.325513196480937,53.763440860215056,4.887585532746823,4.887585532746823,102.63929618768329,29.325513196480937
4.887585532746823,73.31378299120234,19.550342130987293,4.887585532746823,4.887585532746823,19.550342130987293,102.63929618768329
4.887585532746823,34.21309872922776,4.887585532746823,19.550342130987293,29.325513196480937,0.0,19.550342130987293
0.0,9.775171065493646,0.0,0.0,14.662756598240469,9.775171065493646,4.887585532746823
34.21309872922776,9.775171065493646,14.662756598240469,0.0,4.887585532746823,4.887585532746823,9.775171065493646
58.651026392961874,29.325513196480937,19.550342130987293,4.887585532746823,4.887585532746823,141.73998044965788,39.100684261974585
9.775171065493646,73.31378299120234,29.325513196480937,9.775171065493646,0.0,68.42619745845552,102.63929618768329
4.887585532746823,14.662756598240469,4.887585532746823,24.437927663734115,14.662756598240469,4.887585532746823,4.887585532746823
9.775171065493646,9.775171065493646,0.0,9.775171065493646,29.325513196480937,4.887585532746823,4.887585532746823
43.98826979472141,4.887585532746823,19.550342130987293,0.0,9.775171065493646,4.887585532746823,4.887585532746823
63.53861192570871,24.437927663734115,175.95307917888564,0.0,4.887585532746823,9.775171065493646,34.21309872922776
4.887585532746823,175.95307917888564,117.30205278592375,4.887585532746823,0.0,68.42619745845552,117.30205278592375
4.887585532746823,87.97653958944282,9.775171065493646,14.662756598240469,9.775171065493646,58.651026392961874,4.887585532746823
0.0,9.775171065493646,4.887585532746823,58.651026392961874,24.437927663734115,9.775171065493646,4.887585532746823
43.98826979472141,9.775171065493646,9.775171065493646,14.662756598240469,9.775171065493646,4.887585532746823,9.775171065493646
58.651026392961874,39.100684261974585,19.550342130987293,0.0,9.775171065493646,48.87585532746823,19.550342130987293
4.887585532746823,43.98826979472141,112.41446725317694,4.887585532746823,4.887585532746823,34.21309872922776,97.75171065493646
4.887585532746823,9.775171065493646,19.550342130987293,14.662756598240469,4.887585532746823,4.887585532746823,14.662756598240469
9.775171065493646,4.887585532746823,4.887585532746823,19.550342130987293,24.437927663734115,4.887585532746823,4.887585532746823
34.21309872922776,4.887585532746823,19.550342130987293,4.887585532746823,9.775171065493646,0.0,4.887585532746823
68.42619745845552,73.31378299120234,68.42619745845552,9.775171065493646,9.775171065493646,83.08895405669598,24.437927663734115
4.887585532746823,34.21309872922776,24.437927663734115,0.0,9.775171065493646,34.21309872922776,87.97653958944282
9.775171065493646,4.887585532746823,4.887585532746823,19.550342130987293,4.887585532746823,4.887585532746823,14.662756598240469
0.0,0.0,0.0,29.325513196480937,9.775171065493646,4.887585532746823,4.887585532746823
39.100684261974585,4.887585532746823,87.97653958944282,14.662756598240469,19.550342130987293,4.887585532746823,0.0
58.651026392961874,53.763440860215056,156.40273704789834,14.662756598240469,4.887585532746823,0.0,39.100684261974585
4.887585532746823,19.550342130987293,24.437927663734115,0.0,9.775171065493646,131.96480938416423,92.86412512218965
4.887585532746823,9.775171065493646,4.887585532746823,0.0,4.887585532746823,14.662756598240469,9.775171065493646
4.887585532746823,0.0,4.887585532746823,29.325513196480937,4.887585532746823,4.887585532746823,9.775171065493646
34.21309872922776,4.887585532746823,43.98826979472141,19.550342130987293,14.662756598240469,4.887585532746823,4.887585532746823
63.53861192570871,29.325513196480937,73.31378299120234,9.775171065493646,4.887585532746823,19.550342130987293,34.21309872922776
9.775171065493646,53.763440860215056,9.775171065493646,9.775171065493646,0.0,166.17790811339196,92.86412512218965
0.0,24.437927663734115,9.775171065493646,9.775171065493646,0.0,29.325513196480937,4.887585532746823
0.0,4.887585532746823,4.887585532746823,34.21309872922776,0.0,29.325513196480937,4.887585532746823
29.325513196480937,4.887585532746823,4.887585532746823,19.550342130987293,24.437927663734115,14.662756598240469,4.887585532746823
68.42619745845552,58.651026392961874,136.85239491691104,4.887585532746823,9.775171065493646,9.775171065493646,24.437927663734115
9.775171065493646,83.08895405669598,29.325513196480937,4.887585532746823,4.887585532746823,48.87585532746823,102.63929618768329
9.775171065493646,14.662756598240469,4.887585532746823,4.887585532746823,4.887585532746823,4.887585532746823,14.662756598240469
9.775171065493646,0.0,0.0,29.325513196480937,4.887585532746823,9.775171065493646,0.0
34.21309872922776,4.887585532746823,0.0,43.98826979472141,14.662756598240469,39.100684261974585,0.0
73.31378299120234,53.763440860215056,102.63929618768329,14.662756598240469,29.325513196480937,73.31378299120234,29.325513196480937
9.775171065493646,58.651026392961874,39.100684261974585,9.775171065493646,9.775171065493646,14.662756598240469,92.86412512218965
4.887585532746823,48.87585532746823,68.42619745845552,0.0,9.775171065493646,4.887585532746823,9.775171065493646
4.887585532746823,4.887585532746823,9.775171065493646,0.0,4.887585532746823,9.775171065493646,4.887585532746823
39.100684261974585,9.775171065493646,4.887585532746823,39.100684261974585,9.775171065493646,4.887585532746823,9.775171065493646
63.53861192570871,14.662756598240469,68.42619745845552,34.21309872922776,29.325513196480937,127.07722385141741,29.325513196480937
4.887585532746823,58.651026392961874,58.651026392961874,9.775171065493646,4.887585532746823,63.53861192570871,97.75171065493646
4.887585532746823,4.887585532746823,9.775171065493646,4.887585532746823,4.887585532746823,4.887585532746823,14.662756598240469
4.887585532746823,4.887585532746823,9.775171065493646,4.887585532746823,4.887585532746823,39.100684261974585,9.775171065493646
34.21309872922776,48.87585532746823,34.21309872922776,39.100684261974585,9.775171065493646,9.775171065493646,0.0
68.42619745845552,24.437927663734115,58.651026392961874,39.100684261974585,29.325513196480937,9.775171065493646,29.325513196480937
9.775171065493646,4.887585532746823,9.775171065493646,9.775171065493646,24.437927663734115,14.662756598240469,97.75171065493646
4.887585532746823,9.775171065493646,4.887585532746823,9.775171065493646,4.887585532746823,9.775171065493646,9.775171065493646
0.0,24.437927663734115,0.0,4.887585532746823,9.775171065493646,4.887585532746823,9.775171065493646
34.21309872922776,53.763440860215056,58.651026392961874,4.887585532746823,4.887585532746823,4.887585532746823,4.887585532746823
48.87585532746823,48.87585532746823,34.21309872922776,48.87585532746823,14.662756598240469,19.550342130987293,29.325513196480937
4.887585532746823,19.550342130987293,4.887585532746823,9.775171065493646,14.662756598240469,131.96480938416423,107.52688172043011
9.775171065493646,4.887585532746823,4.887585532746823,9.775171065493646,4.887585532746823,83.08895405669598,14.662756598240469
9.775171065493646,4.887585532746823,4.887585532746823,9.775171065493646,9.775171065493646,4.887585532746823,4.887585532746823
29.325513196480937,63.53861192570871,53.763440860215056,24.437927663734115,9.775171065493646,9.775171065493646,0.0
78.20136852394917,9.775171065493646,34.21309872922776,34.21309872922776,4.887585532746823,24.437927663734115,19.550342130987293
0.0,9.775171065493646,4.887585532746823,4.887585532746823,29.325513196480937,34.21309872922776,87.97653958944282
4.887585532746823,4.887585532746823,4.887585532746823,4.887585532746823,9.775171065493646,4.887585532746823,9.775171065493646
9.775171065493646,14.662756598240469,4.887585532746823,0.0,4.887585532746823,4.887585532746823,9.775171065493646
29.325513196480937,73.31378299120234,43.98826979472141,4.887585532746823,9.775171065493646,0.0,0.0
63.53861192570871,24.437927663734115,43.98826979472141,34.21309872922776,9.775171065493646,78.20136852394917,19.550342130987293
14.662756598240469,9.775171065493646,9.775171065493646,14.662756598240469,34.21309872922776,102.63929618768329,87.97653958944282
9.775171065493646,4.887585532746823,9.775171065493646,4.887585532746823,19.550342130987293,14.662756598240469,14.662756598240469
9.775171065493646,4.887585532746823,4.887585532746823,0.0,9.775171065493646,53.763440860215056,9.775171065493646
34.21309872922776,73.31378299120234,112.41446725317694,4.887585532746823,4.887585532746823,9.775171065493646,9.775171065493646
68.42619745845552,19.550342130987293,58.651026392961874,9.775171065493646,4.887585532746823,14.662756598240469,29.325513196480937
9.775171065493646,4.887585532746823,0.0,39.100684261974585,19.550342130987293,39.100684261974585,97.75171065493646
0.0,9.775171065493646,9.775171065493646,14.662756598240469,34.21309872922776,4.887585532746823,9.775171065493646
4.887585532746823,14.662756598240469,4.887585532746823,4.887585532746823,9.775171065493646,4.887585532746823,9.775171065493646
34.21309872922776,43.98826979472141,58.651026392961874,4.887585532746823,4.887585532746823,4.887585532746823,4.887585532746823
63.53861192570871,14.662756598240469,34.21309872922776,9.775171065493646,4.887585532746823,112.41446725317694,24.437927663734115
9.775171065493646,4.887585532746823,4.887585532746823,48.87585532746823,4.887585532746823,24.437927663734115,87.97653958944282
4.887585532746823,9.775171065493646,9.775171065493646,9.775171065493646,24.437927663734115,0.0,19.550342130987293
4.887585532746823,78.20136852394917,4.887585532746823,0.0,9.775171065493646,9.775171065493646,14.662756598240469
24.437927663734115,4.887585532746823,78.20136852394917,9.775171065493646,4.887585532746823,14.662756598240469,4.887585532746823
68.42619745845552,4.887585532746823,58.651026392961874,19.550342130987293,9.775171065493646,24.437927663734115,19.550342130987293
9.775171065493646,9.775171065493646,0.0,34.21309872922776,4.887585532746823,4.887585532746823,112.41446725317694
4.887585532746823,4.887585532746823,0.0,14.662756598240469,19.550342130987293,0.0,24.437927663734115
0.0,9.775171065493646,4.887585532746823,0.0,9.775171065493646,9.775171065493646,4.887585532746823
39.100684261974585,53.763440860215056,48.87585532746823,4.887585532746823,4.887585532746823,19.550342130987293,0.0
48.87585532746823,19.550342130987293,14.662756598240469,14.662756598240469,9.775171065493646,29.325513196480937,29.325513196480937
9.775171065493646,0.0,9.775171065493646,29.325513196480937,0.0,19.550342130987293,107.52688172043011
9.775171065493646,4.887585532746823,4.887585532746823,19.550342130987293,19.550342130987293,9.775171065493646,24.437927663734115
0.0,4.887585532746823,0.0,9.775171065493646,19.550342130987293,4.887585532746823,0.0
29.325513196480937,48.87585532746823,63.53861192570871,4.887585532746823,4.887585532746823,4.887585532746823,4.887585532746823
78.20136852394917,29.325513196480937,14.662756598240469,9.775171065493646,9.775171065493646,4.887585532746823,24.437927663734115
4.887585532746823,4.887585532746823,4.887585532746823,19.550342130987293,0.0,48.87585532746823,83.08895405669598
4.887585532746823,9.775171065493646,0.0,43.98826979472141,4.887585532746823,48.87585532746823,14.662756598240469
4.887585532746823,0.0,0.0,14.662756598240469,24.437927663734115,9.775171065493646,9.775171065493646
29.325513196480937,63.53861192570871,63.53861192570871,0.0,14.662756598240469,4.887585532746823,4.887585532746823
58.651026392961874,24.437927663734115,29.325513196480937,0.0,4.887585532746823,4.887585532746823,19.550342130987293
9.775171065493646,4.887585532746823,4.887585532746823,14.662756598240469,9.775171065493646,112.41446725317694,92.86412512218965
9.775171065493646,0.0,9.775171065493646,29.325513196480937,9.775171065493646,78.20136852394917,9.775171065493646
4.887585532746823,4.887585532746823,24.437927663734115,24.437927663734115,29.325513196480937,14.662756598240469,0.0
14.662756598240469,48.87585532746823,63.53861192570871,4.887585532746823,24.437927663734115,4.887585532746823,4.887585532746823
78.20136852394917,9.775171065493646,9.775171065493646,4.887585532746823,4.887585532746823,29.325513196480937,19.550342130987293
4.887585532746823,4.887585532746823,4.887585532746823,4.887585532746823,0.0,4.887585532746823,87.97653958944282
0.0,19.550342130987293,4.887585532746823,43.98826979472141,0.0,9.775171065493646,9.775171065493646
4.887585532746823,9.775171065493646,29.325513196480937,24.437927663734115,19.550342130987293,4.887585532746823,0.0
19.550342130987293,34.21309872922776,68.42619745845552,9.775171065493646,39.100684261974585,4.887585532746823,0.0
68.42619745845552,87.97653958944282,14.662756598240469,4.887585532746823,14.662756598240469,9.775171065493646,29.325513196480937
4.887585532746823,14.662756598240469,4.887585532746823,0.0,9.775171065493646,83.08895405669598,97.75171065493646
4.887585532746823,9.775171065493646,53.763440860215056,9.775171065493646,0.0,107.52688172043011,14.662756598240469
4.887585532746823,4.887585532746823,14.662756598240469,48.87585532746823,9.775171065493646,4.887585532746823,0.0
34.21309872922776,166.17790811339196,112.41446725317694,9.775171065493646,29.325513196480937,4.887585532746823,4.887585532746823
63.53861192570871,39.100684261974585,14.662756598240469,4.887585532746823,14.662756598240469,73.31378299120234,24.437927663734115
14.662756598240469,4.887585532746823,0.0,0.0,4.887585532746823,9.775171065493646,97.75171065493646
4.887585532746823,4.887585532746823,4.887585532746823,19.550342130987293,9.775171065493646,9.775171065493646,14.662756598240469
0.0,9.775171065493646,29.325513196480937,34.21309872922776,4.887585532746823,0.0,9.775171065493646
24.437927663734115,53.763440860215056,63.53861192570871,19.550342130987293,24.437927663734115,9.775171065493646,4.887585532746823
48.87585532746823,29.325513196480937,4.887585532746823,0.0,14.662756598240469,78.20136852394917,24.437927663734115
14.662756598240469,4.887585532746823,4.887585532746823,9.775171065493646,0.0,102.63929618768329,107.52688172043011
4.887585532746823,4.887585532746823,0.0,9.775171065493646,4.887585532746823,9.775171065493646,14.662756598240469
4.887585532746823,0.0,43.98826979472141,43.98826979472141,4.887585532746823,0.0,9.775171065493646
9.775171065493646,48.87585532746823,78.20136852394917,14.662756598240469,9.775171065493646,97.75171065493646,4.887585532746823
53.763440860215056,29.325513196480937,14.662756598240469,4.887585532746823,14.662756598240469,34.21309872922776,14.662756598240469
4.887585532746823,4.887585532746823,4.887585532746823,0.0,0.0,9.775171065493646,92.86412512218965
4.887585532746823,0.0,0.0,9.775171065493646,0.0,14.662756598240469,19.550342130987293
4.887585532746823,48.87585532746823,34.21309872922776,48.87585532746823,9.775171065493646,4.887585532746823,4.887585532746823
24.437927663734115,127.07722385141741,127.07722385141741,9.775171065493646,0.0,0.0,4.887585532746823
68.42619745845552,19.550342130987293,29.325513196480937,9.775171065493646,29.325513196480937,19.550342130987293,19.550342130987293
4.887585532746823,4.887585532746823,4.887585532746823,0.0,4.887585532746823,102.63929618768329,107.52688172043011
4.887585532746823,4.887585532746823,9.775171065493646,4.887585532746823,9.775171065493646,9.775171065493646,19.550342130987293
9.775171065493646,4.887585532746823,19.550342130987293,48.87585532746823,0.0,0.0,9.775171065493646
19.550342130987293,63.53861192570871,68.42619745845552,19.550342130987293,4.887585532746823,9.775171065493646,0.0
73.31378299120234,14.662756598240469,9.775171065493646,4.887585532746823,9.775171065493646,4.887585532746823,14.662756598240469
14.662756598240469,4.887585532746823,4.887585532746823,9.775171065493646,0.0,185.7282502443793,87.97653958944282
4.887585532746823,9.775171065493646,4.887585532746823,0.0,19.550342130987293,92.86412512218965,14.662756598240469
4.887585532746823,4.887585532746823,68.42619745845552,34.21309872922776,87.97653958944282,4.887585532746823,4.887585532746823
29.325513196480937,171.0654936461388,29.325513196480937,34.21309872922776,9.775171065493646,9.775171065493646,9.775171065493646
53.763440860215056,73.31378299120234,4.887585532746823,4.887585532746823,9.775171065493646,9.775171065493646,14.662756598240469
0.0,14.662756598240469,4.887585532746823,4.887585532746823,0.0,4.887585532746823,87.97653958944282
4.887585532746823,4.887585532746823,4.887585532746823,0.0,0.0,9.775171065493646,19.550342130987293
0.0,14.662756598240469,68.42619745845552,39.100684261974585,9.775171065493646,43.98826979472141,4.887585532746823
29.325513196480937,92.86412512218965,87.97653958944282,48.87585532746823,9.775171065493646,24.437927663734115,4.887585532746823
73.31378299120234,4.887585532746823,4.887585532746823,4.887585532746823,122.18963831867057,48.87585532746823,4.887585532746823
14.662756598240469,4.887585532746823,0.0,9.775171065493646,29.325513196480937,4.887585532746823,87.97653958944282
9.775171065493646,9.775171065493646,4.887585532746823,9.775171065493646,4.887585532746823,9.775171065493646,14.662756598240469
4.887585532746823,4.887585532746823,68.42619745845552,24.437927663734115,0.0,4.887585532746823,4.887585532746823
14.662756598240469,87.97653958944282,34.21309872922776,29.325513196480937,4.887585532746823,34.21309872922776,4.887585532746823
58.651026392961874,19.550342130987293,9.775171065493646,9.775171065493646,14.662756598240469,48.87585532746823,24.437927663734115
14.662756598240469,4.887585532746823,0.0,9.775171065493646,29.325513196480937,175.95307917888564,87.97653958944282
4.887585532746823,9.775171065493646,14.662756598240469,4.887585532746823,9.775171065493646,24.437927663734115,9.775171065493646
9.775171065493646,53.763440860215056,107.52688172043011,29.325513196480937,4.887585532746823,4.887585532746823,9.775171065493646
14.662756598240469,117.30205278592375,117.30205278592375,19.550342130987293,4.887585532746823,9.775171065493646,14.662756598240469
43.98826979472141,9.775171065493646,14.662756598240469,24.437927663734115,9.775171065493646,73.31378299120234,14.662756598240469
9.775171065493646,0.0,0.0,9.775171065493646,29.325513196480937,9.775171065493646,97.75171065493646
9.775171065493646,9.775171065493646,4.887585532746823,9.775171065493646,19.550342130987293,4.887585532746823,19.550342130987293
4.887585532746823,29.325513196480937,73.31378299120234,0.0,4.887585532746823,0.0,4.887585532746823
0.0,78.20136852394917,19.550342130987293,43.98826979472141,0.0,63.53861192570871,0.0
58.651026392961874,9.775171065493646,9.775171065493646,19.550342130987293,4.887585532746823,117.30205278592375,14.662756598240469
24.437927663734115,4.887585532746823,9.775171065493646,4.887585532746823,9.775171065493646,39.100684261974585,87.97653958944282
4.887585532746823,9.775171065493646,4.887585532746823,4.887585532746823,14.662756598240469,4.887585532746823,19.550342130987293
4.887585532746823,78.20136852394917,58.651026392961874,0.0,4.887585532746823,9.775171065493646,4.887585532746823
0.0,97.75171065493646,19.550342130987293,34.21309872922776,4.887585532746823,195.50342130987292,9.775171065493646
58.651026392961874,4.887585532746823,14.662756598240469,29.325513196480937,0.0,48.87585532746823,14.662756598240469
19.550342130987293,0.0,9.775171065493646,4.887585532746823,19.550342130987293,4.887585532746823,107.52688172043011
4.887585532746823,58.651026392961874,19.550342130987293,14.662756598240469,39.100684261974585,4.887585532746823,29.325513196480937
4.887585532746823,175.95307917888564,122.18963831867057,4.887585532746823,0.0,29.325513196480937,4.887585532746823
9.775171065493646,34.21309872922776,34.21309872922776,14.662756598240469,4.887585532746823,78.20136852394917,0.0
58.651026392961874,9.775171065493646,9.775171065493646,39.100684261974585,4.887585532746823,24.437927663734115,9.775171065493646
19.550342130987293,9.775171065493646,4.887585532746823,14.662756598240469,0.0,0.0,97.75171065493646
4.887585532746823,53.763440860215056,29.325513196480937,4.887585532746823,14.662756598240469,4.887585532746823,29.325513196480937
0.0,53.763440860215056,87.97653958944282,4.887585532746823,9.775171065493646,0.0,4.887585532746823
9.775171065493646,9.775171065493646,24.437927663734115,4.887585532746823,9.775171065493646,127.07722385141741,0.0
68.42619745845552,9.775171065493646,9.775171065493646,43.98826979472141,0.0,210.16617790811338,9.775171065493646
19.550342130987293,0.0,4.887585532746823,48.87585532746823,9.775171065493646,24.437927663734115,102.63929618768329
9.775171065493646,29.325513196480937,9.775171065493646,9.775171065493646,14.662756598240469,9.775171065493646,14.662756598240469
0.0,102.63929618768329,39.100684261974585,4.887585532746823,14.662756598240469,9.775171065493646,14.662756598240469
4.887585532746823,14.662756598240469,29.325513196480937,9.775171065493646,4.887585532746823,39.100684261974585,4.887585532746823
63.53861192570871,4.887585532746823,9.775171065493646,19.550342130987293,0.0,19.550342130987293,9.775171065493646
19.550342130987293,4.887585532746823,9.775171065493646,24.437927663734115,4.887585532746823,0.0,87.97653958944282
0.0,19.550342130987293,4.887585532746823,4.887585532746823,4.887585532746823,4.887585532746823,19.550342130987293
9.775171065493646,87.97653958944282,24.437927663734115,0.0,39.100684261974585,14.662756598240469,4.887585532746823
4.887585532746823,48.87585532746823,97.75171065493646,4.887585532746823,4.887585532746823,63.53861192570871,9.775171065493646
58.651026392961874,9.775171065493646,24.437927663734115,14.662756598240469,0.0,97.75171065493646,14.662756598240469
19.550342130987293,4.887585532746823,14.662756598240469,39.100684261974585,0.0,14.662756598240469,83.08895405669598
0.0,63.53861192570871,9.775171065493646,4.887585532746823,14.662756598240469,14.662756598240469,14.662756598240469
9.775171065493646,24.437927663734115,0.0,9.775171065493646,63.53861192570871,4.887585532746823,14.662756598240469
9.775171065493646,4.887585532746823,43.98826979472141,4.887585532746823,4.887585532746823,0.0,9.775171065493646
58.651026392961874,9.775171065493646,9.775171065493646,9.775171065493646,9.775171065493646,58.651026392961874,14.662756598240469
19.550342130987293,14.662756598240469,9.775171065493646,43.98826979472141,0.0,34.21309872922776,92.86412512218965
9.775171065493646,9.775171065493646,0.0,9.775171065493646,9.775171065493646,9.775171065493646,19.550342130987293
9.775171065493646,34.21309872922776,9.775171065493646,4.887585532746823,58.651026392961874,4.887585532746823,14.662756598240469
4.887585532746823,141.73998044965788,73.31378299120234,0.0,4.887585532746823,19.550342130987293,0.0
58.651026392961874,14.662756598240469,14.662756598240469,4.887585532746823,4.887585532746823,4.887585532746823,9.775171065493646
19.550342130987293,4.887585532746823,4.887585532746823,48.87585532746823,4.887585532746823,9.775171065493646,102.63929618768329
0.0,63.53861192570871,9.775171065493646,14.662756598240469,0.0,9.775171065493646,19.550342130987293
9.775171065493646,19.550342130987293,14.662756598240469,14.662756598240469,58.651026392961874,4.887585532746823,9.775171065493646
0.0,0.0,68.42619745845552,4.887585532746823,9.775171065493646,175.95307917888564,0.0
58.651026392961874,4.887585532746823,34.21309872922776,0.0,9.775171065493646,58.651026392961874,9.775171065493646
14.662756598240469,4.887585532746823,9.775171065493646,48.87585532746823,0.0,0.0,92.86412512218965
9.775171065493646,43.98826979472141,4.887585532746823,9.775171065493646,4.887585532746823,0.0,24.437927663734115
4.887585532746823,9.775171065493646,4.887585532746823,4.887585532746823,39.100684261974585,0.0,9.775171065493646
9.775171065493646,4.887585532746823,97.75171065493646,0.0,14.662756598240469,9.775171065493646,4.887585532746823
53.763440860215056,9.775171065493646,19.550342130987293,4.887585532746823,9.775171065493646,19.550342130987293,4.887585532746823
19.550342130987293,0.0,4.887585532746823,24.437927663734115,4.887585532746823,4.887585532746823,83.08895405669598
4.887585532746823,68.42619745845552,9.775171065493646,19.550342130987293,4.887585532746823,9.775171065493646,19.550342130987293
0.0,78.20136852394917,4.887585532746823,4.887585532746823,29.325513196480937,43.98826979472141,4.887585532746823
9.775171065493646,48.87585532746823,29.325513196480937,0.0,19.550342130987293,34.21309872922776,4.887585532746823
53.763440860215056,9.775171065493646,39.100684261974585,4.887585532746823,14.662756598240469,39.100684261974585,9.775171065493646
19.550342130987293,9.775171065493646,9.775171065493646,29.325513196480937,0.0,19.550342130987293,87.97653958944282
9.775171065493646,87.97653958944282,4.887585532746823,34.21309872922776,4.887585532746823,0.0,24.437927663734115
9.775171065493646,29.325513196480937,9.775171065493646,9.775171065493646,9.775171065493646,4.887585532746823,4.887585532746823
0.0,4.887585532746823,68.42619745845552,4.887585532746823,43.98826979472141,9.775171065493646,9.775171065493646
68.42619745845552,9.775171065493646,34.21309872922776,0.0,14.662756598240469,127.07722385141741,14.662756598240469
19.550342130987293,4.887585532746823,9.775171065493646,14.662756598240469,9.775171065493646,19.550342130987293,83.08895405669598
0.0,136.85239491691104,9.775171065493646,34.21309872922776,9.775171065493646,9.775171065493646,19.550342130987293
4.887585532746823,43.98826979472141,9.775171065493646,14.662756598240469,9.775171065493646,0.0,14.662756598240469
4.887585532746823,9.775171065493646,58.651026392961874,0.0,24.437927663734115,14.662756598240469,0.0
63.53861192570871,0.0,24.437927663734115,9.775171065493646,9.775171065493646,102.63929618768329,4.887585532746823
24.437927663734115,53.763440860215056,4.887585532746823,4.887585532746823,14.662756598240469,102.63929618768329,78.20136852394917
4.887585532746823,83.08895405669598,9.775171065493646,34.21309872922776,4.887585532746823,4.887585532746823,19.550342130987293
0.0,9.775171065493646,4.887585532746823,53.763440860215056,0.0,9.775171065493646,4.887585532746823
4.887585532746823,4.887585532746823,92.86412512218965,4.887585532746823,29.325513196480937,4.887585532746823,4.887585532746823
48.87585532746823,4.887585532746823,29.325513196480937,4.887585532746823,19.550342130987293,0.0,4.887585532746823
29.325513196480937,9.775171065493646,4.887585532746823,4.887585532746823,4.887585532746823,92.86412512218965,92.86412512218965
4.887585532746823,14.662756598240469,4.887585532746823,14.662756598240469,4.887585532746823,19.550342130987293,14.662756598240469
4.887585532746823,43.98826979472141,4.887585532746823,29.325513196480937,0.0,0.0,14.662756598240469
4.887585532746823,4.887585532746823,58.651026392961874,9.775171065493646,9.775171065493646,87.97653958944282,4.887585532746823
68.42619745845552,0.0,19.550342130987293,0.0,19.550342130987293,63.53861192570871,9.775171065493646
19.550342130987293,34.21309872922776,0.0,4.887585532746823,4.887585532746823,4.887585532746823,87.97653958944282
9.775171065493646,87.97653958944282,0.0,39.100684261974585,0.0,4.887585532746823,19.550342130987293
0.0,4.887585532746823,83.08895405669598,14.662756598240469,9.775171065493646,4.887585532746823,4.887585532746823
9.775171065493646,4.887585532746823,78.20136852394917,4.887585532746823,4.887585532746823,131.96480938416423,0.0
53.763440860215056,9.775171065493646,14.662756598240469,9.775171065493646,29.325513196480937,68.42619745845552,4.887585532746823
19.550342130987293,29.325513196480937,9.775171065493646,4.887585532746823,9.775171065493646,4.887585532746823,92.86412512218965
4.887585532746823,78.20136852394917,4.887585532746823,0.0,4.887585532746823,14.662756598240469,19.550342130987293
4.887585532746823,63.53861192570871,34.21309872922776,29.325513196480937,4.887585532746823,4.887585532746823,4.887585532746823
0.0,14.662756598240469,92.86412512218965,24.437927663734115,0.0,102.63929618768329,4.887585532746823
53.763440860215056,4.887585532746823,19.550342130987293,4.887585532746823,19.550342130987293,39.100684261974585,4.887585532746823
19.550342130987293,43.98826979472141,4.887585532746823,4.887585532746823,14.662756598240469,9.775171065493646,102.63929618768329
4.887585532746823,19.550342130987293,4.887585532746823,9.775171065493646,4.887585532746823,83.08895405669598,24.437927663734115
9.775171065493646,9.775171065493646,24.437927663734115,29.325513196480937,0.0,24.437927663734115,4.887585532746823
0.0,9.775171065493646,58.651026392961874,29.325513196480937,14.662756598240469,4.887585532746823,4.887585532746823
58.651026392961874,9.775171065493646,4.887585532746823,9.775171065493646,19.550342130987293,4.887585532746823,9.775171065493646
19.550342130987293,87.97653958944282,4.887585532746823,4.887585532746823,24.437927663734115,4.887585532746823,87.97653958944282
9.775171065493646,78.20136852394917,4.887585532746823,4.887585532746823,4.887585532746823,4.887585532746823,24.437927663734115
4.887585532746823,14.662756598240469,9.775171065493646,14.662756598240469,9.775171065493646,4.887585532746823,0.0
0.0,4.887585532746823,48.87585532746823,29.325513196480937,0.0,97.75171065493646,4.887585532746823
63.53861192570871,9.775171065493646,73.31378299120234,9.775171065493646,9.775171065493646,48.87585532746823,14.662756598240469
24.437927663734115,14.662756598240469,4.887585532746823,0.0,24.437927663734115,9.775171065493646,78.20136852394917
4.887585532746823,117.30205278592375,4.887585532746823,4.887585532746823,9.775171065493646,9.775171065493646,14.662756598240469
9.775171065493646,29.325513196480937,43.98826979472141,4.887585532746823,4.887585532746823,141.73998044965788,4.887585532746823
4.887585532746823,4.887585532746823,87.97653958944282,39.100684261974585,9.775171065493646,9.775171065493646,0.0
48.87585532746823,4.887585532746823,9.775171065493646,14.662756598240469,9.775171065493646,9.775171065493646,9.775171065493646
19.550342130987293,39.100684261974585,4.887585532746823,4.887585532746823,19.550342130987293,0.0,78.20136852394917
0.0,19.550342130987293,0.0,9.775171065493646,19.550342130987293,4.887585532746823,24.437927663734115
4.887585532746823,4.887585532746823,48.87585532746823,0.0,9.775171065493646,122.18963831867057,4.887585532746823
4.887585532746823,9.775171065493646,43.98826979472141,24.437927663734115,4.887585532746823,14.662756598240469,4.887585532746823
43.98826979472141,4.887585532746823,4.887585532746823,39.100684261974585,9.775171065493646,4.887585532746823,4.887585532746823
34.21309872922776,53.763440860215056,4.887585532746823,9.775171065493646,14.662756598240469,24.437927663734115,97.75171065493646
4.887585532746823,102.63929618768329,4.887585532746823,14.662756598240469,24.437927663734115,0.0,24.437927663734115
0.0,4.887585532746823,73.31378299120234,0.0,9.775171065493646,0.0,4.887585532746823
0.0,4.887585532746823,34.21309872922776,9.775171065493646,9.775171065493646,34.21309872922776,4.887585532746823
43.98826979472141,0.0,9.775171065493646,19.550342130987293,4.887585532746823,43.98826979472141,4.887585532746823
58.651026392961874,24.437927663734115,4.887585532746823,4.887585532746823,4.887585532746823,19.550342130987293,97.75171065493646
9.775171065493646,68.42619745845552,14.662756598240469,9.775171065493646,24.437927663734115,43.98826979472141,19.550342130987293
0.0,4.887585532746823,34.21309872922776,9.775171065493646,14.662756598240469,9.775171065493646,4.887585532746823
0.0,4.887585532746823,63.53861192570871,9.775171065493646,9.775171065493646,73.31378299120234,4.887585532746823
34.21309872922776,4.887585532746823,14.662756598240469,19.550342130987293,0.0,9.775171065493646,14.662756598240469
63.53861192570871,14.662756598240469,0.0,19.550342130987293,9.775171065493646,9.775171065493646,97.75171065493646
9.775171065493646,4.887585532746823,9.775171065493646,4.887585532746823,34.21309872922776,29.325513196480937,14.662756598240469
9.775171065493646,4.887585532746823,48.87585532746823,4.887585532746823,19.550342130987293,146.6275659824047,4.887585532746823
0.0,24.437927663734115,83.08895405669598,4.887585532746823,9.775171065493646,58.651026392961874,9.775171065493646
29.325513196480937,14.662756598240469,19.550342130987293,34.21309872922776,4.887585532746823,0.0,4.887585532746823
68.42619745845552,9.775171065493646,9.775171065493646,19.550342130987293,0.0,4.887585532746823,92.86412512218965
9.775171065493646,48.87585532746823,9.775171065493646,9.775171065493646,4.887585532746823,9.775171065493646,29.325513196480937
0.0,48.87585532746823,53.763440860215056,4.887585532746823,24.437927663734115,4.887585532746823,0.0
9.775171065493646,9.775171065493646,19.550342130987293,0.0,14.662756598240469,180.84066471163246,4.887585532746823
39.100684261974585,0.0,14.662756598240469,24.437927663734115,4.887585532746823,68.42619745845552,9.775171065493646
63.53861192570871,9.775171065493646,9.775171065493646,29.325513196480937,4.887585532746823,9.775171065493646,87.97653958944282
9.775171065493646,4.887585532746823,9.775171065493646,4.887585532746823,4.887585532746823,9.775171065493646,29.325513196480937
9.775171065493646,117.30205278592375,78.20136852394917,0.0,39.100684261974585,14.662756598240469,4.887585532746823
4.887585532746823,63.53861192570871,29.325513196480937,4.887585532746823,24.437927663734115,9.775171065493646,4.887585532746823
43.98826979472141,9.775171065493646,4.887585532746823,0.0,4.887585532746823,39.100684261974585,4.887585532746823
53.763440860215056,39.100684261974585,9.775171065493646,14.662756598240469,0.0,4.887585532746823,78.20136852394917
4.887585532746823,58.651026392961874,14.662756598240469,19.550342130987293,9.775171065493646,9.775171065493646,19.550342130987293
4.887585532746823,4.887585532746823,73.31378299120234,9.775171065493646,9.775171065493646,68.42619745845552,9.775171065493646
9.775171065493646,0.0,29.325513196480937,4.887585532746823,39.100684261974585,39.100684261974585,4.887585532746823
39.100684261974585,9.775171065493646,4.887585532746823,9.775171065493646,4.887585532746823,9.775171065493646,4.887585532746823
68.42619745845552,48.87585532746823,4.887585532746823,4.887585532746823,0.0,0.0,87.97653958944282
4.887585532746823,39.100684261974585,4.887585532746823,24.437927663734115,4.887585532746823,4.887585532746823,29.325513196480937
0.0,14.662756598240469,53.763440860215056,4.887585532746823,0.0,151.51515151515153,4.887585532746823
4.887585532746823,9.775171065493646,29.325513196480937,0.0,19.550342130987293,4.887585532746823,4.887585532746823
43.98826979472141,14.662756598240469,9.775171065493646,9.775171065493646,4.887585532746823,0.0,4.887585532746823
73.31378299120234,34.21309872922776,9.775171065493646,24.437927663734115,9.775171065493646,19.550342130987293,87.97653958944282
4.887585532746823,131.96480938416423,4.887585532746823,19.550342130987293,4.887585532746823,4.887585532746823,29.325513196480937
9.775171065493646,39.100684261974585,48.87585532746823,4.887585532746823,4.887585532746823,83.08895405669598,0.0
4.887585532746823,4.887585532746823,24.437927663734115,4.887585532746823,19.550342130987293,166.17790811339196,0.0
53.763440860215056,0.0,4.887585532746823,4.887585532746823,9.775171065493646,14.662756598240469,9.775171065493646
34.21309872922776,48.87585532746823,0.0,0.0,4.887585532746823,4.887585532746823,92.86412512218965
4.887585532746823,9.775171065493646,0.0,29.325513196480937,4.887585532746823,9.775171065493646,24.437927663734115
9.775171065493646,4.887585532746823,73.31378299120234,34.21309872922776,4.887585532746823,205.27859237536657,0.0
4.887585532746823,4.887585532746823,48.87585532746823,9.775171065493646,9.775171065493646,68.42619745845552,4.887585532746823
34.21309872922776,9.775171065493646,9.775171065493646,4.887585532746823,29.325513196480937,4.887585532746823,0.0
63.53861192570871,19.550342130987293,0.0,0.0,4.887585532746823,9.775171065493646,92.86412512218965
14.662756598240469,48.87585532746823,19.550342130987293,29.325513196480937,4.887585532746823,9.775171065493646,24.437927663734115
9.775171065493646,14.662756598240469,58.651026392961874,39.100684261974585,4.887585532746823,14.662756598240469,9.775171065493646
0.0,9.775171065493646,29.325513196480937,14.662756598240469,0.0,39.100684261974585,9.775171065493646
29.325513196480937,4.887585532746823,9.775171065493646,4.887585532746823,24.437927663734115,19.550342130987293,4.887585532746823
63.53861192570871,9.775171065493646,4.887585532746823,4.887585532746823,9.775171065493646,9.775171065493646,87.97653958944282
19.550342130987293,83.08895405669598,43.98826979472141,29.325513196480937,9.775171065493646,112.41446725317694,24.437927663734115
0.0,39.100684261974585,97.75171065493646,48.87585532746823,4.887585532746823,151.51515151515153,0.0
9.775171065493646,4.887585532746823,14.662756598240469,14.662756598240469,4.887585532746823,9.775171065493646,4.887585532746823
34.21309872922776,9.775171065493646,4.887585532746823,0.0,24.437927663734115,4.887585532746823,9.775171065493646
73.31378299120234,73.31378299120234,29.325513196480937,4.887585532746823,14.662756598240469,34.21309872922776,83.08895405669598
4.887585532746823,48.87585532746823,39.100684261974585,4.887585532746823,0.0,151.51515151515153,19.550342130987293
0.0,9.775171065493646,122.18963831867057,29.325513196480937,9.775171065493646,29.325513196480937,4.887585532746823
4.887585532746823,0.0,19.550342130987293,4.887585532746823,4.887585532746823,9.775171065493646,4.887585532746823
29.325513196480937,63.53861192570871,4.887585532746823,0.0,9.775171065493646,9.775171065493646,9.775171065493646
63.53861192570871,29.325513196480937,4.887585532746823,4.887585532746823,29.325513196480937,0.0,87.97653958944282
14.662756598240469,9.775171065493646,0.0,4.887585532746823,4.887585532746823,83.08895405669598,24.437927663734115
4.887585532746823,19.550342130987293,58.651026392961874,24.437927663734115,0.0,117.30205278592375,9.775171065493646
4.887585532746823,39.100684261974585,9.775171065493646,39.100684261974585,0.0,34.21309872922776,4.887585532746823
39.100684261974585,4.887585532746823,0.0,9.775171065493646,4.887585532746823,0.0,4.887585532746823
68.42619745845552,34.21309872922776,4.887585532746823,9.775171065493646,29.325513196480937,9.775171065493646,83.08895405669598
0.0,19.550342130987293,34.21309872922776,0.0,14.662756598240469,4.887585532746823,29.325513196480937
9.775171065493646,9.775171065493646,112.41446725317694,19.550342130987293,4.887585532746823,0.0,4.887585532746823
4.887585532746823,0.0,43.98826979472141,24.437927663734115,0.0,4.887585532746823,4.887585532746823
29.325513196480937,4.887585532746823,9.775171065493646,14.662756598240469,4.887585532746823,9.775171065493646,0.0
73.31378299120234,43.98826979472141,9.775171065493646,9.775171065493646,9.775171065493646,4.887585532746823,78.20136852394917
14.662756598240469,73.31378299120234,9.775171065493646,0.0,4.887585532746823,244.37927663734115,24.437927663734115
9.775171065493646,14.662756598240469,73.31378299120234,14.662756598240469,0.0,24.437927663734115,14.662756598240469
4.887585532746823,9.775171065493646,24.437927663734115,24.437927663734115,0.0,48.87585532746823,4.887585532746823
24.437927663734115,4.887585532746823,4.887585532746823,4.887585532746823,0.0,34.21309872922776,4.887585532746823
73.31378299120234,112.41446725317694,0.0,4.887585532746823,14.662756598240469,4.887585532746823,83.08895405669598
9.775171065493646,48.87585532746823,9.775171065493646,4.887585532746823,24.437927663734115,4.887585532746823,24.437927663734115
4.887585532746823,14.662756598240469,92.86412512218965,9.775171065493646,4.887585532746823,9.775171065493646,9.775171065493646
9.775171065493646,9.775171065493646,34.21309872922776,34.21309872922776,4.887585532746823,4.887585532746823,4.887585532746823
24.437927663734115,4.887585532746823,9.775171065493646,29.325513196480937,0.0,0.0,4.887585532746823
63.53861192570871,34.21309872922776,4.887585532746823,9.775171065493646,4.887585532746823,0.0,97.75171065493646
4.887585532746823,19.550342130987293,0.0,4.887585532746823,19.550342130987293,200.39100684261973,24.437927663734115
9.775171065493646,9.775171065493646,48.87585532746823,4.887585532746823,14.662756598240469,102.63929618768329,9.775171065493646
4.887585532746823,0.0,53.763440860215056,14.662756598240469,4.887585532746823,29.325513196480937,4.887585532746823
29.325513196480937,0.0,9.775171065493646,14.662756598240469,9.775171065493646,4.887585532746823,9.775171065493646
58.651026392961874,34.21309872922776,0.0,14.662756598240469,0.0,9.775171065493646,78.20136852394917
9.775171065493646,9.775171065493646,39.100684261974585,4.887585532746823,19.550342130987293,63.53861192570871,29.325513196480937
0.0,4.887585532746823,73.31378299120234,4.887585532746823,9.775171065493646,19.550342130987293,0.0
0.0,4.887585532746823,9.775171065493646,24.437927663734115,4.887585532746823,4.887585532746823,0.0
29.325513196480937,34.21309872922776,4.887585532746823,19.550342130987293,4.887585532746823,14.662756598240469,9.775171065493646
58.651026392961874,19.550342130987293,4.887585532746823,4.887585532746823,4.887585532746823,4.887585532746823,83.08895405669598
4.887585532746823,73.31378299120234,34.21309872922776,4.887585532746823,9.775171065493646,0.0,29.325513196480937
4.887585532746823,19.550342130987293,87.97653958944282,9.775171065493646,24.437927663734115,68.42619745845552,14.662756598240469
4.887585532746823,4.887585532746823,19.550342130987293,4.887585532746823,4.887585532746823,14.662756598240469,4.887585532746823
24.437927663734115,9.775171065493646,4.887585532746823,29.325513196480937,0.0,43.98826979472141,4.887585532746823
53.763440860215056,19.550342130987293,0.0,34.21309872922776,14.662756598240469,4.887585532746823,87.97653958944282
4.887585532746823,87.97653958944282,14.662756598240469,4.887585532746823,4.887585532746823,9.775171065493646,34.21309872922776
0.0,4.887585532746823,112.41446725317694,9.775171065493646,19.550342130987293,14.662756598240469,4.887585532746823
4.887585532746823,9.775171065493646,43.98826979472141,0.0,9.775171065493646,14.662756598240469,0.0
19.550342130987293,0.0,9.775171065493646,24.437927663734115,4.887585532746823,9.775171065493646,14.662756598240469
68.42619745845552,14.662756598240469,4.887585532746823,39.100684261974585,9.775171065493646,39.100684261974585,83.08895405669598
4.887585532746823,43.98826979472141,24.437927663734115,9.775171065493646,14.662756598240469,43.98826979472141,24.437927663734115
4.887585532746823,29.325513196480937,78.20136852394917,14.662756598240469,19.550342130987293,29.325513196480937,14.662756598240469
4.887585532746823,14.662756598240469,9.775171065493646,4.887585532746823,19.550342130987293,9.775171065493646,9.775171065493646
19.550342130987293,0.0,4.887585532746823,4.887585532746823,9.775171065493646,4.887585532746823,9.775171065493646
63.53861192570871,29.325513196480937,19.550342130987293,19.550342130987293,4.887585532746823,0.0,83.08895405669598
4.887585532746823,117.30205278592375,53.763440860215056,14.662756598240469,0.0,9.775171065493646,29.325513196480937
9.775171065493646,14.662756598240469,63.53861192570871,4.887585532746823,9.775171065493646,19.550342130987293,4.887585532746823
0.0,4.887585532746823,9.775171065493646,58.651026392961874,19.550342130987293,58.651026392961874,4.887585532746823
29.325513196480937,4.887585532746823,0.0,39.100684261974585,4.887585532746823,14.662756598240469,0.0
63.53861192570871,73.31378299120234,0.0,14.662756598240469,0.0,4.887585532746823,78.20136852394917
9.775171065493646,156.40273704789834,24.437927663734115,9.775171065493646,4.887585532746823,4.887585532746823,24.437927663734115
4.887585532746823,14.662756598240469,39.100684261974585,4.887585532746823,4.887585532746823,210.16617790811338,9.775171065493646
9.775171065493646,9.775171065493646,39.100684261974585,0.0,19.550342130987293,141.73998044965788,4.887585532746823
29.325513196480937,4.887585532746823,4.887585532746823,9.775171065493646,14.662756598240469,14.662756598240469,0.0
68.42619745845552,9.775171065493646,4.887585532746823,63.53861192570871,9.775171065493646,4.887585532746823,78.20136852394917
9.775171065493646,97.75171065493646,24.437927663734115,4.887585532746823,0.0,0.0,24.437927663734115
0.0,43.98826979472141,117.30205278592375,4.887585532746823,0.0,19.550342130987293,4.887585532746823
9.775171065493646,9.775171065493646,19.550342130987293,112.41446725317694,19.550342130987293,14.662756598240469,0.0
19.550342130987293,4.887585532746823,4.887585532746823,97.75171065493646,14.662756598240469,53.763440860215056,4.887585532746823
68.42619745845552,9.775171065493646,4.887585532746823,9.775171065493646,0.0,9.775171065493646,92.86412512218965
14.662756598240469,58.651026392961874,39.100684261974585,4.887585532746823,9.775171065493646,4.887585532746823,24.437927663734115
0.0,9.775171065493646,68.42619745845552,24.437927663734115,0.0,9.775171065493646,4.887585532746823
4.887585532746823,4.887585532746823,4.887585532746823,4.887585532746823,14.662756598240469,9.775171065493646,0.0
29.325513196480937,9.775171065493646,14.662756598240469,9.775171065493646,19.550342130987293,29.325513196480937,9.775171065493646
73.31378299120234,117.30205278592375,0.0,29.325513196480937,4.887585532746823,92.86412512218965,78.20136852394917
14.662756598240469,29.325513196480937,29.325513196480937,9.775171065493646,0.0,4.887585532746823,34.21309872922776
4.887585532746823,0.0,122.18963831867057,4.887585532746823,0.0,14.662756598240469,4.887585532746823
4.887585532746823,0.0,9.775171065493646,4.887585532746823,14.662756598240469,122.18963831867057,9.775171065493646
24.437927663734115,29.325513196480937,0.0,0.0,29.325513196480937,24.437927663734115,9.775171065493646
68.42619745845552,131.96480938416423,0.0,24.437927663734115,19.550342130987293,4.887585532746823,87.97653958944282
9.775171065493646,58.651026392961874,43.98826979472141,9.775171065493646,4.887585532746823,29.325513196480937,29.325513196480937
4.887585532746823,4.887585532746823,166.17790811339196,4.887585532746823,0.0,24.437927663734115,4.887585532746823
9.775171065493646,4.887585532746823,34.21309872922776,0.0,4.887585532746823,4.887585532746823,0.0
29.325513196480937,9.775171065493646,4.887585532746823,9.775171065493646,19.550342130987293,107.52688172043011,4.887585532746823
53.763440860215056,58.651026392961874,0.0,9.775171065493646,34.21309872922776,19.550342130987293,78.20136852394917
4.887585532746823,43.98826979472141,73.31378299120234,29.325513196480937,4.887585532746823,9.775171065493646,39.100684261974585
4.887585532746823,14.662756598240469,68.42619745845552,9.775171065493646,14.662756598240469,29.325513196480937,4.887585532746823
9.775171065493646,0.0,4.887585532746823,4.887585532746823,4.887585532746823,14.662756598240469,4.887585532746823
34.21309872922776,0.0,4.887585532746823,4.887585532746823,4.887585532746823,0.0,4.887585532746823
58.651026392961874,24.437927663734115,0.0,4.887585532746823,29.325513196480937,0.0,83.08895405669598
9.775171065493646,39.100684261974585,43.98826979472141,0.0,4.887585532746823,4.887585532746823,39.100684261974585
0.0,29.325513196480937,73.31378299120234,87.97653958944282,4.887585532746823,83.08895405669598,4.887585532746823
0.0,9.775171065493646,9.775171065493646,234.6041055718475,4.887585532746823,24.437927663734115,4.887585532746823
19.550342130987293,14.662756598240469,0.0,24.437927663734115,0.0,4.887585532746823,9.775171065493646
43.98826979472141,4.887585532746823,9.775171065493646,97.75171065493646,19.550342130987293,117.30205278592375,83.08895405669598
14.662756598240469,14.662756598240469,53.763440860215056,131.96480938416423,9.775171065493646,234.6041055718475,34.21309872922776
4.887585532746823,4.887585532746823,63.53861192570871,156.40273704789834,4.887585532746823,24.437927663734115,4.887585532746823
9.775171065493646,34.21309872922776,4.887585532746823,215.05376344086022,0.0,4.887585532746823,9.775171065493646
9.775171065493646,48.87585532746823,0.0,48.87585532746823,0.0,0.0,0.0
73.31378299120234,9.775171065493646,4.887585532746823,0.0,4.887585532746823,34.21309872922776,83.08895405669598
9.775171065493646,63.53861192570871,78.20136852394917,307.91788856304987,14.662756598240469,29.325513196480937,39.100684261974585
9.775171065493646,9.775171065493646,63.53861192570871,83.08895405669598,4.887585532746823,29.325513196480937,4.887585532746823
0.0,4.887585532746823,9.775171065493646,43.98826979472141,4.887585532746823,53.763440860215056,4.887585532746823
4.887585532746823,4.887585532746823,0.0,43.98826979472141,9.775171065493646,14.662756598240469,9.775171065493646
53.763440860215056,14.662756598240469,19.550342130987293,9.775171065493646,4.887585532746823,4.887585532746823,78.20136852394917
9.775171065493646,102.63929618768329,87.97653958944282,4.887585532746823,19.550342130987293,9.775171065493646,34.21309872922776
4.887585532746823,19.550342130987293,14.662756598240469,4.887585532746823,4.887585532746823,39.100684261974585,14.662756598240469
9.775171065493646,4.887585532746823,4.887585532746823,9.775171065493646,4.887585532746823,14.662756598240469,9.775171065493646
9.775171065493646,19.550342130987293,0.0,9.775171065493646,4.887585532746823,14.662756598240469,4.887585532746823
53.763440860215056,78.20136852394917,4.887585532746823,14.662756598240469,4.887585532746823,322.5806451612903,63.53861192570871
14.662756598240469,19.550342130987293,78.20136852394917,34.21309872922776,19.550342130987293,122.18963831867057,29.325513196480937
4.887585532746823,0.0,4.887585532746823,14.662756598240469,9.775171065493646,9.775171065493646,4.887585532746823
9.775171065493646,24.437927663734115,9.775171065493646,4.887585532746823,4.887585532746823,0.0,0.0
0.0,9.775171065493646,4.887585532746823,4.887585532746823,0.0,4.887585532746823,4.887585532746823
68.42619745845552,0.0,43.98826979472141,9.775171065493646,4.887585532746823,19.550342130987293,92.86412512218965
19.550342130987293,87.97653958944282,58.651026392961874,0.0,19.550342130987293,9.775171065493646,24.437927663734115
9.775171065493646,34.21309872922776,4.887585532746823,4.887585532746823,14.662756598240469,39.100684261974585,4.887585532746823
4.887585532746823,4.887585532746823,4.887585532746823,395.89442815249265,9.775171065493646,29.325513196480937,9.775171065493646
4.887585532746823,19.550342130987293,9.775171065493646,953.0791788856305,4.887585532746823,9.775171065493646,4.887585532746823
68.42619745845552,24.437927663734115,9.775171065493646,92.86412512218965,0.0,9.775171065493646,73.31378299120234
24.437927663734115,48.87585532746823,78.20136852394917,24.437927663734115,4.887585532746823,9.775171065493646,24.437927663734115
9.775171065493646,4.887585532746823,19.550342130987293,4.887585532746823,29.325513196480937,151.51515151515153,9.775171065493646
4.887585532746823,9.775171065493646,9.775171065493646,782.0136852394917,14.662756598240469,19.550342130987293,0.0
4.887585532746823,14.662756598240469,0.0,166.17790811339196,4.887585532746823,112.41446725317694,4.887585532746823
58.651026392961874,78.20136852394917,48.87585532746823,9.775171065493646,0.0,14.662756598240469,73.31378299120234
14.662756598240469,29.325513196480937,73.31378299120234,327.4682306940371,9.775171065493646,0.0,34.21309872922776
9.775171065493646,9.775171065493646,4.887585532746823,92.86412512218965,24.437927663734115,9.775171065493646,9.775171065493646
4.887585532746823,14.662756598240469,4.887585532746823,24.437927663734115,14.662756598240469,4.887585532746823,4.887585532746823
4.887585532746823,34.21309872922776,0.0,180.84066471163246,4.887585532746823,34.21309872922776,9.775171065493646
63.53861192570871,14.662756598240469,34.21309872922776,351.9061583577713,4.887585532746823,9.775171065493646,78.20136852394917
24.437927663734115,127.07722385141741,78.20136852394917,48.87585532746823,9.775171065493646,4.887585532746823,29.325513196480937
9.775171065493646,19.550342130987293,29.325513196480937,9.775171065493646,14.662756598240469,107.52688172043011,4.887585532746823
0.0,4.887585532746823,4.887585532746823,4.887585532746823,14.662756598240469,263.92961876832845,0.0
0.0,9.775171065493646,9.775171065493646,537.6344086021505,9.775171065493646,107.52688172043011,9.775171065493646
68.42619745845552,43.98826979472141,19.550342130987293,674.4868035190616,9.775171065493646,14.662756598240469,78.20136852394917
19.550342130987293,175.95307917888564,63.53861192570871,48.87585532746823,9.775171065493646,73.31378299120234,39.100684261974585
4.887585532746823,19.550342130987293,9.775171065493646,219.94134897360706,0.0,283.47996089931576,4.887585532746823
0.0,9.775171065493646,0.0,48.87585532746823,4.887585532746823,19.550342130987293,9.775171065493646
9.775171065493646,9.775171065493646,9.775171065493646,4.887585532746823,0.0,0.0,0.0
68.42619745845552,53.763440860215056,48.87585532746823,4.887585532746823,9.775171065493646,43.98826979472141,78.20136852394917
29.325513196480937,34.21309872922776,39.100684261974585,0.0,0.0,112.41446725317694,34.21309872922776
9.775171065493646,63.53861192570871,14.662756598240469,19.550342130987293,0.0,127.07722385141741,9.775171065493646
4.887585532746823,14.662756598240469,9.775171065493646,1168.1329423264906,24.437927663734115,19.550342130987293,4.887585532746823
0.0,9.775171065493646,9.775171065493646,68.42619745845552,4.887585532746823,4.887585532746823,0.0
63.53861192570871,4.887585532746823,39.100684261974585,9.775171065493646,14.662756598240469,48.87585532746823,73.31378299120234
14.662756598240469,4.887585532746823,87.97653958944282,513.1964809384165,4.887585532746823,24.437927663734115,43.98826979472141
4.887585532746823,4.887585532746823,4.887585532746823,1133.919843597263,9.775171065493646,102.63929618768329,9.775171065493646
0.0,9.775171065493646,4.887585532746823,102.63929618768329,14.662756598240469,73.31378299120234,9.775171065493646
4.887585532746823,9.775171065493646,4.887585532746823,24.437927663734115,24.437927663734115,131.96480938416423,9.775171065493646
68.42619745845552,68.42619745845552,34.21309872922776,1251.2218963831867,4.887585532746823,161.29032258064515,83.08895405669598
14.662756598240469,117.30205278592375,68.42619745845552,63.53861192570871,0.0,19.550342130987293,43.98826979472141
4.887585532746823,29.325513196480937,9.775171065493646,9.775171065493646,4.887585532746823,293.2551319648094,4.887585532746823
4.887585532746823,4.887585532746823,9.775171065493646,73.31378299120234,9.775171065493646,156.40273704789834,4.887585532746823
9.775171065493646,9.775171065493646,9.775171065493646,860.2150537634409,24.437927663734115,180.84066471163246,9.775171065493646
58.651026392961874,39.100684261974585,68.42619745845552,29.325513196480937,9.775171065493646,9.775171065493646,73.31378299120234
24.437927663734115,48.87585532746823,87.97653958944282,0.0,4.887585532746823,239.49169110459434,39.100684261974585
14.662756598240469,9.775171065493646,9.775171065493646,1730.2052785923754,9.775171065493646,278.5923753665689,9.775171065493646
4.887585532746823,9.775171065493646,4.887585532746823,122.18963831867057,9.775171065493646,24.437927663734115,9.775171065493646
9.775171065493646,0.0,4.887585532746823,9.775171065493646,24.437927663734115,92.86412512218965,4.887585532746823
48.87585532746823,34.21309872922776,48.87585532746823,43.98826979472141,9.775171065493646,131.96480938416423,73.31378299120234
14.662756598240469,141.73998044965788,24.437927663734115,948.1915933528836,0.0,19.550342130987293,39.100684261974585
9.775171065493646,14.662756598240469,4.887585532746823,312.8054740957967,4.887585532746823,24.437927663734115,4.887585532746823
4.887585532746823,9.775171065493646,4.887585532746823,19.550342130987293,0.0,161.29032258064515,4.887585532746823
9.775171065493646,9.775171065493646,0.0,190.6158357771261,14.662756598240469,63.53861192570871,9.775171065493646
63.53861192570871,34.21309872922776,43.98826979472141,708.6999022482894,24.437927663734115,200.39100684261973,78.20136852394917
19.550342130987293,34.21309872922776,24.437927663734115,29.325513196480937,4.887585532746823,288.36754643206257,43.98826979472141
9.775171065493646,9.775171065493646,4.887585532746823,420.33235581622677,0.0,43.98826979472141,9.775171065493646
0.0,14.662756598240469,0.0,312.8054740957967,4.887585532746823,0.0,4.887585532746823
14.662756598240469,195.50342130987292,4.887585532746823,948.1915933528836,4.887585532746823,298.14271749755625,4.887585532746823
63.53861192570871,24.437927663734115,34.21309872922776,39.100684261974585,29.325513196480937,131.96480938416423,68.42619745845552
24.437927663734115,19.550342130987293,73.31378299120234,576.7350928641251,19.550342130987293,58.651026392961874,39.100684261974585
9.775171065493646,14.662756598240469,19.550342130987293,19.550342130987293,14.662756598240469,606.0606060606061,9.775171065493646
0.0,0.0,9.775171065493646,166.17790811339196,4.887585532746823,239.49169110459434,0.0
4.887585532746823,4.887585532746823,4.887585532746823,478.9833822091887,0.0,83.08895405669598,4.887585532746823
58.651026392961874,151.51515151515153,53.763440860215056,889.5405669599219,29.325513196480937,298.14271749755625,73.31378299120234
24.437927663734115,63.53861192570871,24.437927663734115,190.6158357771261,24.437927663734115,29.325513196480937,34.21309872922776
4.887585532746823,4.887585532746823,9.775171065493646,14.662756598240469,0.0,48.87585532746823,9.775171065493646
4.887585532746823,0.0,0.0,899.3157380254155,0.0,107.52688172043011,4.887585532746823
4.887585532746823,0.0,4.887585532746823,733.1378299120234,4.887585532746823,151.51515151515153,0.0
63.53861192570871,29.325513196480937,9.775171065493646,29.325513196480937,14.662756598240469,48.87585532746823,63.53861192570871
24.437927663734115,58.651026392961874,63.53861192570871,4.887585532746823,24.437927663734115,210.16617790811338,48.87585532746823
9.775171065493646,19.550342130987293,4.887585532746823,141.73998044965788,9.775171065493646,273.7047898338221,4.887585532746823
0.0,0.0,4.887585532746823,483.8709677419355,0.0,24.437927663734115,9.775171065493646
0.0,4.887585532746823,0.0,107.52688172043011,4.887585532746823,136.85239491691104,4.887585532746823
53.763440860215056,14.662756598240469,14.662756598240469,904.2033235581623,4.887585532746823,210.16617790811338,78.20136852394917
19.550342130987293,92.86412512218965,73.31378299120234,146.6275659824047,19.550342130987293,190.6158357771261,14.662756598240469
9.775171065493646,9.775171065493646,9.775171065493646,249.26686217008796,4.887585532746823,782.0136852394917,9.775171065493646
4.887585532746823,0.0,0.0,14.662756598240469,4.887585532746823,29.325513196480937,0.0
9.775171065493646,34.21309872922776,0.0,488.7585532746823,9.775171065493646,73.31378299120234,9.775171065493646
68.42619745845552,29.325513196480937,53.763440860215056,43.98826979472141,0.0,131.96480938416423,87.97653958944282
24.437927663734115,53.763440860215056,29.325513196480937,1016.6177908113393,14.662756598240469,640.2737047898338,19.550342130987293
4.887585532746823,4.887585532746823,9.775171065493646,312.8054740957967,19.550342130987293,166.17790811339196,4.887585532746823
4.887585532746823,29.325513196480937,0.0,244.37927663734115,9.775171065493646,180.84066471163246,9.775171065493646
4.887585532746823,4.887585532746823,9.775171065493646,307.91788856304987,9.775171065493646,513.1964809384165,14.662756598240469
43.98826979472141,107.52688172043011,53.763440860215056,83.08895405669598,9.775171065493646,303.03030303030306,97.75171065493646
34.21309872922776,78.20136852394917,29.325513196480937,190.6158357771261,24.437927663734115,474.0957966764418,19.550342130987293
4.887585532746823,19.550342130987293,14.662756598240469,19.550342130987293,24.437927663734115,151.51515151515153,9.775171065493646
0.0,4.887585532746823,9.775171065493646,610.9481915933529,4.887585532746823,303.03030303030306,0.0
4.887585532746823,0.0,4.887585532746823,307.91788856304987,4.887585532746823,29.325513196480937,19.550342130987293
29.325513196480937,24.437927663734115,29.325513196480937,48.87585532746823,0.0,83.08895405669598,87.97653958944282
63.53861192570871,43.98826979472141,87.97653958944282,659.824046920821,9.775171065493646,9.775171065493646,24.437927663734115
9.775171065493646,19.550342130987293,14.662756598240469,234.6041055718475,29.325513196480937,0.0,9.775171065493646
9.775171065493646,4.887585532746823,4.887585532746823,381.2316715542522,19.550342130987293,606.0606060606061,4.887585532746823
4.887585532746823,29.325513196480937,9.775171065493646,24.437927663734115,9.775171065493646,161.29032258064515,4.887585532746823
34.21309872922776,83.08895405669598,24.437927663734115,361.6813294232649,9.775171065493646,332.35581622678393,87.97653958944282
58.651026392961874,34.21309872922776,68.42619745845552,249.26686217008796,4.887585532746823,29.325513196480937,19.550342130987293
9.775171065493646,4.887585532746823,14.662756598240469,239.49169110459434,19.550342130987293,53.763440860215056,4.887585532746823
4.887585532746823,4.887585532746823,0.0,92.86412512218965,9.775171065493646,1549.364613880743,0.0
9.775171065493646,24.437927663734115,9.775171065493646,43.98826979472141,0.0,215.05376344086022,4.887585532746823
48.87585532746823,58.651026392961874,24.437927663734115,312.8054740957967,0.0,14.662756598240469,92.86412512218965
48.87585532746823,92.86412512218965,48.87585532746823,180.84066471163246,4.887585532746823,141.73998044965788,29.325513196480937
4.887585532746823,24.437927663734115,0.0,68.42619745845552,4.887585532746823,464.3206256109482,4.887585532746823
4.887585532746823,4.887585532746823,9.775171065493646,244.37927663734115,14.662756598240469,312.8054740957967,0.0
9.775171065493646,4.887585532746823,0.0,131.96480938416423,14.662756598240469,254.15444770283483,9.775171065493646
63.53861192570871,34.21309872922776,29.325513196480937,68.42619745845552,9.775171065493646,615.8357771260997,92.86412512218965
24.437927663734115,48.87585532746823,68.42619745845552,58.651026392961874,0.0,601.1730205278593,24.437927663734115
4.887585532746823,43.98826979472141,14.662756598240469,210.16617790811338,4.887585532746823,48.87585532746823,4.887585532746823
0.0,19.550342130987293,9.775171065493646,83.08895405669598,4.887585532746823,356.7937438905181,9.775171065493646
4.887585532746823,4.887585532746823,4.887585532746823,312.8054740957967,0.0,39.100684261974585,4.887585532746823
63.53861192570871,53.763440860215056,4.887585532746823,293.2551319648094,4.887585532746823,87.97653958944282,83.08895405669598
19.550342130987293,14.662756598240469,68.42619745845552,24.437927663734115,4.887585532746823,557.1847507331378,29.325513196480937
0.0,4.887585532746823,9.775171065493646,19.550342130987293,0.0,586.5102639296188,9.775171065493646
9.775171065493646,9.775171065493646,4.887585532746823,24.437927663734115,34.21309872922776,430.10752688172045,0.0
9.775171065493646,4.887585532746823,4.887585532746823,14.662756598240469,34.21309872922776,552.297165200391,9.775171065493646
48.87585532746823,58.651026392961874,39.100684261974585,454.54545454545456,9.775171065493646,537.6344086021505,92.86412512218965
24.437927663734115,43.98826979472141,53.763440860215056,219.94134897360706,0.0,53.763440860215056,14.662756598240469
9.775171065493646,14.662756598240469,14.662756598240469,29.325513196480937,4.887585532746823,1818.1818181818182,4.887585532746823
4.887585532746823,9.775171065493646,4.887585532746823,259.04203323558164,9.775171065493646,83.08895405669598,4.887585532746823
4.887585532746823,53.763440860215056,9.775171065493646,19.550342130987293,14.662756598240469,395.89442815249265,14.662756598240469
58.651026392961874,48.87585532746823,29.325513196480937,913.9784946236559,14.662756598240469,156.40273704789834,63.53861192570871
24.437927663734115,24.437927663734115,127.07722385141741,97.75171065493646,4.887585532746823,738.0254154447704,14.662756598240469
0.0,4.887585532746823,19.550342130987293,24.437927663734115,14.662756598240469,312.8054740957967,4.887585532746823
9.775171065493646,9.775171065493646,0.0,156.40273704789834,0.0,29.325513196480937,0.0
4.887585532746823,0.0,0.0,14.662756598240469,19.550342130987293,591.3978494623656,14.662756598240469
58.651026392961874,9.775171065493646,4.887585532746823,4.887585532746823,24.437927663734115,244.37927663734115,83.08895405669598
39.100684261974585,4.887585532746823,58.651026392961874,322.5806451612903,4.887585532746823,454.54545454545456,24.437927663734115
9.775171065493646,4.887585532746823,34.21309872922776,146.6275659824047,9.775171065493646,29.325513196480937,4.887585532746823
4.887585532746823,9.775171065493646,4.887585532746823,146.6275659824047,9.775171065493646,518.0840664711633,4.887585532746823
4.887585532746823,146.6275659824047,0.0,87.97653958944282,14.662756598240469,141.73998044965788,4.887585532746823
58.651026392961874,107.52688172043011,48.87585532746823,786.9012707722385,24.437927663734115,474.0957966764418,92.86412512218965
24.437927663734115,14.662756598240469,48.87585532746823,39.100684261974585,9.775171065493646,63.53861192570871,19.550342130987293
0.0,4.887585532746823,4.887585532746823,518.0840664711633,9.775171065493646,547.4095796676442,9.775171065493646
9.775171065493646,9.775171065493646,4.887585532746823,151.51515151515153,4.887585532746823,1075.268817204301,4.887585532746823
0.0,9.775171065493646,4.887585532746823,322.5806451612903,24.437927663734115,224.82893450635387,0.0
58.651026392961874,68.42619745845552,39.100684261974585,48.87585532746823,48.87585532746823,215.05376344086022,92.86412512218965
24.437927663734115,39.100684261974585,34.21309872922776,171.0654936461388,4.887585532746823,288.36754643206257,19.550342130987293
4.887585532746823,4.887585532746823,9.775171065493646,171.0654936461388,4.887585532746823,24.437927663734115,9.775171065493646
4.887585532746823,4.887585532746823,4.887585532746823,24.437927663734115,4.887585532746823,288.36754643206257,0.0
9.775171065493646,9.775171065493646,9.775171065493646,87.97653958944282,9.775171065493646,1446.7253176930597,4.887585532746823
43.98826979472141,58.651026392961874,43.98826979472141,180.84066471163246,43.98826979472141,356.7937438905181,83.08895405669598
53.763440860215056,268.81720430107526,68.42619745845552,24.437927663734115,29.325513196480937,747.800586510264,34.21309872922776
9.775171065493646,24.437927663734115,4.887585532746823,127.07722385141741,4.887585532746823,180.84066471163246,4.887585532746823
4.887585532746823,9.775171065493646,4.887585532746823,68.42619745845552,9.775171065493646,987.2922776148582,9.775171065493646
9.775171065493646,9.775171065493646,4.887585532746823,107.52688172043011,0.0,107.52688172043011,9.775171065493646
48.87585532746823,97.75171065493646,24.437927663734115,180.84066471163246,19.550342130987293,1089.9315738025416,83.08895405669598
19.550342130987293,180.84066471163246,63.53861192570871,34.21309872922776,19.550342130987293,73.31378299120234,24.437927663734115
4.887585532746823,34.21309872922776,4.887585532746823,303.03030303030306,9.775171065493646,131.96480938416423,0.0
4.887585532746823,9.775171065493646,4.887585532746823,249.26686217008796,4.887585532746823,865.1026392961877,4.887585532746823
0.0,78.20136852394917,4.887585532746823,14.662756598240469,14.662756598240469,708.6999022482894,9.775171065493646
43.98826979472141,190.6158357771261,14.662756598240469,146.6275659824047,92.86412512218965,273.7047898338221,97.75171065493646
53.763440860215056,14.662756598240469,63.53861192570871,268.81720430107526,39.100684261974585,298.14271749755625,19.550342130987293
14.662756598240469,9.775171065493646,39.100684261974585,772.238514173998,4.887585532746823,107.52688172043011,9.775171065493646
0.0,0.0,4.887585532746823,469.208211143695,9.775171065493646,9.775171065493646,4.887585532746823
4.887585532746823,92.86412512218965,9.775171065493646,122.18963831867057,4.887585532746823,625.6109481915934,9.775171065493646
58.651026392961874,29.325513196480937,34.21309872922776,9.775171065493646,19.550342130987293,718.475073313783,87.97653958944282
19.550342130987293,0.0,78.20136852394917,200.39100684261973,19.550342130987293,141.73998044965788,29.325513196480937
4.887585532746823,4.887585532746823,4.887585532746823,107.52688172043011,9.775171065493646,307.91788856304987,14.662756598240469
0.0,9.775171065493646,4.887585532746823,195.50342130987292,4.887585532746823,200.39100684261973,4.887585532746823
4.887585532746823,43.98826979472141,19.550342130987293,9.775171065493646,4.887585532746823,68.42619745845552,0.0
58.651026392961874,68.42619745845552,39.100684261974585,29.325513196480937,14.662756598240469,288.36754643206257,87.97653958944282
24.437927663734115,9.775171065493646,73.31378299120234,425.2199413489736,19.550342130987293,24.437927663734115,24.437927663734115
4.887585532746823,0.0,9.775171065493646,166.17790811339196,9.775171065493646,9.775171065493646,9.775171065493646
4.887585532746823,63.53861192570871,4.887585532746823,19.550342130987293,4.887585532746823,136.85239491691104,4.887585532746823
0.0,63.53861192570871,0.0,102.63929618768329,0.0,650.0488758553274,9.775171065493646
53.763440860215056,9.775171065493646,48.87585532746823,503.42130987292273,4.887585532746823,92.86412512218965,73.31378299120234
24.437927663734115,9.775171065493646,58.651026392961874,48.87585532746823,39.100684261974585,782.0136852394917,39.100684261974585
4.887585532746823,34.21309872922776,9.775171065493646,9.775171065493646,14.662756598240469,68.42619745845552,9.775171065493646
0.0,29.325513196480937,4.887585532746823,146.6275659824047,4.887585532746823,4.887585532746823,4.887585532746823
0.0,0.0,9.775171065493646,92.86412512218965,4.887585532746823,14.662756598240469,14.662756598240469
48.87585532746823,24.437927663734115,58.651026392961874,131.96480938416423,4.887585532746823,615.8357771260997,83.08895405669598
39.100684261974585,273.7047898338221,39.100684261974585,9.775171065493646,24.437927663734115,259.04203323558164,29.325513196480937
9.775171065493646,39.100684261974585,4.887585532746823,562.0723362658846,14.662756598240469,43.98826979472141,0.0
0.0,9.775171065493646,4.887585532746823,19.550342130987293,4.887585532746823,273.7047898338221,0.0
0.0,0.0,9.775171065493646,909.0909090909091,9.775171065493646,87.97653958944282,9.775171065493646
48.87585532746823,9.775171065493646,34.21309872922776,215.05376344086022,0.0,356.7937438905181,97.75171065493646
29.325513196480937,107.52688172043011,58.651026392961874,606.0606060606061,19.550342130987293,356.7937438905181,34.21309872922776
9.775171065493646,122.18963831867057,9.775171065493646,63.53861192570871,24.437927663734115,102.63929618768329,4.887585532746823
9.775171065493646,601.1730205278593,0.0,391.00684261974584,14.662756598240469,14.662756598240469,4.887585532746823
4.887585532746823,39.100684261974585,9.775171065493646,200.39100684261973,4.887585532746823,522.9716520039101,14.662756598240469
48.87585532746823,4.887585532746823,53.763440860215056,4.887585532746823,9.775171065493646,268.81720430107526,87.97653958944282
29.325513196480937,439.8826979472141,34.21309872922776,738.0254154447704,0.0,102.63929618768329,34.21309872922776
4.887585532746823,992.179863147605,14.662756598240469,87.97653958944282,34.21309872922776,48.87585532746823,14.662756598240469
4.887585532746823,53.763440860215056,4.887585532746823,141.73998044965788,14.662756598240469,9.775171065493646,4.887585532746823
4.887585532746823,444.77028347996094,14.662756598240469,68.42619745845552,9.775171065493646,288.36754643206257,4.887585532746823
48.87585532746823,782.0136852394917,68.42619745845552,83.08895405669598,9.775171065493646,571.8475073313783,78.20136852394917
29.325513196480937,39.100684261974585,24.437927663734115,34.21309872922776,4.887585532746823,117.30205278592375,29.325513196480937
4.887585532746823,19.550342130987293,9.775171065493646,117.30205278592375,29.325513196480937,347.0185728250244,4.887585532746823
0.0,283.47996089931576,0.0,215.05376344086022,9.775171065493646,742.9130009775172,9.775171065493646
4.887585532746823,48.87585532746823,4.887585532746823,24.437927663734115,0.0,322.5806451612903,9.775171065493646
53.763440860215056,9.775171065493646,48.87585532746823,9.775171065493646,4.887585532746823,43.98826979472141,83.08895405669598
24.437927663734115,4.887585532746823,48.87585532746823,327.4682306940371,4.887585532746823,9.775171065493646,29.325513196480937
9.775171065493646,200.39100684261973,4.887585532746823,87.97653958944282,14.662756598240469,518.0840664711633,4.887585532746823
4.887585532746823,83.08895405669598,4.887585532746823,63.53861192570871,48.87585532746823,371.4565004887586,4.887585532746823
0.0,48.87585532746823,9.775171065493646,39.100684261974585,9.775171065493646,97.75171065493646,9.775171065493646
48.87585532746823,29.325513196480937,63.53861192570871,78.20136852394917,0.0,34.21309872922776,87.97653958944282
24.437927663734115,9.775171065493646,14.662756598240469,190.6158357771261,9.775171065493646,166.17790811339196,34.21309872922776
9.775171065493646,4.887585532746823,4.887585532746823,92.86412512218965,14.662756598240469,63.53861192570871,9.775171065493646
4.887585532746823,0.0,9.775171065493646,195.50342130987292,34.21309872922776,200.39100684261973,0.0
9.775171065493646,9.775171065493646,9.775171065493646,43.98826979472141,9.775171065493646,166.17790811339196,9.775171065493646
58.651026392961874,0.0,39.100684261974585,34.21309872922776,4.887585532746823,215.05376344086022,87.97653958944282
24.437927663734115,9.775171065493646,29.325513196480937,263.92961876832845,9.775171065493646,1173.0205278592375,19.550342130987293
4.887585532746823,9.775171065493646,4.887585532746823,29.325513196480937,4.887585532746823,58.651026392961874,4.887585532746823
9.775171065493646,376.3440860215054,9.775171065493646,9.775171065493646,34.21309872922776,9.775171065493646,9.775171065493646
0.0,1089.9315738025416,4.887585532746823,689.149560117302,9.775171065493646,923.7536656891496,4.887585532746823
0.0,53.763440860215056,53.763440860215056,166.17790811339196,4.887585532746823,107.52688172043011,83.08895405669598
0.0,58.651026392961874,24.437927663734115,53.763440860215056,9.775171065493646,19.550342130987293,24.437927663734115
39.100684261974585,4.887585532746823,4.887585532746823,254.15444770283483,9.775171065493646,141.73998044965788,4.887585532746823
0.0,171.0654936461388,4.887585532746823,43.98826979472141,14.662756598240469,219.94134897360706,4.887585532746823
4.887585532746823,263.92961876832845,4.887585532746823,185.7282502443793,29.325513196480937,29.325513196480937,9.775171065493646
83.08895405669598,58.651026392961874,19.550342130987293,166.17790811339196,4.887585532746823,146.6275659824047,68.42619745845552
327.4682306940371,9.775171065493646,19.550342130987293,376.3440860215054,4.887585532746823,4.887585532746823,29.325513196480937
58.651026392961874,29.325513196480937,4.887585532746823,48.87585532746823,0.0,9.775171065493646,9.775171065493646
4.887585532746823,0.0,4.887585532746823,219.94134897360706,0.0,92.86412512218965,4.887585532746823
4.887585532746823,9.775171065493646,9.775171065493646,73.31378299120234,24.437927663734115,586.5102639296188,9.775171065493646
43.98826979472141,4.887585532746823,14.662756598240469,43.98826979472141,9.775171065493646,87.97653958944282,87.97653958944282
14.662756598240469,449.65786901270775,34.21309872922776,381.2316715542522,4.887585532746823,87.97653958944282,29.325513196480937
0.0,195.50342130987292,146.6275659824047,175.95307917888564,0.0,557.1847507331378,9.775171065493646
4.887585532746823,68.42619745845552,87.97653958944282,117.30205278592375,24.437927663734115,107.52688172043011,9.775171065493646
4.887585532746823,391.00684261974584,9.775171065493646,464.3206256109482,14.662756598240469,131.96480938416423,4.887585532746823
24.437927663734115,78.20136852394917,9.775171065493646,83.08895405669598,14.662756598240469,293.2551319648094,92.86412512218965
63.53861192570871,136.85239491691104,4.887585532746823,102.63929618768329,4.887585532746823,87.97653958944282,29.325513196480937
0.0,312.8054740957967,34.21309872922776,9.775171065493646,14.662756598240469,259.04203323558164,0.0
4.887585532746823,215.05376344086022,195.50342130987292,4.887585532746823,9.775171065493646,14.662756598240469,4.887585532746823
4.887585532746823,48.87585532746823,24.437927663734115,87.97653958944282,9.775171065493646,381.2316715542522,4.887585532746823
43.98826979472141,4.887585532746823,0.0,63.53861192570871,19.550342130987293,171.0654936461388,83.08895405669598
58.651026392961874,0.0,185.7282502443793,14.662756598240469,14.662756598240469,29.325513196480937,34.21309872922776
9.775171065493646,180.84066471163246,127.07722385141741,68.42619745845552,0.0,259.04203323558164,9.775171065493646
0.0,39.100684261974585,9.775171065493646,454.54545454545456,4.887585532746823,87.97653958944282,4.887585532746823
4.887585532746823,405.6695992179863,9.775171065493646,107.52688172043011,4.887585532746823,127.07722385141741,4.887585532746823
34.21309872922776,39.100684261974585,107.52688172043011,29.325513196480937,24.437927663734115,112.41446725317694,87.97653958944282
43.98826979472141,14.662756598240469,9.775171065493646,43.98826979472141,0.0,34.21309872922776,29.325513196480937
14.662756598240469,591.3978494623656,9.775171065493646,83.08895405669598,0.0,210.16617790811338,14.662756598240469
9.775171065493646,166.17790811339196,239.49169110459434,73.31378299120234,4.887585532746823,244.37927663734115,9.775171065493646
0.0,9.775171065493646,371.4565004887586,24.437927663734115,9.775171065493646,87.97653958944282,4.887585532746823
4.887585532746823,772.238514173998,449.65786901270775,92.86412512218965,34.21309872922776,200.39100684261973,83.08895405669598
68.42619745845552,210.16617790811338,24.437927663734115,337.2434017595308,9.775171065493646,136.85239491691104,29.325513196480937
63.53861192570871,19.550342130987293,4.887585532746823,29.325513196480937,9.775171065493646,34.21309872922776,0.0
63.53861192570871,9.775171065493646,14.662756598240469,19.550342130987293,4.887585532746823,254.15444770283483,0.0
102.63929618768329,9.775171065493646,205.27859237536657,34.21309872922776,0.0,224.82893450635387,4.887585532746823
63.53861192570871,48.87585532746823,317.6930596285435,307.91788856304987,24.437927663734115,14.662756598240469,83.08895405669598
4.887585532746823,112.41446725317694,151.51515151515153,161.29032258064515,19.550342130987293,24.437927663734115,34.21309872922776
9.775171065493646,19.550342130987293,9.775171065493646,224.82893450635387,14.662756598240469,29.325513196480937,9.775171065493646
9.775171065493646,9.775171065493646,9.775171065493646,58.651026392961874,0.0,244.37927663734115,4.887585532746823
9.775171065493646,0.0,0.0,24.437927663734115,19.550342130987293,151.51515151515153,4.887585532746823
9.775171065493646,777.1260997067449,0.0,4.887585532746823,9.775171065493646,117.30205278592375,92.86412512218965
4.887585532746823,87.97653958944282,4.887585532746823,469.208211143695,9.775171065493646,14.662756598240469,39.100684261974585
4.887585532746823,29.325513196480937,537.6344086021505,34.21309872922776,9.775171065493646,117.30205278592375,9.775171065493646
34.21309872922776,4.887585532746823,48.87585532746823,278.5923753665689,4.887585532746823,34.21309872922776,4.887585532746823
9.775171065493646,34.21309872922776,4.887585532746823,83.08895405669598,0.0,249.26686217008796,4.887585532746823
53.763440860215056,151.51515151515153,430.10752688172045,34.21309872922776,9.775171065493646,283.47996089931576,87.97653958944282
733.1378299120234,273.7047898338221,205.27859237536657,9.775171065493646,24.437927663734115,48.87585532746823,29.325513196480937
161.29032258064515,185.7282502443793,14.662756598240469,29.325513196480937,19.550342130987293,87.97653958944282,4.887585532746823
14.662756598240469,19.550342130987293,156.40273704789834,151.51515151515153,9.775171065493646,4.887585532746823,9.775171065493646
0.0,4.887585532746823,136.85239491691104,161.29032258064515,14.662756598240469,459.4330400782014,9.775171065493646
39.100684261974585,122.18963831867057,9.775171065493646,9.775171065493646,0.0,102.63929618768329,87.97653958944282
9.775171065493646,43.98826979472141,4.887585532746823,244.37927663734115,19.550342130987293,131.96480938416423,39.100684261974585
4.887585532746823,4.887585532746823,625.6109481915934,102.63929618768329,29.325513196480937,9.775171065493646,4.887585532746823
826.0019550342131,166.17790811339196,190.6158357771261,48.87585532746823,4.887585532746823,459.4330400782014,0.0
73.31378299120234,175.95307917888564,19.550342130987293,29.325513196480937,4.887585532746823,48.87585532746823,0.0
4.887585532746823,19.550342130987293,4.887585532746823,9.775171065493646,4.887585532746823,0.0,83.08895405669598
34.21309872922776,9.775171065493646,249.26686217008796,263.92961876832845,4.887585532746823,92.86412512218965,39.100684261974585
439.8826979472141,0.0,386.119257086999,127.07722385141741,19.550342130987293,78.20136852394917,4.887585532746823
430.10752688172045,4.887585532746823,29.325513196480937,34.21309872922776,4.887585532746823,4.887585532746823,4.887585532746823
29.325513196480937,547.4095796676442,9.775171065493646,9.775171065493646,4.887585532746823,625.6109481915934,9.775171065493646
4.887585532746823,63.53861192570871,430.10752688172045,215.05376344086022,9.775171065493646,312.8054740957967,87.97653958944282
127.07722385141741,4.887585532746823,73.31378299120234,303.03030303030306,4.887585532746823,24.437927663734115,34.21309872922776
156.40273704789834,83.08895405669598,58.651026392961874,39.100684261974585,24.437927663734115,58.651026392961874,14.662756598240469
151.51515151515153,596.2854349951125,73.31378299120234,9.775171065493646,9.775171065493646,9.775171065493646,9.775171065493646
68.42619745845552,68.42619745845552,9.775171065493646,171.0654936461388,4.887585532746823,29.325513196480937,4.887585532746823
43.98826979472141,4.887585532746823,9.775171065493646,29.325513196480937,0.0,171.0654936461388,78.20136852394917
29.325513196480937,1129.032258064516,24.437927663734115,9.775171065493646,0.0,166.17790811339196,34.21309872922776
39.100684261974585,332.35581622678393,0.0,532.7468230694037,29.325513196480937,14.662756598240469,14.662756598240469
161.29032258064515,48.87585532746823,136.85239491691104,24.437927663734115,34.21309872922776,464.3206256109482,4.887585532746823
263.92961876832845,9.775171065493646,488.7585532746823,156.40273704789834,4.887585532746823,146.6275659824047,4.887585532746823
19.550342130987293,9.775171065493646,34.21309872922776,29.325513196480937,9.775171065493646,19.550342130987293,78.20136852394917
4.887585532746823,640.2737047898338,14.662756598240469,43.98826979472141,4.887585532746823,855.327468230694,39.100684261974585
48.87585532746823,508.30889540566966,254.15444770283483,342.1309872922776,19.550342130987293,43.98826979472141,9.775171065493646
14.662756598240469,87.97653958944282,127.07722385141741,29.325513196480937,34.21309872922776,4.887585532746823,0.0
210.16617790811338,117.30205278592375,9.775171065493646,151.51515151515153,4.887585532746823,34.21309872922776,4.887585532746823
83.08895405669598,78.20136852394917,4.887585532746823,127.07722385141741,4.887585532746823,376.3440860215054,73.31378299120234
166.17790811339196,9.775171065493646,434.99511241446726,19.550342130987293,0.0,34.21309872922776,39.100684261974585
9.775171065493646,4.887585532746823,439.8826979472141,4.887585532746823,4.887585532746823,151.51515151515153,14.662756598240469
107.52688172043011,0.0,24.437927663734115,107.52688172043011,34.21309872922776,19.550342130987293,4.887585532746823
1099.7067448680352,620.7233626588466,425.2199413489736,185.7282502443793,34.21309872922776,215.05376344086022,9.775171065493646
48.87585532746823,434.99511241446726,48.87585532746823,288.36754643206257,9.775171065493646,9.775171065493646,78.20136852394917
288.36754643206257,48.87585532746823,39.100684261974585,14.662756598240469,4.887585532746823,645.1612903225806,39.100684261974585
112.41446725317694,9.775171065493646,562.0723362658846,58.651026392961874,4.887585532746823,483.8709677419355,4.887585532746823
24.437927663734115,4.887585532746823,122.18963831867057,215.05376344086022,9.775171065493646,39.100684261974585,0.0
381.2316715542522,122.18963831867057,9.775171065493646,43.98826979472141,39.100684261974585,127.07722385141741,9.775171065493646
122.18963831867057,923.7536656891496,298.14271749755625,127.07722385141741,4.887585532746823,298.14271749755625,87.97653958944282
19.550342130987293,175.95307917888564,229.7165200391007,39.100684261974585,4.887585532746823,24.437927663734115,43.98826979472141
9.775171065493646,97.75171065493646,19.550342130987293,190.6158357771261,0.0,307.91788856304987,4.887585532746823
9.775171065493646,34.21309872922776,53.763440860215056,92.86412512218965,14.662756598240469,48.87585532746823,9.775171065493646
376.3440860215054,1329.4232649071357,273.7047898338221,136.85239491691104,39.100684261974585,4.887585532746823,4.887585532746823
107.52688172043011,107.52688172043011,29.325513196480937,131.96480938416423,4.887585532746823,273.7047898338221,78.20136852394917
146.6275659824047,9.775171065493646,679.3743890518084,127.07722385141741,4.887585532746823,127.07722385141741,29.325513196480937
4.887585532746823,1114.3695014662756,58.651026392961874,14.662756598240469,0.0,351.9061583577713,9.775171065493646
9.775171065493646,161.29032258064515,39.100684261974585,92.86412512218965,4.887585532746823,24.437927663734115,4.887585532746823
1055.7184750733138,581.622678396872,9.775171065493646,53.763440860215056,19.550342130987293,4.887585532746823,4.887585532746823
161.29032258064515,58.651026392961874,92.86412512218965,9.775171065493646,24.437927663734115,107.52688172043011,73.31378299120234
14.662756598240469,830.8895405669599,171.0654936461388,244.37927663734115,4.887585532746823,723.3626588465298,48.87585532746823
9.775171065493646,117.30205278592375,171.0654936461388,43.98826979472141,4.887585532746823,78.20136852394917,4.887585532746823
185.7282502443793,14.662756598240469,200.39100684261973,19.550342130987293,0.0,14.662756598240469,9.775171065493646
39.100684261974585,122.18963831867057,371.4565004887586,4.887585532746823,19.550342130987293,92.86412512218965,19.550342130987293
58.651026392961874,4.887585532746823,39.100684261974585,39.100684261974585,19.550342130987293,97.75171065493646,102.63929618768329
14.662756598240469,503.42130987292273,58.651026392961874,58.651026392961874,4.887585532746823,219.94134897360706,19.550342130987293
14.662756598240469,259.04203323558164,679.3743890518084,254.15444770283483,4.887585532746823,53.763440860215056,4.887585532746823
63.53861192570871,19.550342130987293,68.42619745845552,43.98826979472141,9.775171065493646,161.29032258064515,0.0
146.6275659824047,180.84066471163246,73.31378299120234,332.35581622678393,4.887585532746823,219.94134897360706,9.775171065493646
4.887585532746823,34.21309872922776,4.887585532746823,288.36754643206257,29.325513196480937,14.662756598240469,92.86412512218965
537.6344086021505,992.179863147605,78.20136852394917,34.21309872922776,4.887585532746823,513.1964809384165,19.550342130987293
14.662756598240469,298.14271749755625,439.8826979472141,107.52688172043011,9.775171065493646,43.98826979472141,4.887585532746823
141.73998044965788,24.437927663734115,532.7468230694037,63.53861192570871,4.887585532746823,4.887585532746823,4.887585532746823
141.73998044965788,4.887585532746823,29.325513196480937,87.97653958944282,4.887585532746823,102.63929618768329,9.775171065493646
9.775171065493646,180.84066471163246,4.887585532746823,175.95307917888564,29.325513196480937,136.85239491691104,102.63929618768329
4.887585532746823,14.662756598240469,39.100684261974585,24.437927663734115,29.325513196480937,586.5102639296188,29.325513196480937
131.96480938416423,39.100684261974585,635.386119257087,14.662756598240469,4.887585532746823,83.08895405669598,4.887585532746823
19.550342130987293,1955.0342130987292,180.84066471163246,102.63929618768329,9.775171065493646,34.21309872922776,9.775171065493646
39.100684261974585,83.08895405669598,9.775171065493646,444.77028347996094,9.775171065493646,24.437927663734115,19.550342130987293
19.550342130987293,73.31378299120234,9.775171065493646,224.82893450635387,24.437927663734115,571.8475073313783,102.63929618768329
4.887585532746823,166.17790811339196,503.42130987292273,24.437927663734115,29.325513196480937,73.31378299120234,34.21309872922776
87.97653958944282,400.78201368523946,190.6158357771261,4.887585532746823,4.887585532746823,4.887585532746823,9.775171065493646
117.30205278592375,24.437927663734115,9.775171065493646,205.27859237536657,4.887585532746823,9.775171065493646,4.887585532746823
19.550342130987293,78.20136852394917,19.550342130987293,219.94134897360706,0.0,107.52688172043011,14.662756598240469
4.887585532746823,9.775171065493646,278.5923753665689,239.49169110459434,9.775171065493646,483.8709677419355,92.86412512218965
0.0,249.26686217008796,796.6764418377321,63.53861192570871,29.325513196480937,39.100684261974585,24.437927663734115
410.55718475073314,14.662756598240469,122.18963831867057,102.63929618768329,24.437927663734115,63.53861192570871,9.775171065493646
391.00684261974584,757.5757575757576,112.41446725317694,39.100684261974585,4.887585532746823,9.775171065493646,0.0
29.325513196480937,1392.9618768328444,78.20136852394917,14.662756598240469,4.887585532746823,53.763440860215056,4.887585532746823
9.775171065493646,127.07722385141741,4.887585532746823,83.08895405669598,4.887585532746823,219.94134897360706,83.08895405669598
351.9061583577713,19.550342130987293,43.98826979472141,9.775171065493646,24.437927663734115,381.2316715542522,29.325513196480937
127.07722385141741,1207.2336265884653,493.6461388074291,83.08895405669598,19.550342130987293,117.30205278592375,9.775171065493646
4.887585532746823,43.98826979472141,58.651026392961874,102.63929618768329,4.887585532746823,73.31378299120234,4.887585532746823
4.887585532746823,298.14271749755625,102.63929618768329,83.08895405669598,9.775171065493646,127.07722385141741,9.775171065493646
63.53861192570871,1158.357771260997,527.8592375366569,43.98826979472141,4.887585532746823,4.887585532746823,102.63929618768329
381.2316715542522,156.40273704789834,752.6881720430108,219.94134897360706,9.775171065493646,136.85239491691104,24.437927663734115
53.763440860215056,19.550342130987293,19.550342130987293,19.550342130987293,39.100684261974585,552.297165200391,4.887585532746823
117.30205278592375,425.2199413489736,0.0,34.21309872922776,9.775171065493646,24.437927663734115,9.775171065493646
43.98826979472141,219.94134897360706,161.29032258064515,464.3206256109482,0.0,356.7937438905181,14.662756598240469
14.662756598240469,14.662756598240469,1080.156402737048,48.87585532746823,4.887585532746823,195.50342130987292,92.86412512218965
63.53861192570871,68.42619745845552,840.6647116324535,9.775171065493646,4.887585532746823,19.550342130987293,34.21309872922776
9.775171065493646,400.78201368523946,73.31378299120234,83.08895405669598,29.325513196480937,14.662756598240469,4.887585532746823
175.95307917888564,127.07722385141741,9.775171065493646,141.73998044965788,19.550342130987293,0.0,4.887585532746823
48.87585532746823,283.47996089931576,322.5806451612903,14.662756598240469,4.887585532746823,190.6158357771261,14.662756598240469
4.887585532746823,175.95307917888564,752.6881720430108,244.37927663734115,0.0,117.30205278592375,92.86412512218965
48.87585532746823,117.30205278592375,29.325513196480937,68.42619745845552,4.887585532746823,606.0606060606061,29.325513196480937
454.54545454545456,9.775171065493646,19.550342130987293,73.31378299120234,24.437927663734115,117.30205278592375,9.775171065493646
68.42619745845552,141.73998044965788,9.775171065493646,68.42619745845552,19.550342130987293,14.662756598240469,4.887585532746823
19.550342130987293,92.86412512218965,219.94134897360706,24.437927663734115,9.775171065493646,68.42619745845552,14.662756598240469
9.775171065493646,254.15444770283483,263.92961876832845,4.887585532746823,4.887585532746823,83.08895405669598,97.75171065493646
24.437927663734115,640.2737047898338,332.35581622678393,351.9061583577713,9.775171065493646,171.0654936461388,24.437927663734115
4.887585532746823,92.86412512218965,34.21309872922776,112.41446725317694,14.662756598240469,9.775171065493646,9.775171065493646
4.887585532746823,615.8357771260997,0.0,14.662756598240469,34.21309872922776,14.662756598240469,0.0
136.85239491691104,410.55718475073314,356.7937438905181,14.662756598240469,14.662756598240469,68.42619745845552,4.887585532746823
141.73998044965788,39.100684261974585,87.97653958944282,43.98826979472141,0.0,58.651026392961874,97.75171065493646
371.4565004887586,200.39100684261973,381.2316715542522,386.119257086999,4.887585532746823,156.40273704789834,19.550342130987293
43.98826979472141,58.651026392961874,29.325513196480937,34.21309872922776,9.775171065493646,43.98826979472141,0.0
14.662756598240469,43.98826979472141,645.1612903225806,19.550342130987293,39.100684261974585,136.85239491691104,4.887585532746823
9.775171065493646,9.775171065493646,161.29032258064515,43.98826979472141,14.662756598240469,361.6813294232649,9.775171065493646
0.0,58.651026392961874,351.9061583577713,34.21309872922776,4.887585532746823,180.84066471163246,97.75171065493646
249.26686217008796,532.7468230694037,63.53861192570871,151.51515151515153,9.775171065493646,14.662756598240469,24.437927663734115
224.82893450635387,268.81720430107526,161.29032258064515,58.651026392961874,0.0,288.36754643206257,9.775171065493646
102.63929618768329,522.9716520039101,97.75171065493646,63.53861192570871,43.98826979472141,518.0840664711633,9.775171065493646
288.36754643206257,78.20136852394917,268.81720430107526,73.31378299120234,53.763440860215056,63.53861192570871,9.775171065493646
205.27859237536657,1217.008797653959,87.97653958944282,102.63929618768329,9.775171065493646,14.662756598240469,87.97653958944282
34.21309872922776,156.40273704789834,14.662756598240469,278.5923753665689,4.887585532746823,234.6041055718475,24.437927663734115
9.775171065493646,376.3440860215054,0.0,127.07722385141741,4.887585532746823,14.662756598240469,4.887585532746823
4.887585532746823,43.98826979472141,566.9599217986315,29.325513196480937,24.437927663734115,171.0654936461388,9.775171065493646
136.85239491691104,122.18963831867057,1036.1681329423266,171.0654936461388,29.325513196480937,762.4633431085044,14.662756598240469
68.42619745845552,97.75171065493646,39.100684261974585,63.53861192570871,9.775171065493646,34.21309872922776,102.63929618768329
210.16617790811338,591.3978494623656,19.550342130987293,14.662756598240469,9.775171065493646,14.662756598240469,24.437927663734115
19.550342130987293,39.100684261974585,122.18963831867057,317.6930596285435,4.887585532746823,29.325513196480937,9.775171065493646
4.887585532746823,29.325513196480937,48.87585532746823,249.26686217008796,9.775171065493646,185.7282502443793,0.0
4.887585532746823,4.887585532746823,131.96480938416423,14.662756598240469,34.21309872922776,117.30205278592375,0.0
273.7047898338221,0.0,97.75171065493646,14.662756598240469,4.887585532746823,92.86412512218965,83.08895405669598
24.437927663734115,327.4682306940371,195.50342130987292,0.0,4.887585532746823,24.437927663734115,24.437927663734115
63.53861192570871,200.39100684261973,14.662756598240469,156.40273704789834,4.887585532746823,303.03030303030306,0.0
9.775171065493646,14.662756598240469,58.651026392961874,58.651026392961874,4.887585532746823,180.84066471163246,9.775171065493646
19.550342130987293,899.3157380254155,127.07722385141741,83.08895405669598,34.21309872922776,239.49169110459434,0.0
278.5923753665689,68.42619745845552,249.26686217008796,14.662756598240469,9.775171065493646,24.437927663734115,97.75171065493646
288.36754643206257,87.97653958944282,351.9061583577713,229.7165200391007,4.887585532746823,4.887585532746823,34.21309872922776
48.87585532746823,1099.7067448680352,29.325513196480937,58.651026392961874,4.887585532746823,14.662756598240469,4.887585532746823
244.37927663734115,224.82893450635387,371.4565004887586,53.763440860215056,4.887585532746823,4.887585532746823,0.0
43.98826979472141,19.550342130987293,493.6461388074291,0.0,34.21309872922776,459.4330400782014,14.662756598240469
34.21309872922776,9.775171065493646,29.325513196480937,273.7047898338221,24.437927663734115,478.9833822091887,97.75171065493646
14.662756598240469,166.17790811339196,9.775171065493646,92.86412512218965,4.887585532746823,205.27859237536657,34.21309872922776
19.550342130987293,478.9833822091887,205.27859237536657,141.73998044965788,9.775171065493646,29.325513196480937,14.662756598240469
29.325513196480937,39.100684261974585,112.41446725317694,24.437927663734115,4.887585532746823,4.887585532746823,0.0
9.775171065493646,14.662756598240469,53.763440860215056,97.75171065493646,4.887585532746823,9.775171065493646,4.887585532746823
307.91788856304987,4.887585532746823,303.03030303030306,24.437927663734115,19.550342130987293,244.37927663734115,97.75171065493646
24.437927663734115,0.0,342.1309872922776,175.95307917888564,29.325513196480937,293.2551319648094,34.21309872922776
459.4330400782014,562.0723362658846,224.82893450635387,298.14271749755625,9.775171065493646,34.21309872922776,4.887585532746823
136.85239491691104,210.16617790811338,317.6930596285435,34.21309872922776,4.887585532746823,278.5923753665689,4.887585532746823
19.550342130987293,9.775171065493646,29.325513196480937,24.437927663734115,9.775171065493646,547.4095796676442,4.887585532746823
244.37927663734115,361.6813294232649,4.887585532746823,156.40273704789834,9.775171065493646,24.437927663734115,102.63929618768329
34.21309872922776,43.98826979472141,29.325513196480937,107.52688172043011,9.775171065493646,430.10752688172045,24.437927663734115
83.08895405669598,9.775171065493646,420.33235581622677,9.775171065493646,9.775171065493646,83.08895405669598,4.887585532746823
273.7047898338221,0.0,117.30205278592375,68.42619745845552,4.887585532746823,19.550342130987293,4.887585532746823
34.21309872922776,469.208211143695,9.775171065493646,9.775171065493646,4.887585532746823,483.8709677419355,9.775171065493646
83.08895405669598,43.98826979472141,200.39100684261973,410.55718475073314,9.775171065493646,73.31378299120234,102.63929618768329
117.30205278592375,73.31378299120234,195.50342130987292,48.87585532746823,0.0,48.87585532746823,24.437927663734115
127.07722385141741,366.5689149560117,156.40273704789834,29.325513196480937,4.887585532746823,351.9061583577713,4.887585532746823
19.550342130987293,29.325513196480937,151.51515151515153,4.887585532746823,9.775171065493646,34.21309872922776,4.887585532746823
161.29032258064515,166.17790811339196,29.325513196480937,102.63929618768329,0.0,68.42619745845552,14.662756598240469
249.26686217008796,19.550342130987293,68.42619745845552,107.52688172043011,0.0,24.437927663734115,92.86412512218965
14.662756598240469,29.325513196480937,210.16617790811338,4.887585532746823,537.6344086021505,190.6158357771261,29.325513196480937
83.08895405669598,317.6930596285435,73.31378299120234,87.97653958944282,464.3206256109482,136.85239491691104,9.775171065493646
205.27859237536657,29.325513196480937,34.21309872922776,92.86412512218965,122.18963831867057,14.662756598240469,9.775171065493646
254.15444770283483,747.800586510264,4.887585532746823,48.87585532746823,39.100684261974585,215.05376344086022,14.662756598240469
24.437927663734115,48.87585532746823,14.662756598240469,141.73998044965788,53.763440860215056,679.3743890518084,97.75171065493646
327.4682306940371,83.08895405669598,596.2854349951125,268.81720430107526,1764.4183773216032,63.53861192570871,24.437927663734115
102.63929618768329,1060.6060606060607,97.75171065493646,83.08895405669598,107.52688172043011,434.99511241446726,9.775171065493646
102.63929618768329,107.52688172043011,29.325513196480937,14.662756598240469,342.1309872922776,68.42619745845552,9.775171065493646
151.51515151515153,39.100684261974585,166.17790811339196,39.100684261974585,537.6344086021505,87.97653958944282,9.775171065493646
205.27859237536657,742.9130009775172,263.92961876832845,58.651026392961874,29.325513196480937,259.04203323558164,92.86412512218965
180.84066471163246,97.75171065493646,39.100684261974585,14.662756598240469,9.775171065493646,166.17790811339196,34.21309872922776
48.87585532746823,14.662756598240469,9.775171065493646,518.0840664711633,4.887585532746823,317.6930596285435,4.887585532746823
4.887585532746823,371.4565004887586,68.42619745845552,14.662756598240469,0.0,195.50342130987292,0.0
278.5923753665689,39.100684261974585,9.775171065493646,283.47996089931576,29.325513196480937,97.75171065493646,9.775171065493646
39.100684261974585,9.775171065493646,215.05376344086022,78.20136852394917,0.0,97.75171065493646,83.08895405669598
68.42619745845552,9.775171065493646,278.5923753665689,58.651026392961874,4.887585532746823,39.100684261974585,24.437927663734115
39.100684261974585,9.775171065493646,19.550342130987293,29.325513196480937,234.6041055718475,4.887585532746823,4.887585532746823
127.07722385141741,474.0957966764418,4.887585532746823,14.662756598240469,1148.5826001955033,464.3206256109482,4.887585532746823
4.887585532746823,48.87585532746823,29.325513196480937,141.73998044965788,102.63929618768329,229.7165200391007,0.0
244.37927663734115,39.100684261974585,239.49169110459434,127.07722385141741,24.437927663734115,34.21309872922776,87.97653958944282
175.95307917888564,9.775171065493646,24.437927663734115,24.437927663734115,24.437927663734115,200.39100684261973,29.325513196480937
102.63929618768329,640.2737047898338,48.87585532746823,131.96480938416423,0.0,78.20136852394917,9.775171065493646
4.887585532746823,405.6695992179863,14.662756598240469,58.651026392961874,620.7233626588466,9.775171065493646,4.887585532746823
249.26686217008796,73.31378299120234,87.97653958944282,0.0,889.5405669599219,9.775171065493646,4.887585532746823
195.50342130987292,63.53861192570871,185.7282502443793,151.51515151515153,34.21309872922776,327.4682306940371,92.86412512218965
117.30205278592375,508.30889540566966,48.87585532746823,244.37927663734115,48.87585532746823,151.51515151515153,34.21309872922776
14.662756598240469,14.662756598240469,87.97653958944282,92.86412512218965,122.18963831867057,9.775171065493646,14.662756598240469
532.7468230694037,9.775171065493646,24.437927663734115,87.97653958944282,19.550342130987293,48.87585532746823,9.775171065493646
19.550342130987293,210.16617790811338,9.775171065493646,127.07722385141741,708.6999022482894,244.37927663734115,4.887585532746823
19.550342130987293,434.99511241446726,9.775171065493646,63.53861192570871,156.40273704789834,24.437927663734115,87.97653958944282
146.6275659824047,327.4682306940371,53.763440860215056,4.887585532746823,571.8475073313783,0.0,24.437927663734115
24.437927663734115,78.20136852394917,161.29032258064515,4.887585532746823,29.325513196480937,122.18963831867057,4.887585532746823
224.82893450635387,4.887585532746823,92.86412512218965,102.63929618768329,9.775171065493646,102.63929618768329,0.0
68.42619745845552,9.775171065493646,29.325513196480937,244.37927663734115,4.887585532746823,14.662756598240469,4.887585532746823
674.4868035190616,14.662756598240469,29.325513196480937,14.662756598240469,0.0,674.4868035190616,92.86412512218965
53.763440860215056,112.41446725317694,185.7282502443793,474.0957966764418,464.3206256109482,34.21309872922776,24.437927663734115
4.887585532746823,4.887585532746823,92.86412512218965,107.52688172043011,234.6041055718475,14.662756598240469,4.887585532746823
415.44477028347995,146.6275659824047,9.775171065493646,29.325513196480937,239.49169110459434,4.887585532746823,4.887585532746823
87.97653958944282,283.47996089931576,9.775171065493646,151.51515151515153,420.33235581622677,522.9716520039101,9.775171065493646
4.887585532746823,405.6695992179863,317.6930596285435,92.86412512218965,29.325513196480937,376.3440860215054,87.97653958944282
0.0,24.437927663734115,24.437927663734115,39.100684261974585,694.0371456500488,24.437927663734115,34.21309872922776
376.3440860215054,151.51515151515153,63.53861192570871,63.53861192570871,73.31378299120234,9.775171065493646,9.775171065493646
146.6275659824047,293.2551319648094,9.775171065493646,122.18963831867057,1026.392961876833,9.775171065493646,4.887585532746823
112.41446725317694,48.87585532746823,29.325513196480937,156.40273704789834,146.6275659824047,811.3391984359725,4.887585532746823
19.550342130987293,650.0488758553274,29.325513196480937,131.96480938416423,9.775171065493646,73.31378299120234,83.08895405669598
9.775171065493646,131.96480938416423,107.52688172043011,19.550342130987293,630.4985337243402,63.53861192570871,34.21309872922776
14.662756598240469,317.6930596285435,43.98826979472141,48.87585532746823,73.31378299120234,219.94134897360706,4.887585532746823
425.2199413489736,87.97653958944282,29.325513196480937,58.651026392961874,83.08895405669598,43.98826979472141,0.0
39.100684261974585,34.21309872922776,9.775171065493646,48.87585532746823,586.5102639296188,68.42619745845552,0.0
307.91788856304987,9.775171065493646,14.662756598240469,234.6041055718475,112.41446725317694,395.89442815249265,83.08895405669598
117.30205278592375,171.0654936461388,337.2434017595308,63.53861192570871,19.550342130987293,19.550342130987293,29.325513196480937
136.85239491691104,48.87585532746823,151.51515151515153,185.7282502443793,14.662756598240469,4.887585532746823,9.775171065493646
9.775171065493646,601.1730205278593,14.662756598240469,19.550342130987293,156.40273704789834,586.5102639296188,0.0
73.31378299120234,48.87585532746823,0.0,166.17790811339196,39.100684261974585,102.63929618768329,4.887585532746823
122.18963831867057,43.98826979472141,48.87585532746823,58.651026392961874,9.775171065493646,83.08895405669598,83.08895405669598
48.87585532746823,78.20136852394917,215.05376344086022,234.6041055718475,24.437927663734115,156.40273704789834,29.325513196480937
9.775171065493646,620.7233626588466,14.662756598240469,29.325513196480937,0.0,19.550342130987293,0.0
410.55718475073314,34.21309872922776,9.775171065493646,58.651026392961874,200.39100684261973,68.42619745845552,9.775171065493646
48.87585532746823,0.0,14.662756598240469,161.29032258064515,542.5219941348973,244.37927663734115,9.775171065493646
9.775171065493646,73.31378299120234,131.96480938416423,34.21309872922776,39.100684261974585,351.9061583577713,78.20136852394917
