HandOpen,HandClose,Wrist Flexion,Wrist Extension,Supination,Pronation,Rest
4.887585532746823,92.86412512218965,19.550342130987293,0.0,4.887585532746823,63.53861192570871,9.775171065493646
9.775171065493646,58.651026392961874,19.550342130987293,9.775171065493646,4.887585532746823,34.21309872922776,9.775171065493646
0.0,29.325513196480937,9.775171065493646,4.887585532746823,4.887585532746823,9.775171065493646,19.550342130987293
4.887585532746823,19.550342130987293,4.887585532746823,14.662756598240469,9.775171065493646,9.775171065493646,43.98826979472141
4.887585532746823,19.550342130987293,4.887585532746823,4.887585532746823,9.775171065493646,4.887585532746823,19.550342130987293
9.775171065493646,4.887585532746823,0.0,9.775171065493646,9.775171065493646,92.86412512218965,19.550342130987293
9.775171065493646,4.887585532746823,4.887585532746823,0.0,4.887585532746823,268.81720430107526,39.100684261974585
4.887585532746823,0.0,19.550342130987293,0.0,9.775171065493646,317.6930596285435,58.651026392961874
9.775171065493646,0.0,4.887585532746823,0.0,4.887585532746823,175.95307917888564,24.437927663734115
9.775171065493646,0.0,9.775171065493646,9.775171065493646,9.775171065493646,83.08895405669598,19.550342130987293
4.887585532746823,9.775171065493646,4.887585532746823,24.437927663734115,9.775171065493646,29.325513196480937,9.775171065493646
24.437927663734115,9.775171065493646,9.775171065493646,24.437927663734115,9.775171065493646,19.550342130987293,4.887585532746823
39.100684261974585,9.775171065493646,4.887585532746823,24.437927663734115,0.0,9.775171065493646,9.775171065493646
34.21309872922776,9.775171065493646,4.887585532746823,19.550342130987293,4.887585532746823,4.887585532746823,4.887585532746823
19.550342130987293,4.887585532746823,4.887585532746823,19.550342130987293,4.887585532746823,43.98826979472141,4.887585532746823
9.775171065493646,4.887585532746823,0.0,9.775171065493646,4.887585532746823,34.21309872922776,9.775171065493646
9.775171065493646,9.775171065493646,4.887585532746823,14.662756598240469,0.0,14.662756598240469,4.887585532746823
4.887585532746823,73.31378299120234,9.775171065493646,4.887585532746823,4.887585532746823,14.662756598240469,14.662756598240469
9.775171065493646,83.08895405669598,9.775171065493646,4.887585532746823,4.887585532746823,14.662756598240469,0.0
24.437927663734115,48.87585532746823,19.550342130987293,4.887585532746823,0.0,83.08895405669598,4.887585532746823
29.325513196480937,19.550342130987293,9.775171065493646,0.0,4.887585532746823,117.30205278592375,4.887585532746823
19.550342130987293,14.662756598240469,9.775171065493646,4.887585532746823,9.775171065493646,151.51515151515153,4.887585532746823
4.887585532746823,4.887585532746823,4.887585532746823,14.662756598240469,4.887585532746823,97.75171065493646,4.887585532746823
4.887585532746823,4.887585532746823,4.887585532746823,29.325513196480937,14.662756598240469,39.100684261974585,0.0
9.775171065493646,4.887585532746823,24.437927663734115,14.662756598240469,0.0,24.437927663734115,0.0
4.887585532746823,4.887585532746823,19.550342130987293,9.775171065493646,4.887585532746823,14.662756598240469,9.775171065493646
4.887585532746823,4.887585532746823,9.775171065493646,9.775171065493646,9.775171065493646,87.97653958944282,4.887585532746823
4.887585532746823,9.775171065493646,4.887585532746823,4.887585532746823,9.775171065493646,43.98826979472141,0.0
9.775171065493646,4.887585532746823,4.887585532746823,4.887585532746823,4.887585532746823,24.437927663734115,29.325513196480937
0.0,4.887585532746823,9.775171065493646,4.887585532746823,4.887585532746823,4.887585532746823,58.651026392961874
9.775171065493646,4.887585532746823,19.550342130987293,4.887585532746823,24.437927663734115,4.887585532746823,34.21309872922776
4.887585532746823,4.887585532746823,4.887585532746823,4.887585532746823,24.437927663734115,39.100684261974585,19.550342130987293
0.0,9.775171065493646,0.0,0.0,19.550342130987293,9.775171065493646,9.775171065493646
0.0,43.98826979472141,19.550342130987293,4.887585532746823,14.662756598240469,19.550342130987293,4.887585532746823
0.0,9.775171065493646,4.887585532746823,4.887585532746823,14.662756598240469,29.325513196480937,14.662756598240469
9.775171065493646,14.662756598240469,9.775171065493646,9.775171065493646,9.775171065493646,34.21309872922776,19.550342130987293
4.887585532746823,19.550342130987293,48.87585532746823,4.887585532746823,9.775171065493646,24.437927663734115,4.887585532746823
9.775171065493646,9.775171065493646,9.775171065493646,0.0,4.887585532746823,4.887585532746823,4.887585532746823
0.0,4.887585532746823,9.775171065493646,4.887585532746823,0.0,9.775171065493646,0.0
9.775171065493646,0.0,4.887585532746823,0.0,9.775171065493646,0.0,4.887585532746823
78.20136852394917,9.775171065493646,14.662756598240469,9.775171065493646,4.887585532746823,53.763440860215056,43.98826979472141
14.662756598240469,4.887585532746823,4.887585532746823,0.0,0.0,58.651026392961874,29.325513196480937
14.662756598240469,24.437927663734115,4.887585532746823,0.0,9.775171065493646,122.18963831867057,4.887585532746823
107.52688172043011,9.775171065493646,4.887585532746823,9.775171065493646,0.0,19.550342130987293,9.775171065493646
4.887585532746823,4.887585532746823,4.887585532746823,0.0,4.887585532746823,4.887585532746823,34.21309872922776
43.98826979472141,4.887585532746823,4.887585532746823,9.775171065493646,9.775171065493646,4.887585532746823,73.31378299120234
19.550342130987293,4.887585532746823,24.437927663734115,4.887585532746823,14.662756598240469,83.08895405669598,4.887585532746823
9.775171065493646,9.775171065493646,19.550342130987293,9.775171065493646,4.887585532746823,205.27859237536657,0.0
9.775171065493646,9.775171065493646,4.887585532746823,4.887585532746823,4.887585532746823,29.325513196480937,43.98826979472141
4.887585532746823,9.775171065493646,0.0,4.887585532746823,0.0,39.100684261974585,9.775171065493646
14.662756598240469,4.887585532746823,4.887585532746823,9.775171065493646,0.0,63.53861192570871,0.0
4.887585532746823,4.887585532746823,9.775171065493646,4.887585532746823,4.887585532746823,361.6813294232649,39.100684261974585
4.887585532746823,34.21309872922776,9.775171065493646,0.0,0.0,14.662756598240469,29.325513196480937
161.29032258064515,24.437927663734115,4.887585532746823,19.550342130987293,29.325513196480937,4.887585532746823,4.887585532746823
9.775171065493646,9.775171065493646,0.0,4.887585532746823,14.662756598240469,34.21309872922776,0.0
14.662756598240469,0.0,24.437927663734115,0.0,9.775171065493646,39.100684261974585,4.887585532746823
4.887585532746823,4.887585532746823,34.21309872922776,29.325513196480937,4.887585532746823,9.775171065493646,9.775171065493646
4.887585532746823,24.437927663734115,14.662756598240469,58.651026392961874,39.100684261974585,4.887585532746823,9.775171065493646
9.775171065493646,29.325513196480937,9.775171065493646,4.887585532746823,4.887585532746823,9.775171065493646,43.98826979472141
19.550342130987293,4.887585532746823,4.887585532746823,4.887585532746823,0.0,4.887585532746823,53.763440860215056
4.887585532746823,4.887585532746823,0.0,4.887585532746823,4.887585532746823,0.0,0.0
620.7233626588466,0.0,4.887585532746823,9.775171065493646,0.0,4.887585532746823,0.0
127.07722385141741,9.775171065493646,0.0,9.775171065493646,19.550342130987293,4.887585532746823,9.775171065493646
19.550342130987293,0.0,4.887585532746823,4.887585532746823,24.437927663734115,4.887585532746823,151.51515151515153
9.775171065493646,0.0,9.775171065493646,0.0,4.887585532746823,19.550342130987293,131.96480938416423
4.887585532746823,43.98826979472141,9.775171065493646,4.887585532746823,4.887585532746823,14.662756598240469,4.887585532746823
19.550342130987293,19.550342130987293,4.887585532746823,9.775171065493646,0.0,4.887585532746823,14.662756598240469
9.775171065493646,4.887585532746823,43.98826979472141,9.775171065493646,14.662756598240469,9.775171065493646,9.775171065493646
4.887585532746823,9.775171065493646,29.325513196480937,4.887585532746823,9.775171065493646,4.887585532746823,4.887585532746823
9.775171065493646,0.0,4.887585532746823,9.775171065493646,4.887585532746823,9.775171065493646,24.437927663734115
4.887585532746823,9.775171065493646,4.887585532746823,4.887585532746823,4.887585532746823,4.887585532746823,19.550342130987293
14.662756598240469,4.887585532746823,24.437927663734115,9.775171065493646,4.887585532746823,9.775171065493646,97.75171065493646
4.887585532746823,9.775171065493646,9.775171065493646,0.0,0.0,9.775171065493646,9.775171065493646
4.887585532746823,43.98826979472141,0.0,4.887585532746823,9.775171065493646,9.775171065493646,4.887585532746823
4.887585532746823,122.18963831867057,4.887585532746823,0.0,9.775171065493646,4.887585532746823,14.662756598240469
4.887585532746823,9.775171065493646,0.0,19.550342130987293,14.662756598240469,14.662756598240469,24.437927663734115
9.775171065493646,9.775171065493646,9.775171065493646,9.775171065493646,4.887585532746823,58.651026392961874,43.98826979472141
0.0,9.775171065493646,9.775171065493646,4.887585532746823,4.887585532746823,9.775171065493646,9.775171065493646
24.437927663734115,4.887585532746823,48.87585532746823,0.0,29.325513196480937,4.887585532746823,4.887585532746823
9.775171065493646,0.0,4.887585532746823,29.325513196480937,4.887585532746823,0.0,19.550342130987293
29.325513196480937,68.42619745845552,4.887585532746823,9.775171065493646,4.887585532746823,29.325513196480937,9.775171065493646
87.97653958944282,9.775171065493646,0.0,4.887585532746823,4.887585532746823,4.887585532746823,9.775171065493646
9.775171065493646,9.775171065493646,39.100684261974585,4.887585532746823,4.887585532746823,9.775171065493646,4.887585532746823
0.0,4.887585532746823,24.437927663734115,9.775171065493646,9.775171065493646,0.0,34.21309872922776
4.887585532746823,9.775171065493646,9.775171065493646,4.887585532746823,9.775171065493646,19.550342130987293,4.887585532746823
4.887585532746823,9.775171065493646,9.775171065493646,0.0,0.0,14.662756598240469,14.662756598240469
14.662756598240469,0.0,4.887585532746823,4.887585532746823,4.887585532746823,24.437927663734115,83.08895405669598
9.775171065493646,0.0,9.775171065493646,4.887585532746823,29.325513196480937,4.887585532746823,19.550342130987293
29.325513196480937,4.887585532746823,19.550342130987293,0.0,9.775171065493646,9.775171065493646,9.775171065493646
4.887585532746823,29.325513196480937,14.662756598240469,0.0,14.662756598240469,4.887585532746823,19.550342130987293
9.775171065493646,4.887585532746823,9.775171065493646,9.775171065493646,4.887585532746823,0.0,4.887585532746823
9.775171065493646,9.775171065493646,0.0,4.887585532746823,0.0,9.775171065493646,29.325513196480937
9.775171065493646,4.887585532746823,14.662756598240469,4.887585532746823,0.0,141.73998044965788,19.550342130987293
4.887585532746823,4.887585532746823,0.0,9.775171065493646,29.325513196480937,68.42619745845552,4.887585532746823
4.887585532746823,48.87585532746823,9.775171065493646,4.887585532746823,14.662756598240469,9.775171065493646,4.887585532746823
0.0,14.662756598240469,9.775171065493646,39.100684261974585,4.887585532746823,9.775171065493646,14.662756598240469
39.100684261974585,0.0,4.887585532746823,14.662756598240469,9.775171065493646,4.887585532746823,14.662756598240469
9.775171065493646,4.887585532746823,9.775171065493646,4.887585532746823,0.0,14.662756598240469,9.775171065493646
9.775171065493646,0.0,9.775171065493646,4.887585532746823,9.775171065493646,0.0,58.651026392961874
4.887585532746823,14.662756598240469,19.550342130987293,4.887585532746823,0.0,4.887585532746823,0.0
9.775171065493646,14.662756598240469,43.98826979472141,4.887585532746823,43.98826979472141,0.0,24.437927663734115
4.887585532746823,4.887585532746823,4.887585532746823,4.887585532746823,29.325513196480937,19.550342130987293,4.887585532746823
9.775171065493646,9.775171065493646,4.887585532746823,4.887585532746823,4.887585532746823,4.887585532746823,29.325513196480937
9.775171065493646,34.21309872922776,4.887585532746823,4.887585532746823,14.662756598240469,4.887585532746823,9.775171065493646
4.887585532746823,68.42619745845552,9.775171065493646,0.0,19.550342130987293,0.0,0.0
4.887585532746823,9.775171065493646,63.53861192570871,19.550342130987293,9.775171065493646,9.775171065493646,9.775171065493646
9.775171065493646,9.775171065493646,9.775171065493646,9.775171065493646,0.0,0.0,4.887585532746823
9.775171065493646,0.0,4.887585532746823,0.0,4.887585532746823,0.0,73.31378299120234
9.775171065493646,24.437927663734115,4.887585532746823,0.0,4.887585532746823,0.0,14.662756598240469
0.0,9.775171065493646,4.887585532746823,4.887585532746823,4.887585532746823,78.20136852394917,53.763440860215056
68.42619745845552,9.775171065493646,0.0,9.775171065493646,0.0,14.662756598240469,63.53861192570871
39.100684261974585,29.325513196480937,29.325513196480937,24.437927663734115,9.775171065493646,9.775171065493646,19.550342130987293
4.887585532746823,14.662756598240469,9.775171065493646,9.775171065493646,0.0,4.887585532746823,9.775171065493646
9.775171065493646,4.887585532746823,4.887585532746823,0.0,0.0,53.763440860215056,9.775171065493646
9.775171065493646,0.0,0.0,0.0,0.0,24.437927663734115,0.0
14.662756598240469,4.887585532746823,14.662756598240469,9.775171065493646,0.0,9.775171065493646,34.21309872922776
263.92961876832845,0.0,9.775171065493646,4.887585532746823,9.775171065493646,9.775171065493646,4.887585532746823
14.662756598240469,4.887585532746823,4.887585532746823,0.0,0.0,0.0,9.775171065493646
4.887585532746823,0.0,9.775171065493646,9.775171065493646,9.775171065493646,9.775171065493646,63.53861192570871
4.887585532746823,39.100684261974585,34.21309872922776,0.0,9.775171065493646,0.0,24.437927663734115
9.775171065493646,24.437927663734115,48.87585532746823,9.775171065493646,9.775171065493646,0.0,9.775171065493646
0.0,24.437927663734115,0.0,4.887585532746823,4.887585532746823,0.0,4.887585532746823
4.887585532746823,9.775171065493646,19.550342130987293,4.887585532746823,4.887585532746823,4.887585532746823,127.07722385141741
4.887585532746823,4.887585532746823,9.775171065493646,4.887585532746823,4.887585532746823,43.98826979472141,43.98826979472141
0.0,4.887585532746823,14.662756598240469,4.887585532746823,29.325513196480937,161.29032258064515,9.775171065493646
14.662756598240469,0.0,9.775171065493646,9.775171065493646,9.775171065493646,14.662756598240469,58.651026392961874
19.550342130987293,249.26686217008796,19.550342130987293,0.0,14.662756598240469,9.775171065493646,9.775171065493646
4.887585532746823,131.96480938416423,9.775171065493646,48.87585532746823,9.775171065493646,4.887585532746823,39.100684261974585
14.662756598240469,4.887585532746823,14.662756598240469,14.662756598240469,14.662756598240469,9.775171065493646,14.662756598240469
4.887585532746823,9.775171065493646,9.775171065493646,9.775171065493646,9.775171065493646,14.662756598240469,9.775171065493646
0.0,9.775171065493646,4.887585532746823,4.887585532746823,4.887585532746823,34.21309872922776,9.775171065493646
24.437927663734115,4.887585532746823,9.775171065493646,24.437927663734115,4.887585532746823,9.775171065493646,14.662756598240469
9.775171065493646,4.887585532746823,14.662756598240469,39.100684261974585,0.0,0.0,9.775171065493646
4.887585532746823,4.887585532746823,4.887585532746823,9.775171065493646,4.887585532746823,4.887585532746823,43.98826979472141
0.0,48.87585532746823,0.0,9.775171065493646,9.775171065493646,4.887585532746823,34.21309872922776
39.100684261974585,9.775171065493646,4.887585532746823,9.775171065493646,4.887585532746823,0.0,9.775171065493646
9.775171065493646,4.887585532746823,4.887585532746823,9.775171065493646,9.775171065493646,4.887585532746823,112.41446725317694
4.887585532746823,4.887585532746823,14.662756598240469,14.662756598240469,19.550342130987293,4.887585532746823,14.662756598240469
9.775171065493646,4.887585532746823,4.887585532746823,4.887585532746823,4.887585532746823,9.775171065493646,9.775171065493646
0.0,4.887585532746823,4.887585532746823,4.887585532746823,0.0,14.662756598240469,29.325513196480937
4.887585532746823,9.775171065493646,4.887585532746823,4.887585532746823,4.887585532746823,9.775171065493646,9.775171065493646
43.98826979472141,0.0,4.887585532746823,0.0,0.0,0.0,9.775171065493646
14.662756598240469,73.31378299120234,9.775171065493646,9.775171065493646,0.0,4.887585532746823,122.18963831867057
9.775171065493646,9.775171065493646,4.887585532746823,9.775171065493646,0.0,9.775171065493646,19.550342130987293
9.775171065493646,0.0,9.775171065493646,4.887585532746823,19.550342130987293,19.550342130987293,4.887585532746823
9.775171065493646,29.325513196480937,24.437927663734115,4.887585532746823,9.775171065493646,9.775171065493646,0.0
4.887585532746823,4.887585532746823,9.775171065493646,4.887585532746823,4.887585532746823,14.662756598240469,0.0
9.775171065493646,14.662756598240469,24.437927663734115,4.887585532746823,0.0,4.887585532746823,68.42619745845552
4.887585532746823,0.0,9.775171065493646,4.887585532746823,0.0,0.0,4.887585532746823
0.0,14.662756598240469,0.0,9.775171065493646,14.662756598240469,4.887585532746823,29.325513196480937
29.325513196480937,4.887585532746823,9.775171065493646,0.0,4.887585532746823,0.0,4.887585532746823
39.100684261974585,4.887585532746823,39.100684261974585,9.775171065493646,0.0,4.887585532746823,0.0
9.775171065493646,48.87585532746823,19.550342130987293,43.98826979472141,4.887585532746823,29.325513196480937,4.887585532746823
0.0,9.775171065493646,9.775171065493646,14.662756598240469,4.887585532746823,4.887585532746823,29.325513196480937
9.775171065493646,4.887585532746823,4.887585532746823,9.775171065493646,0.0,0.0,14.662756598240469
9.775171065493646,4.887585532746823,0.0,4.887585532746823,4.887585532746823,19.550342130987293,4.887585532746823
9.775171065493646,0.0,4.887585532746823,4.887585532746823,9.775171065493646,0.0,39.100684261974585
4.887585532746823,9.775171065493646,4.887585532746823,4.887585532746823,4.887585532746823,9.775171065493646,151.51515151515153
4.887585532746823,4.887585532746823,0.0,4.887585532746823,0.0,0.0,78.20136852394917
4.887585532746823,9.775171065493646,4.887585532746823,9.775171065493646,0.0,14.662756598240469,14.662756598240469
14.662756598240469,9.775171065493646,4.887585532746823,19.550342130987293,0.0,4.887585532746823,29.325513196480937
9.775171065493646,4.887585532746823,4.887585532746823,4.887585532746823,0.0,4.887585532746823,4.887585532746823
4.887585532746823,24.437927663734115,29.325513196480937,0.0,58.651026392961874,39.100684261974585,4.887585532746823
9.775171065493646,9.775171065493646,24.437927663734115,9.775171065493646,24.437927663734115,9.775171065493646,102.63929618768329
14.662756598240469,0.0,0.0,4.887585532746823,0.0,4.887585532746823,9.775171065493646
63.53861192570871,9.775171065493646,4.887585532746823,43.98826979472141,4.887585532746823,83.08895405669598,0.0
9.775171065493646,0.0,4.887585532746823,14.662756598240469,4.887585532746823,4.887585532746823,0.0
0.0,4.887585532746823,9.775171065493646,0.0,9.775171065493646,9.775171065493646,171.0654936461388
420.33235581622677,14.662756598240469,4.887585532746823,9.775171065493646,4.887585532746823,9.775171065493646,34.21309872922776
195.50342130987292,0.0,4.887585532746823,0.0,19.550342130987293,4.887585532746823,68.42619745845552
29.325513196480937,4.887585532746823,0.0,9.775171065493646,4.887585532746823,9.775171065493646,19.550342130987293
9.775171065493646,9.775171065493646,29.325513196480937,19.550342130987293,4.887585532746823,4.887585532746823,4.887585532746823
48.87585532746823,4.887585532746823,39.100684261974585,9.775171065493646,14.662756598240469,9.775171065493646,4.887585532746823
9.775171065493646,9.775171065493646,9.775171065493646,4.887585532746823,9.775171065493646,4.887585532746823,0.0
9.775171065493646,4.887585532746823,4.887585532746823,4.887585532746823,4.887585532746823,0.0,4.887585532746823
4.887585532746823,4.887585532746823,0.0,4.887585532746823,9.775171065493646,9.775171065493646,58.651026392961874
9.775171065493646,0.0,14.662756598240469,4.887585532746823,4.887585532746823,0.0,14.662756598240469
9.775171065493646,9.775171065493646,9.775171065493646,9.775171065493646,4.887585532746823,9.775171065493646,9.775171065493646
19.550342130987293,14.662756598240469,9.775171065493646,9.775171065493646,14.662756598240469,4.887585532746823,4.887585532746823
24.437927663734115,9.775171065493646,9.775171065493646,4.887585532746823,4.887585532746823,0.0,19.550342130987293
4.887585532746823,0.0,9.775171065493646,4.887585532746823,9.775171065493646,4.887585532746823,43.98826979472141
4.887585532746823,58.651026392961874,9.775171065493646,0.0,4.887585532746823,19.550342130987293,19.550342130987293
9.775171065493646,9.775171065493646,4.887585532746823,4.887585532746823,9.775171065493646,0.0,43.98826979472141
0.0,4.887585532746823,14.662756598240469,4.887585532746823,0.0,9.775171065493646,29.325513196480937
9.775171065493646,4.887585532746823,19.550342130987293,4.887585532746823,0.0,87.97653958944282,43.98826979472141
9.775171065493646,4.887585532746823,9.775171065493646,29.325513196480937,9.775171065493646,4.887585532746823,4.887585532746823
34.21309872922776,19.550342130987293,4.887585532746823,4.887585532746823,9.775171065493646,9.775171065493646,0.0
43.98826979472141,19.550342130987293,0.0,4.887585532746823,0.0,24.437927663734115,68.42619745845552
14.662756598240469,4.887585532746823,4.887585532746823,19.550342130987293,4.887585532746823,9.775171065493646,24.437927663734115
4.887585532746823,0.0,9.775171065493646,4.887585532746823,9.775171065493646,24.437927663734115,4.887585532746823
9.775171065493646,4.887585532746823,29.325513196480937,9.775171065493646,9.775171065493646,9.775171065493646,4.887585532746823
19.550342130987293,14.662756598240469,9.775171065493646,0.0,4.887585532746823,0.0,39.100684261974585
43.98826979472141,4.887585532746823,4.887585532746823,0.0,0.0,0.0,107.52688172043011
4.887585532746823,9.775171065493646,14.662756598240469,4.887585532746823,9.775171065493646,19.550342130987293,14.662756598240469
4.887585532746823,19.550342130987293,14.662756598240469,4.887585532746823,0.0,175.95307917888564,29.325513196480937
4.887585532746823,34.21309872922776,4.887585532746823,9.775171065493646,4.887585532746823,14.662756598240469,9.775171065493646
14.662756598240469,9.775171065493646,4.887585532746823,4.887585532746823,0.0,4.887585532746823,83.08895405669598
4.887585532746823,4.887585532746823,19.550342130987293,4.887585532746823,9.775171065493646,4.887585532746823,24.437927663734115
0.0,4.887585532746823,4.887585532746823,4.887585532746823,9.775171065493646,9.775171065493646,9.775171065493646
0.0,4.887585532746823,0.0,0.0,4.887585532746823,4.887585532746823,9.775171065493646
19.550342130987293,0.0,4.887585532746823,24.437927663734115,19.550342130987293,9.775171065493646,4.887585532746823
39.100684261974585,0.0,9.775171065493646,9.775171065493646,24.437927663734115,9.775171065493646,14.662756598240469
14.662756598240469,0.0,0.0,0.0,9.775171065493646,0.0,34.21309872922776
9.775171065493646,0.0,14.662756598240469,0.0,4.887585532746823,0.0,24.437927663734115
4.887585532746823,0.0,29.325513196480937,0.0,0.0,9.775171065493646,4.887585532746823
9.775171065493646,19.550342130987293,4.887585532746823,0.0,9.775171065493646,9.775171065493646,87.97653958944282
4.887585532746823,34.21309872922776,19.550342130987293,68.42619745845552,0.0,4.887585532746823,14.662756598240469
4.887585532746823,4.887585532746823,0.0,24.437927663734115,14.662756598240469,4.887585532746823,122.18963831867057
9.775171065493646,0.0,0.0,4.887585532746823,4.887585532746823,4.887585532746823,19.550342130987293
14.662756598240469,4.887585532746823,14.662756598240469,4.887585532746823,0.0,24.437927663734115,4.887585532746823
58.651026392961874,0.0,14.662756598240469,0.0,4.887585532746823,58.651026392961874,0.0
9.775171065493646,4.887585532746823,0.0,9.775171065493646,9.775171065493646,0.0,14.662756598240469
0.0,0.0,4.887585532746823,4.887585532746823,9.775171065493646,14.662756598240469,9.775171065493646
4.887585532746823,4.887585532746823,24.437927663734115,4.887585532746823,9.775171065493646,9.775171065493646,117.30205278592375
4.887585532746823,9.775171065493646,53.763440860215056,14.662756598240469,24.437927663734115,9.775171065493646,14.662756598240469
4.887585532746823,4.887585532746823,9.775171065493646,0.0,0.0,4.887585532746823,0.0
4.887585532746823,4.887585532746823,4.887585532746823,9.775171065493646,4.887585532746823,4.887585532746823,24.437927663734115
14.662756598240469,9.775171065493646,4.887585532746823,4.887585532746823,4.887585532746823,9.775171065493646,24.437927663734115
9.775171065493646,9.775171065493646,0.0,14.662756598240469,4.887585532746823,4.887585532746823,14.662756598240469
4.887585532746823,4.887585532746823,0.0,29.325513196480937,0.0,14.662756598240469,9.775171065493646
19.550342130987293,4.887585532746823,4.887585532746823,4.887585532746823,0.0,9.775171065493646,24.437927663734115
4.887585532746823,4.887585532746823,14.662756598240469,4.887585532746823,0.0,0.0,19.550342130987293
14.662756598240469,14.662756598240469,14.662756598240469,0.0,14.662756598240469,9.775171065493646,34.21309872922776
29.325513196480937,9.775171065493646,4.887585532746823,4.887585532746823,14.662756598240469,0.0,34.21309872922776
4.887585532746823,0.0,4.887585532746823,4.887585532746823,9.775171065493646,4.887585532746823,4.887585532746823
4.887585532746823,9.775171065493646,9.775171065493646,4.887585532746823,0.0,29.325513196480937,4.887585532746823
19.550342130987293,0.0,9.775171065493646,4.887585532746823,0.0,9.775171065493646,0.0
29.325513196480937,4.887585532746823,9.775171065493646,0.0,4.887585532746823,0.0,14.662756598240469
9.775171065493646,9.775171065493646,4.887585532746823,0.0,4.887585532746823,19.550342130987293,29.325513196480937
9.775171065493646,4.887585532746823,9.775171065493646,0.0,9.775171065493646,9.775171065493646,34.21309872922776
9.775171065493646,9.775171065493646,29.325513196480937,29.325513196480937,0.0,4.887585532746823,9.775171065493646
9.775171065493646,4.887585532746823,9.775171065493646,73.31378299120234,29.325513196480937,0.0,229.7165200391007
4.887585532746823,9.775171065493646,19.550342130987293,4.887585532746823,4.887585532746823,4.887585532746823,29.325513196480937
14.662756598240469,219.94134897360706,14.662756598240469,39.100684261974585,9.775171065493646,0.0,14.662756598240469
4.887585532746823,87.97653958944282,4.887585532746823,48.87585532746823,24.437927663734115,4.887585532746823,29.325513196480937
4.887585532746823,19.550342130987293,4.887585532746823,0.0,9.775171065493646,4.887585532746823,0.0
0.0,9.775171065493646,14.662756598240469,4.887585532746823,4.887585532746823,24.437927663734115,0.0
19.550342130987293,4.887585532746823,48.87585532746823,4.887585532746823,4.887585532746823,34.21309872922776,29.325513196480937
4.887585532746823,9.775171065493646,9.775171065493646,0.0,9.775171065493646,4.887585532746823,9.775171065493646
39.100684261974585,0.0,9.775171065493646,14.662756598240469,4.887585532746823,4.887585532746823,48.87585532746823
9.775171065493646,9.775171065493646,4.887585532746823,0.0,0.0,9.775171065493646,4.887585532746823
4.887585532746823,9.775171065493646,9.775171065493646,4.887585532746823,9.775171065493646,4.887585532746823,9.775171065493646
0.0,4.887585532746823,24.437927663734115,9.775171065493646,9.775171065493646,9.775171065493646,9.775171065493646
14.662756598240469,4.887585532746823,14.662756598240469,43.98826979472141,4.887585532746823,4.887585532746823,0.0
4.887585532746823,9.775171065493646,4.887585532746823,48.87585532746823,14.662756598240469,4.887585532746823,43.98826979472141
4.887585532746823,4.887585532746823,4.887585532746823,14.662756598240469,4.887585532746823,9.775171065493646,63.53861192570871
4.887585532746823,19.550342130987293,4.887585532746823,0.0,4.887585532746823,9.775171065493646,39.100684261974585
4.887585532746823,4.887585532746823,9.775171065493646,9.775171065493646,29.325513196480937,9.775171065493646,0.0
19.550342130987293,4.887585532746823,4.887585532746823,9.775171065493646,34.21309872922776,0.0,9.775171065493646
19.550342130987293,4.887585532746823,34.21309872922776,9.775171065493646,4.887585532746823,9.775171065493646,9.775171065493646
14.662756598240469,0.0,9.775171065493646,9.775171065493646,4.887585532746823,4.887585532746823,19.550342130987293
4.887585532746823,4.887585532746823,4.887585532746823,4.887585532746823,0.0,4.887585532746823,0.0
4.887585532746823,4.887585532746823,9.775171065493646,9.775171065493646,0.0,4.887585532746823,63.53861192570871
4.887585532746823,4.887585532746823,0.0,29.325513196480937,0.0,0.0,87.97653958944282
19.550342130987293,0.0,9.775171065493646,249.26686217008796,4.887585532746823,0.0,9.775171065493646
4.887585532746823,24.437927663734115,4.887585532746823,24.437927663734115,14.662756598240469,4.887585532746823,63.53861192570871
9.775171065493646,9.775171065493646,0.0,9.775171065493646,4.887585532746823,4.887585532746823,107.52688172043011
4.887585532746823,9.775171065493646,0.0,0.0,9.775171065493646,14.662756598240469,14.662756598240469
0.0,4.887585532746823,4.887585532746823,4.887585532746823,4.887585532746823,4.887585532746823,4.887585532746823
4.887585532746823,9.775171065493646,9.775171065493646,4.887585532746823,4.887585532746823,0.0,29.325513196480937
48.87585532746823,24.437927663734115,4.887585532746823,4.887585532746823,14.662756598240469,19.550342130987293,4.887585532746823
14.662756598240469,9.775171065493646,19.550342130987293,9.775171065493646,9.775171065493646,4.887585532746823,0.0
0.0,4.887585532746823,19.550342130987293,0.0,4.887585532746823,4.887585532746823,19.550342130987293
4.887585532746823,4.887585532746823,9.775171065493646,4.887585532746823,4.887585532746823,4.887585532746823,19.550342130987293
4.887585532746823,4.887585532746823,4.887585532746823,9.775171065493646,9.775171065493646,4.887585532746823,9.775171065493646
19.550342130987293,4.887585532746823,4.887585532746823,4.887585532746823,4.887585532746823,0.0,4.887585532746823
4.887585532746823,9.775171065493646,14.662756598240469,0.0,4.887585532746823,4.887585532746823,83.08895405669598
0.0,0.0,4.887585532746823,0.0,0.0,34.21309872922776,29.325513196480937
14.662756598240469,4.887585532746823,19.550342130987293,4.887585532746823,29.325513196480937,4.887585532746823,0.0
19.550342130987293,0.0,24.437927663734115,4.887585532746823,4.887585532746823,4.887585532746823,14.662756598240469
19.550342130987293,4.887585532746823,29.325513196480937,29.325513196480937,0.0,4.887585532746823,0.0
9.775171065493646,0.0,4.887585532746823,4.887585532746823,4.887585532746823,19.550342130987293,166.17790811339196
0.0,19.550342130987293,4.887585532746823,4.887585532746823,24.437927663734115,19.550342130987293,78.20136852394917
4.887585532746823,4.887585532746823,4.887585532746823,0.0,14.662756598240469,9.775171065493646,24.437927663734115
4.887585532746823,4.887585532746823,14.662756598240469,0.0,4.887585532746823,4.887585532746823,9.775171065493646
9.775171065493646,4.887585532746823,29.325513196480937,9.775171065493646,9.775171065493646,0.0,9.775171065493646
356.7937438905181,4.887585532746823,9.775171065493646,4.887585532746823,24.437927663734115,4.887585532746823,0.0
131.96480938416423,0.0,4.887585532746823,0.0,19.550342130987293,4.887585532746823,29.325513196480937
63.53861192570871,19.550342130987293,0.0,4.887585532746823,4.887585532746823,9.775171065493646,24.437927663734115
9.775171065493646,4.887585532746823,14.662756598240469,0.0,4.887585532746823,9.775171065493646,14.662756598240469
4.887585532746823,9.775171065493646,9.775171065493646,0.0,4.887585532746823,4.887585532746823,4.887585532746823
4.887585532746823,4.887585532746823,4.887585532746823,9.775171065493646,19.550342130987293,68.42619745845552,4.887585532746823
14.662756598240469,9.775171065493646,4.887585532746823,0.0,0.0,19.550342130987293,14.662756598240469
9.775171065493646,9.775171065493646,39.100684261974585,9.775171065493646,0.0,4.887585532746823,48.87585532746823
9.775171065493646,14.662756598240469,4.887585532746823,0.0,4.887585532746823,4.887585532746823,29.325513196480937
4.887585532746823,4.887585532746823,19.550342130987293,24.437927663734115,4.887585532746823,9.775171065493646,0.0
14.662756598240469,4.887585532746823,4.887585532746823,19.550342130987293,0.0,4.887585532746823,0.0
9.775171065493646,4.887585532746823,9.775171065493646,0.0,24.437927663734115,4.887585532746823,0.0
0.0,9.775171065493646,0.0,9.775171065493646,19.550342130987293,4.887585532746823,9.775171065493646
0.0,0.0,9.775171065493646,0.0,9.775171065493646,4.887585532746823,73.31378299120234
34.21309872922776,4.887585532746823,4.887585532746823,9.775171065493646,9.775171065493646,4.887585532746823,24.437927663734115
19.550342130987293,4.887585532746823,4.887585532746823,19.550342130987293,9.775171065493646,24.437927663734115,4.887585532746823
0.0,9.775171065493646,4.887585532746823,43.98826979472141,9.775171065493646,4.887585532746823,9.775171065493646
14.662756598240469,4.887585532746823,4.887585532746823,9.775171065493646,4.887585532746823,14.662756598240469,14.662756598240469
14.662756598240469,19.550342130987293,19.550342130987293,4.887585532746823,9.775171065493646,9.775171065493646,34.21309872922776
58.651026392961874,9.775171065493646,9.775171065493646,14.662756598240469,4.887585532746823,4.887585532746823,24.437927663734115
9.775171065493646,0.0,9.775171065493646,9.775171065493646,9.775171065493646,4.887585532746823,4.887585532746823
9.775171065493646,0.0,4.887585532746823,4.887585532746823,4.887585532746823,4.887585532746823,24.437927663734115
9.775171065493646,9.775171065493646,19.550342130987293,0.0,9.775171065493646,4.887585532746823,14.662756598240469
4.887585532746823,0.0,19.550342130987293,4.887585532746823,9.775171065493646,4.887585532746823,9.775171065493646
9.775171065493646,9.775171065493646,4.887585532746823,9.775171065493646,4.887585532746823,4.887585532746823,19.550342130987293
9.775171065493646,0.0,39.100684261974585,9.775171065493646,9.775171065493646,0.0,78.20136852394917
4.887585532746823,4.887585532746823,39.100684261974585,4.887585532746823,0.0,0.0,63.53861192570871
0.0,4.887585532746823,9.775171065493646,9.775171065493646,4.887585532746823,19.550342130987293,53.763440860215056
4.887585532746823,53.763440860215056,4.887585532746823,0.0,4.887585532746823,14.662756598240469,4.887585532746823
14.662756598240469,14.662756598240469,19.550342130987293,0.0,4.887585532746823,9.775171065493646,9.775171065493646
14.662756598240469,4.887585532746823,14.662756598240469,9.775171065493646,4.887585532746823,0.0,4.887585532746823
14.662756598240469,9.775171065493646,4.887585532746823,9.775171065493646,4.887585532746823,43.98826979472141,4.887585532746823
0.0,4.887585532746823,9.775171065493646,14.662756598240469,4.887585532746823,9.775171065493646,4.887585532746823
29.325513196480937,53.763440860215056,4.887585532746823,4.887585532746823,9.775171065493646,4.887585532746823,63.53861192570871
19.550342130987293,9.775171065493646,14.662756598240469,0.0,19.550342130987293,0.0,14.662756598240469
9.775171065493646,9.775171065493646,4.887585532746823,4.887585532746823,9.775171065493646,9.775171065493646,4.887585532746823
0.0,0.0,14.662756598240469,4.887585532746823,4.887585532746823,9.775171065493646,9.775171065493646
4.887585532746823,9.775171065493646,4.887585532746823,4.887585532746823,14.662756598240469,4.887585532746823,0.0
4.887585532746823,14.662756598240469,4.887585532746823,9.775171065493646,24.437927663734115,9.775171065493646,185.7282502443793
0.0,9.775171065493646,9.775171065493646,0.0,9.775171065493646,9.775171065493646,19.550342130987293
4.887585532746823,4.887585532746823,14.662756598240469,14.662756598240469,9.775171065493646,19.550342130987293,4.887585532746823
63.53861192570871,4.887585532746823,63.53861192570871,9.775171065493646,9.775171065493646,0.0,19.550342130987293
9.775171065493646,0.0,9.775171065493646,0.0,4.887585532746823,19.550342130987293,4.887585532746823
0.0,4.887585532746823,9.775171065493646,9.775171065493646,9.775171065493646,43.98826979472141,9.775171065493646
9.775171065493646,0.0,0.0,4.887585532746823,14.662756598240469,9.775171065493646,43.98826979472141
19.550342130987293,24.437927663734115,14.662756598240469,4.887585532746823,24.437927663734115,0.0,4.887585532746823
19.550342130987293,4.887585532746823,9.775171065493646,4.887585532746823,14.662756598240469,4.887585532746823,0.0
4.887585532746823,4.887585532746823,4.887585532746823,14.662756598240469,4.887585532746823,9.775171065493646,58.651026392961874
4.887585532746823,9.775171065493646,14.662756598240469,4.887585532746823,9.775171065493646,4.887585532746823,9.775171065493646
19.550342130987293,9.775171065493646,9.775171065493646,9.775171065493646,4.887585532746823,14.662756598240469,9.775171065493646
39.100684261974585,4.887585532746823,19.550342130987293,4.887585532746823,9.775171065493646,4.887585532746823,4.887585532746823
4.887585532746823,4.887585532746823,9.775171065493646,9.775171065493646,0.0,4.887585532746823,4.887585532746823
4.887585532746823,4.887585532746823,4.887585532746823,4.887585532746823,24.437927663734115,9.775171065493646,127.07722385141741
9.775171065493646,0.0,9.775171065493646,34.21309872922776,19.550342130987293,0.0,58.651026392961874
0.0,0.0,9.775171065493646,24.437927663734115,4.887585532746823,4.887585532746823,4.887585532746823
146.6275659824047,34.21309872922776,19.550342130987293,9.775171065493646,4.887585532746823,4.887585532746823,4.887585532746823
9.775171065493646,9.775171065493646,9.775171065493646,0.0,24.437927663734115,34.21309872922776,4.887585532746823
39.100684261974585,0.0,14.662756598240469,4.887585532746823,4.887585532746823,4.887585532746823,4.887585532746823
39.100684261974585,0.0,4.887585532746823,4.887585532746823,14.662756598240469,0.0,4.887585532746823
4.887585532746823,48.87585532746823,9.775171065493646,4.887585532746823,9.775171065493646,0.0,4.887585532746823
4.887585532746823,14.662756598240469,9.775171065493646,4.887585532746823,9.775171065493646,0.0,58.651026392961874
9.775171065493646,9.775171065493646,34.21309872922776,0.0,9.775171065493646,4.887585532746823,58.651026392961874
9.775171065493646,0.0,24.437927663734115,4.887585532746823,14.662756598240469,4.887585532746823,87.97653958944282
4.887585532746823,9.775171065493646,14.662756598240469,9.775171065493646,4.887585532746823,0.0,9.775171065493646
4.887585532746823,34.21309872922776,9.775171065493646,14.662756598240469,4.887585532746823,0.0,48.87585532746823
24.437927663734115,224.82893450635387,14.662756598240469,4.887585532746823,4.887585532746823,0.0,9.775171065493646
34.21309872922776,68.42619745845552,0.0,4.887585532746823,14.662756598240469,9.775171065493646,4.887585532746823
19.550342130987293,14.662756598240469,4.887585532746823,4.887585532746823,4.887585532746823,9.775171065493646,24.437927663734115
4.887585532746823,4.887585532746823,0.0,4.887585532746823,34.21309872922776,4.887585532746823,48.87585532746823
9.775171065493646,9.775171065493646,4.887585532746823,0.0,19.550342130987293,4.887585532746823,14.662756598240469
24.437927663734115,4.887585532746823,4.887585532746823,0.0,14.662756598240469,9.775171065493646,4.887585532746823
63.53861192570871,0.0,63.53861192570871,4.887585532746823,0.0,9.775171065493646,0.0
4.887585532746823,4.887585532746823,4.887585532746823,4.887585532746823,9.775171065493646,0.0,9.775171065493646
9.775171065493646,34.21309872922776,9.775171065493646,9.775171065493646,9.775171065493646,0.0,0.0
4.887585532746823,9.775171065493646,0.0,63.53861192570871,0.0,29.325513196480937,19.550342130987293
0.0,0.0,14.662756598240469,4.887585532746823,0.0,9.775171065493646,78.20136852394917
9.775171065493646,0.0,4.887585532746823,4.887585532746823,4.887585532746823,4.887585532746823,34.21309872922776
4.887585532746823,0.0,34.21309872922776,9.775171065493646,4.887585532746823,9.775171065493646,14.662756598240469
34.21309872922776,4.887585532746823,14.662756598240469,4.887585532746823,9.775171065493646,4.887585532746823,9.775171065493646
29.325513196480937,9.775171065493646,0.0,4.887585532746823,9.775171065493646,4.887585532746823,73.31378299120234
63.53861192570871,24.437927663734115,4.887585532746823,0.0,19.550342130987293,4.887585532746823,19.550342130987293
9.775171065493646,4.887585532746823,19.550342130987293,19.550342130987293,29.325513196480937,4.887585532746823,34.21309872922776
4.887585532746823,9.775171065493646,39.100684261974585,4.887585532746823,14.662756598240469,4.887585532746823,14.662756598240469
0.0,4.887585532746823,29.325513196480937,4.887585532746823,0.0,4.887585532746823,4.887585532746823
0.0,4.887585532746823,4.887585532746823,0.0,0.0,43.98826979472141,19.550342130987293
24.437927663734115,9.775171065493646,0.0,4.887585532746823,4.887585532746823,48.87585532746823,24.437927663734115
4.887585532746823,9.775171065493646,0.0,9.775171065493646,4.887585532746823,4.887585532746823,9.775171065493646
9.775171065493646,9.775171065493646,24.437927663734115,0.0,4.887585532746823,4.887585532746823,29.325513196480937
4.887585532746823,9.775171065493646,48.87585532746823,0.0,4.887585532746823,4.887585532746823,19.550342130987293
9.775171065493646,14.662756598240469,14.662756598240469,14.662756598240469,4.887585532746823,4.887585532746823,19.550342130987293
4.887585532746823,9.775171065493646,4.887585532746823,4.887585532746823,24.437927663734115,4.887585532746823,4.887585532746823
19.550342130987293,9.775171065493646,0.0,4.887585532746823,19.550342130987293,4.887585532746823,39.100684261974585
4.887585532746823,4.887585532746823,4.887585532746823,0.0,4.887585532746823,0.0,151.51515151515153
24.437927663734115,9.775171065493646,53.763440860215056,4.887585532746823,4.887585532746823,9.775171065493646,14.662756598240469
4.887585532746823,9.775171065493646,9.775171065493646,4.887585532746823,4.887585532746823,4.887585532746823,9.775171065493646
4.887585532746823,9.775171065493646,0.0,0.0,0.0,4.887585532746823,19.550342130987293
9.775171065493646,0.0,4.887585532746823,9.775171065493646,4.887585532746823,14.662756598240469,4.887585532746823
298.14271749755625,4.887585532746823,4.887585532746823,9.775171065493646,4.887585532746823,19.550342130987293,78.20136852394917
14.662756598240469,4.887585532746823,9.775171065493646,4.887585532746823,4.887585532746823,14.662756598240469,87.97653958944282
4.887585532746823,9.775171065493646,14.662756598240469,4.887585532746823,14.662756598240469,4.887585532746823,4.887585532746823
9.775171065493646,0.0,14.662756598240469,4.887585532746823,19.550342130987293,9.775171065493646,53.763440860215056
4.887585532746823,0.0,4.887585532746823,0.0,29.325513196480937,9.775171065493646,87.97653958944282
9.775171065493646,9.775171065493646,4.887585532746823,9.775171065493646,9.775171065493646,0.0,14.662756598240469
0.0,19.550342130987293,0.0,9.775171065493646,9.775171065493646,4.887585532746823,4.887585532746823
9.775171065493646,9.775171065493646,9.775171065493646,24.437927663734115,19.550342130987293,9.775171065493646,78.20136852394917
9.775171065493646,4.887585532746823,43.98826979472141,14.662756598240469,43.98826979472141,4.887585532746823,24.437927663734115
508.30889540566966,9.775171065493646,4.887585532746823,0.0,14.662756598240469,4.887585532746823,19.550342130987293
190.6158357771261,9.775171065493646,14.662756598240469,4.887585532746823,4.887585532746823,4.887585532746823,9.775171065493646
29.325513196480937,4.887585532746823,9.775171065493646,4.887585532746823,0.0,9.775171065493646,0.0
9.775171065493646,4.887585532746823,9.775171065493646,9.775171065493646,0.0,9.775171065493646,0.0
39.100684261974585,4.887585532746823,4.887585532746823,0.0,9.775171065493646,0.0,24.437927663734115
24.437927663734115,9.775171065493646,9.775171065493646,0.0,9.775171065493646,4.887585532746823,43.98826979472141
9.775171065493646,4.887585532746823,4.887585532746823,4.887585532746823,24.437927663734115,4.887585532746823,78.20136852394917
9.775171065493646,4.887585532746823,9.775171065493646,0.0,24.437927663734115,0.0,9.775171065493646
4.887585532746823,4.887585532746823,43.98826979472141,0.0,4.887585532746823,4.887585532746823,34.21309872922776
9.775171065493646,9.775171065493646,29.325513196480937,4.887585532746823,0.0,0.0,4.887585532746823
9.775171065493646,9.775171065493646,4.887585532746823,9.775171065493646,4.887585532746823,0.0,24.437927663734115
19.550342130987293,19.550342130987293,4.887585532746823,14.662756598240469,14.662756598240469,4.887585532746823,14.662756598240469
24.437927663734115,14.662756598240469,0.0,4.887585532746823,0.0,4.887585532746823,19.550342130987293
14.662756598240469,9.775171065493646,4.887585532746823,9.775171065493646,4.887585532746823,9.775171065493646,0.0
4.887585532746823,0.0,14.662756598240469,4.887585532746823,4.887585532746823,4.887585532746823,29.325513196480937
0.0,4.887585532746823,0.0,9.775171065493646,19.550342130987293,9.775171065493646,19.550342130987293
4.887585532746823,0.0,24.437927663734115,9.775171065493646,9.775171065493646,4.887585532746823,0.0
43.98826979472141,9.775171065493646,4.887585532746823,9.775171065493646,9.775171065493646,4.887585532746823,117.30205278592375
14.662756598240469,19.550342130987293,4.887585532746823,9.775171065493646,4.887585532746823,0.0,14.662756598240469
9.775171065493646,14.662756598240469,4.887585532746823,4.887585532746823,9.775171065493646,0.0,34.21309872922776
4.887585532746823,4.887585532746823,4.887585532746823,9.775171065493646,0.0,0.0,29.325513196480937
4.887585532746823,4.887585532746823,29.325513196480937,14.662756598240469,0.0,9.775171065493646,24.437927663734115
14.662756598240469,9.775171065493646,0.0,4.887585532746823,14.662756598240469,4.887585532746823,4.887585532746823
4.887585532746823,9.775171065493646,4.887585532746823,4.887585532746823,0.0,0.0,4.887585532746823
4.887585532746823,9.775171065493646,4.887585532746823,9.775171065493646,9.775171065493646,39.100684261974585,9.775171065493646
0.0,4.887585532746823,4.887585532746823,14.662756598240469,9.775171065493646,9.775171065493646,9.775171065493646
14.662756598240469,4.887585532746823,4.887585532746823,9.775171065493646,9.775171065493646,0.0,29.325513196480937
19.550342130987293,0.0,19.550342130987293,9.775171065493646,9.775171065493646,9.775171065493646,29.325513196480937
4.887585532746823,4.887585532746823,4.887585532746823,0.0,0.0,4.887585532746823,19.550342130987293
19.550342130987293,0.0,4.887585532746823,4.887585532746823,9.775171065493646,4.887585532746823,9.775171065493646
9.775171065493646,4.887585532746823,4.887585532746823,0.0,9.775171065493646,9.775171065493646,9.775171065493646
4.887585532746823,0.0,9.775171065493646,0.0,19.550342130987293,9.775171065493646,63.53861192570871
4.887585532746823,4.887585532746823,4.887585532746823,9.775171065493646,14.662756598240469,9.775171065493646,4.887585532746823
0.0,0.0,4.887585532746823,4.887585532746823,24.437927663734115,19.550342130987293,78.20136852394917
14.662756598240469,14.662756598240469,0.0,4.887585532746823,0.0,14.662756598240469,39.100684261974585
24.437927663734115,43.98826979472141,4.887585532746823,4.887585532746823,4.887585532746823,9.775171065493646,58.651026392961874
4.887585532746823,9.775171065493646,4.887585532746823,9.775171065493646,4.887585532746823,0.0,9.775171065493646
4.887585532746823,9.775171065493646,4.887585532746823,4.887585532746823,87.97653958944282,4.887585532746823,4.887585532746823
4.887585532746823,0.0,9.775171065493646,9.775171065493646,9.775171065493646,0.0,34.21309872922776
4.887585532746823,4.887585532746823,4.887585532746823,4.887585532746823,4.887585532746823,0.0,73.31378299120234
9.775171065493646,19.550342130987293,9.775171065493646,4.887585532746823,0.0,4.887585532746823,48.87585532746823
4.887585532746823,0.0,4.887585532746823,24.437927663734115,4.887585532746823,4.887585532746823,14.662756598240469
9.775171065493646,9.775171065493646,0.0,34.21309872922776,0.0,9.775171065493646,14.662756598240469
29.325513196480937,4.887585532746823,14.662756598240469,4.887585532746823,0.0,34.21309872922776,9.775171065493646
4.887585532746823,0.0,0.0,9.775171065493646,9.775171065493646,4.887585532746823,53.763440860215056
9.775171065493646,4.887585532746823,4.887585532746823,0.0,9.775171065493646,0.0,97.75171065493646
4.887585532746823,9.775171065493646,4.887585532746823,0.0,0.0,4.887585532746823,14.662756598240469
0.0,0.0,4.887585532746823,9.775171065493646,4.887585532746823,4.887585532746823,9.775171065493646
29.325513196480937,0.0,14.662756598240469,4.887585532746823,4.887585532746823,0.0,0.0
14.662756598240469,4.887585532746823,9.775171065493646,0.0,14.662756598240469,4.887585532746823,9.775171065493646
4.887585532746823,9.775171065493646,4.887585532746823,0.0,4.887585532746823,4.887585532746823,73.31378299120234
14.662756598240469,9.775171065493646,9.775171065493646,9.775171065493646,9.775171065493646,4.887585532746823,9.775171065493646
4.887585532746823,0.0,4.887585532746823,4.887585532746823,9.775171065493646,4.887585532746823,4.887585532746823
14.662756598240469,9.775171065493646,4.887585532746823,4.887585532746823,9.775171065493646,4.887585532746823,19.550342130987293
14.662756598240469,4.887585532746823,48.87585532746823,4.887585532746823,9.775171065493646,43.98826979472141,19.550342130987293
9.775171065493646,0.0,9.775171065493646,9.775171065493646,9.775171065493646,9.775171065493646,9.775171065493646
19.550342130987293,0.0,4.887585532746823,4.887585532746823,9.775171065493646,0.0,14.662756598240469
9.775171065493646,9.775171065493646,24.437927663734115,9.775171065493646,0.0,0.0,24.437927663734115
4.887585532746823,0.0,4.887585532746823,4.887585532746823,19.550342130987293,0.0,43.98826979472141
19.550342130987293,9.775171065493646,0.0,9.775171065493646,0.0,4.887585532746823,24.437927663734115
9.775171065493646,9.775171065493646,4.887585532746823,9.775171065493646,4.887585532746823,9.775171065493646,9.775171065493646
4.887585532746823,43.98826979472141,4.887585532746823,4.887585532746823,4.887585532746823,0.0,0.0
4.887585532746823,4.887585532746823,4.887585532746823,9.775171065493646,4.887585532746823,0.0,29.325513196480937
24.437927663734115,4.887585532746823,9.775171065493646,9.775171065493646,0.0,4.887585532746823,24.437927663734115
19.550342130987293,14.662756598240469,9.775171065493646,0.0,0.0,9.775171065493646,34.21309872922776
4.887585532746823,4.887585532746823,9.775171065493646,4.887585532746823,34.21309872922776,24.437927663734115,48.87585532746823
4.887585532746823,9.775171065493646,14.662756598240469,4.887585532746823,14.662756598240469,19.550342130987293,4.887585532746823
0.0,0.0,9.775171065493646,0.0,4.887585532746823,9.775171065493646,39.100684261974585
14.662756598240469,205.27859237536657,4.887585532746823,4.887585532746823,4.887585532746823,0.0,19.550342130987293
4.887585532746823,48.87585532746823,0.0,14.662756598240469,9.775171065493646,9.775171065493646,48.87585532746823
9.775171065493646,14.662756598240469,4.887585532746823,24.437927663734115,14.662756598240469,14.662756598240469,14.662756598240469
4.887585532746823,4.887585532746823,19.550342130987293,9.775171065493646,0.0,4.887585532746823,4.887585532746823
4.887585532746823,9.775171065493646,48.87585532746823,9.775171065493646,0.0,0.0,29.325513196480937
4.887585532746823,4.887585532746823,4.887585532746823,29.325513196480937,0.0,4.887585532746823,4.887585532746823
9.775171065493646,4.887585532746823,24.437927663734115,9.775171065493646,19.550342130987293,9.775171065493646,97.75171065493646
0.0,9.775171065493646,24.437927663734115,4.887585532746823,9.775171065493646,4.887585532746823,9.775171065493646
9.775171065493646,9.775171065493646,9.775171065493646,0.0,9.775171065493646,0.0,43.98826979472141
0.0,9.775171065493646,0.0,0.0,9.775171065493646,9.775171065493646,53.763440860215056
29.325513196480937,4.887585532746823,9.775171065493646,0.0,34.21309872922776,4.887585532746823,4.887585532746823
14.662756598240469,0.0,9.775171065493646,4.887585532746823,9.775171065493646,9.775171065493646,4.887585532746823
4.887585532746823,4.887585532746823,4.887585532746823,0.0,4.887585532746823,9.775171065493646,4.887585532746823
4.887585532746823,4.887585532746823,9.775171065493646,0.0,9.775171065493646,4.887585532746823,73.31378299120234
4.887585532746823,0.0,4.887585532746823,9.775171065493646,4.887585532746823,4.887585532746823,48.87585532746823
0.0,4.887585532746823,9.775171065493646,24.437927663734115,4.887585532746823,24.437927663734115,0.0
0.0,0.0,14.662756598240469,4.887585532746823,14.662756598240469,9.775171065493646,4.887585532746823
34.21309872922776,0.0,4.887585532746823,0.0,9.775171065493646,14.662756598240469,0.0
39.100684261974585,9.775171065493646,9.775171065493646,9.775171065493646,0.0,14.662756598240469,19.550342130987293
48.87585532746823,19.550342130987293,4.887585532746823,14.662756598240469,9.775171065493646,0.0,4.887585532746823
9.775171065493646,19.550342130987293,4.887585532746823,9.775171065493646,4.887585532746823,9.775171065493646,9.775171065493646
9.775171065493646,4.887585532746823,29.325513196480937,4.887585532746823,4.887585532746823,9.775171065493646,4.887585532746823
4.887585532746823,0.0,4.887585532746823,4.887585532746823,24.437927663734115,9.775171065493646,29.325513196480937
9.775171065493646,4.887585532746823,4.887585532746823,4.887585532746823,9.775171065493646,4.887585532746823,29.325513196480937
4.887585532746823,9.775171065493646,4.887585532746823,9.775171065493646,9.775171065493646,4.887585532746823,92.86412512218965
9.775171065493646,4.887585532746823,9.775171065493646,0.0,0.0,29.325513196480937,39.100684261974585
4.887585532746823,4.887585532746823,14.662756598240469,4.887585532746823,9.775171065493646,24.437927663734115,97.75171065493646
9.775171065493646,4.887585532746823,4.887585532746823,4.887585532746823,4.887585532746823,4.887585532746823,87.97653958944282
9.775171065493646,9.775171065493646,9.775171065493646,14.662756598240469,4.887585532746823,4.887585532746823,4.887585532746823
9.775171065493646,4.887585532746823,4.887585532746823,4.887585532746823,4.887585532746823,9.775171065493646,9.775171065493646
9.775171065493646,9.775171065493646,0.0,4.887585532746823,9.775171065493646,4.887585532746823,68.42619745845552
19.550342130987293,4.887585532746823,9.775171065493646,0.0,4.887585532746823,0.0,14.662756598240469
9.775171065493646,73.31378299120234,9.775171065493646,0.0,9.775171065493646,4.887585532746823,63.53861192570871
0.0,24.437927663734115,9.775171065493646,0.0,19.550342130987293,9.775171065493646,9.775171065493646
0.0,4.887585532746823,4.887585532746823,0.0,9.775171065493646,0.0,4.887585532746823
19.550342130987293,9.775171065493646,9.775171065493646,0.0,14.662756598240469,9.775171065493646,14.662756598240469
4.887585532746823,0.0,4.887585532746823,29.325513196480937,4.887585532746823,0.0,43.98826979472141
0.0,0.0,9.775171065493646,4.887585532746823,24.437927663734115,24.437927663734115,34.21309872922776
14.662756598240469,0.0,0.0,4.887585532746823,9.775171065493646,9.775171065493646,14.662756598240469
39.100684261974585,4.887585532746823,9.775171065493646,4.887585532746823,9.775171065493646,4.887585532746823,4.887585532746823
278.5923753665689,4.887585532746823,39.100684261974585,4.887585532746823,9.775171065493646,9.775171065493646,14.662756598240469
141.73998044965788,4.887585532746823,9.775171065493646,4.887585532746823,4.887585532746823,0.0,9.775171065493646
29.325513196480937,9.775171065493646,9.775171065493646,4.887585532746823,9.775171065493646,4.887585532746823,4.887585532746823
14.662756598240469,4.887585532746823,0.0,24.437927663734115,19.550342130987293,4.887585532746823,19.550342130987293
9.775171065493646,9.775171065493646,4.887585532746823,29.325513196480937,4.887585532746823,0.0,19.550342130987293
9.775171065493646,9.775171065493646,4.887585532746823,9.775171065493646,4.887585532746823,0.0,63.53861192570871
19.550342130987293,14.662756598240469,14.662756598240469,4.887585532746823,4.887585532746823,4.887585532746823,9.775171065493646
14.662756598240469,43.98826979472141,9.775171065493646,14.662756598240469,4.887585532746823,9.775171065493646,39.100684261974585
14.662756598240469,9.775171065493646,4.887585532746823,9.775171065493646,19.550342130987293,4.887585532746823,68.42619745845552
4.887585532746823,4.887585532746823,0.0,4.887585532746823,9.775171065493646,9.775171065493646,4.887585532746823
9.775171065493646,9.775171065493646,4.887585532746823,4.887585532746823,9.775171065493646,0.0,9.775171065493646
9.775171065493646,9.775171065493646,9.775171065493646,0.0,0.0,4.887585532746823,4.887585532746823
0.0,4.887585532746823,24.437927663734115,4.887585532746823,0.0,0.0,0.0
9.775171065493646,0.0,14.662756598240469,9.775171065493646,9.775171065493646,4.887585532746823,0.0
29.325513196480937,4.887585532746823,4.887585532746823,0.0,4.887585532746823,4.887585532746823,4.887585532746823
73.31378299120234,4.887585532746823,4.887585532746823,9.775171065493646,9.775171065493646,0.0,4.887585532746823
4.887585532746823,4.887585532746823,14.662756598240469,9.775171065493646,4.887585532746823,9.775171065493646,83.08895405669598
4.887585532746823,0.0,34.21309872922776,9.775171065493646,0.0,0.0,78.20136852394917
0.0,24.437927663734115,9.775171065493646,4.887585532746823,4.887585532746823,9.775171065493646,4.887585532746823
4.887585532746823,4.887585532746823,4.887585532746823,0.0,4.887585532746823,9.775171065493646,24.437927663734115
4.887585532746823,4.887585532746823,4.887585532746823,0.0,39.100684261974585,29.325513196480937,19.550342130987293
9.775171065493646,19.550342130987293,53.763440860215056,9.775171065493646,9.775171065493646,9.775171065493646,43.98826979472141
0.0,4.887585532746823,19.550342130987293,9.775171065493646,14.662756598240469,4.887585532746823,9.775171065493646
14.662756598240469,4.887585532746823,4.887585532746823,4.887585532746823,4.887585532746823,4.887585532746823,24.437927663734115
24.437927663734115,14.662756598240469,4.887585532746823,9.775171065493646,0.0,9.775171065493646,19.550342130987293
24.437927663734115,9.775171065493646,0.0,0.0,0.0,0.0,0.0
9.775171065493646,0.0,19.550342130987293,9.775171065493646,14.662756598240469,19.550342130987293,39.100684261974585
0.0,9.775171065493646,14.662756598240469,4.887585532746823,4.887585532746823,4.887585532746823,39.100684261974585
4.887585532746823,4.887585532746823,19.550342130987293,0.0,9.775171065493646,4.887585532746823,4.887585532746823
19.550342130987293,9.775171065493646,9.775171065493646,24.437927663734115,4.887585532746823,9.775171065493646,4.887585532746823
53.763440860215056,9.775171065493646,0.0,9.775171065493646,19.550342130987293,9.775171065493646,4.887585532746823
14.662756598240469,39.100684261974585,9.775171065493646,4.887585532746823,19.550342130987293,4.887585532746823,87.97653958944282
4.887585532746823,14.662756598240469,24.437927663734115,4.887585532746823,4.887585532746823,4.887585532746823,58.651026392961874
9.775171065493646,4.887585532746823,14.662756598240469,9.775171065493646,4.887585532746823,0.0,39.100684261974585
9.775171065493646,0.0,4.887585532746823,0.0,4.887585532746823,14.662756598240469,24.437927663734115
19.550342130987293,4.887585532746823,4.887585532746823,9.775171065493646,4.887585532746823,0.0,4.887585532746823
19.550342130987293,0.0,0.0,9.775171065493646,9.775171065493646,4.887585532746823,0.0
9.775171065493646,9.775171065493646,24.437927663734115,0.0,19.550342130987293,9.775171065493646,78.20136852394917
4.887585532746823,4.887585532746823,14.662756598240469,9.775171065493646,0.0,9.775171065493646,4.887585532746823
9.775171065493646,4.887585532746823,0.0,34.21309872922776,0.0,29.325513196480937,4.887585532746823
0.0,4.887585532746823,9.775171065493646,9.775171065493646,4.887585532746823,19.550342130987293,14.662756598240469
9.775171065493646,4.887585532746823,58.651026392961874,9.775171065493646,9.775171065493646,4.887585532746823,9.775171065493646
4.887585532746823,9.775171065493646,9.775171065493646,4.887585532746823,9.775171065493646,4.887585532746823,53.763440860215056
4.887585532746823,0.0,4.887585532746823,9.775171065493646,9.775171065493646,4.887585532746823,24.437927663734115
14.662756598240469,4.887585532746823,0.0,9.775171065493646,0.0,4.887585532746823,9.775171065493646
53.763440860215056,9.775171065493646,9.775171065493646,24.437927663734115,9.775171065493646,9.775171065493646,39.100684261974585
9.775171065493646,24.437927663734115,19.550342130987293,9.775171065493646,19.550342130987293,0.0,9.775171065493646
9.775171065493646,4.887585532746823,9.775171065493646,0.0,9.775171065493646,34.21309872922776,9.775171065493646
0.0,4.887585532746823,9.775171065493646,0.0,4.887585532746823,9.775171065493646,39.100684261974585
29.325513196480937,4.887585532746823,29.325513196480937,4.887585532746823,4.887585532746823,9.775171065493646,53.763440860215056
19.550342130987293,4.887585532746823,19.550342130987293,0.0,9.775171065493646,9.775171065493646,4.887585532746823
4.887585532746823,9.775171065493646,0.0,4.887585532746823,4.887585532746823,0.0,43.98826979472141
43.98826979472141,9.775171065493646,4.887585532746823,4.887585532746823,4.887585532746823,0.0,24.437927663734115
14.662756598240469,14.662756598240469,24.437927663734115,0.0,14.662756598240469,0.0,0.0
0.0,14.662756598240469,14.662756598240469,0.0,4.887585532746823,4.887585532746823,19.550342130987293
29.325513196480937,0.0,4.887585532746823,4.887585532746823,9.775171065493646,4.887585532746823,87.97653958944282
9.775171065493646,0.0,0.0,4.887585532746823,4.887585532746823,4.887585532746823,19.550342130987293
4.887585532746823,4.887585532746823,4.887585532746823,9.775171065493646,24.437927663734115,24.437927663734115,0.0
24.437927663734115,14.662756598240469,4.887585532746823,4.887585532746823,4.887585532746823,9.775171065493646,9.775171065493646
4.887585532746823,9.775171065493646,9.775171065493646,14.662756598240469,24.437927663734115,4.887585532746823,166.17790811339196
9.775171065493646,4.887585532746823,0.0,0.0,4.887585532746823,0.0,4.887585532746823
4.887585532746823,9.775171065493646,9.775171065493646,4.887585532746823,4.887585532746823,9.775171065493646,14.662756598240469
0.0,9.775171065493646,4.887585532746823,4.887585532746823,0.0,4.887585532746823,4.887585532746823
24.437927663734115,9.775171065493646,9.775171065493646,14.662756598240469,0.0,4.887585532746823,9.775171065493646
24.437927663734115,24.437927663734115,29.325513196480937,4.887585532746823,19.550342130987293,4.887585532746823,87.97653958944282
9.775171065493646,9.775171065493646,78.20136852394917,4.887585532746823,14.662756598240469,24.437927663734115,14.662756598240469
14.662756598240469,4.887585532746823,9.775171065493646,4.887585532746823,4.887585532746823,4.887585532746823,9.775171065493646
14.662756598240469,9.775171065493646,9.775171065493646,53.763440860215056,9.775171065493646,0.0,0.0
19.550342130987293,210.16617790811338,4.887585532746823,24.437927663734115,4.887585532746823,4.887585532746823,43.98826979472141
4.887585532746823,68.42619745845552,53.763440860215056,4.887585532746823,4.887585532746823,9.775171065493646,14.662756598240469
4.887585532746823,29.325513196480937,29.325513196480937,0.0,0.0,9.775171065493646,24.437927663734115
4.887585532746823,9.775171065493646,9.775171065493646,4.887585532746823,0.0,9.775171065493646,68.42619745845552
9.775171065493646,0.0,9.775171065493646,4.887585532746823,34.21309872922776,4.887585532746823,0.0
4.887585532746823,4.887585532746823,4.887585532746823,4.887585532746823,4.887585532746823,0.0,29.325513196480937
24.437927663734115,0.0,19.550342130987293,14.662756598240469,4.887585532746823,4.887585532746823,0.0
4.887585532746823,4.887585532746823,14.662756598240469,9.775171065493646,4.887585532746823,0.0,24.437927663734115
9.775171065493646,9.775171065493646,4.887585532746823,0.0,4.887585532746823,4.887585532746823,4.887585532746823
0.0,9.775171065493646,4.887585532746823,9.775171065493646,4.887585532746823,4.887585532746823,0.0
9.775171065493646,4.887585532746823,9.775171065493646,4.887585532746823,14.662756598240469,0.0,78.20136852394917
4.887585532746823,4.887585532746823,4.887585532746823,4.887585532746823,4.887585532746823,0.0,14.662756598240469
9.775171065493646,4.887585532746823,0.0,4.887585532746823,0.0,4.887585532746823,0.0
4.887585532746823,4.887585532746823,0.0,4.887585532746823,9.775171065493646,9.775171065493646,4.887585532746823
0.0,4.887585532746823,9.775171065493646,4.887585532746823,4.887585532746823,0.0,4.887585532746823
58.651026392961874,0.0,9.775171065493646,14.662756598240469,0.0,4.887585532746823,63.53861192570871
24.437927663734115,43.98826979472141,0.0,4.887585532746823,9.775171065493646,4.887585532746823,34.21309872922776
4.887585532746823,14.662756598240469,29.325513196480937,9.775171065493646,9.775171065493646,4.887585532746823,24.437927663734115
9.775171065493646,9.775171065493646,4.887585532746823,14.662756598240469,4.887585532746823,4.887585532746823,4.887585532746823
4.887585532746823,0.0,4.887585532746823,9.775171065493646,0.0,4.887585532746823,19.550342130987293
19.550342130987293,4.887585532746823,14.662756598240469,9.775171065493646,4.887585532746823,14.662756598240469,87.97653958944282
19.550342130987293,4.887585532746823,4.887585532746823,9.775171065493646,29.325513196480937,0.0,97.75171065493646
4.887585532746823,19.550342130987293,9.775171065493646,9.775171065493646,24.437927663734115,4.887585532746823,14.662756598240469
4.887585532746823,9.775171065493646,29.325513196480937,4.887585532746823,4.887585532746823,34.21309872922776,68.42619745845552
4.887585532746823,39.100684261974585,9.775171065493646,4.887585532746823,0.0,19.550342130987293,39.100684261974585
43.98826979472141,9.775171065493646,0.0,0.0,9.775171065493646,0.0,4.887585532746823
39.100684261974585,0.0,0.0,0.0,0.0,14.662756598240469,9.775171065493646
4.887585532746823,19.550342130987293,4.887585532746823,0.0,43.98826979472141,4.887585532746823,24.437927663734115
4.887585532746823,0.0,14.662756598240469,9.775171065493646,19.550342130987293,4.887585532746823,9.775171065493646
0.0,4.887585532746823,0.0,0.0,4.887585532746823,4.887585532746823,34.21309872922776
4.887585532746823,14.662756598240469,4.887585532746823,4.887585532746823,29.325513196480937,4.887585532746823,9.775171065493646
9.775171065493646,9.775171065493646,9.775171065493646,14.662756598240469,0.0,9.775171065493646,19.550342130987293
4.887585532746823,9.775171065493646,9.775171065493646,4.887585532746823,4.887585532746823,4.887585532746823,4.887585532746823
9.775171065493646,19.550342130987293,19.550342130987293,4.887585532746823,0.0,0.0,53.763440860215056
4.887585532746823,34.21309872922776,24.437927663734115,4.887585532746823,29.325513196480937,9.775171065493646,53.763440860215056
9.775171065493646,9.775171065493646,4.887585532746823,14.662756598240469,9.775171065493646,14.662756598240469,24.437927663734115
0.0,19.550342130987293,4.887585532746823,9.775171065493646,9.775171065493646,4.887585532746823,9.775171065493646
9.775171065493646,34.21309872922776,9.775171065493646,4.887585532746823,4.887585532746823,9.775171065493646,9.775171065493646
14.662756598240469,14.662756598240469,19.550342130987293,9.775171065493646,14.662756598240469,9.775171065493646,53.763440860215056
0.0,0.0,14.662756598240469,4.887585532746823,4.887585532746823,4.887585532746823,83.08895405669598
439.8826979472141,9.775171065493646,19.550342130987293,4.887585532746823,4.887585532746823,4.887585532746823,9.775171065493646
131.96480938416423,0.0,4.887585532746823,9.775171065493646,14.662756598240469,4.887585532746823,14.662756598240469
34.21309872922776,9.775171065493646,4.887585532746823,4.887585532746823,0.0,4.887585532746823,4.887585532746823
4.887585532746823,19.550342130987293,4.887585532746823,19.550342130987293,4.887585532746823,14.662756598240469,19.550342130987293
0.0,29.325513196480937,4.887585532746823,4.887585532746823,0.0,4.887585532746823,73.31378299120234
14.662756598240469,4.887585532746823,24.437927663734115,4.887585532746823,4.887585532746823,9.775171065493646,78.20136852394917
0.0,4.887585532746823,14.662756598240469,9.775171065493646,29.325513196480937,4.887585532746823,24.437927663734115
24.437927663734115,24.437927663734115,9.775171065493646,39.100684261974585,48.87585532746823,4.887585532746823,19.550342130987293
9.775171065493646,4.887585532746823,4.887585532746823,14.662756598240469,9.775171065493646,9.775171065493646,58.651026392961874
19.550342130987293,0.0,14.662756598240469,9.775171065493646,53.763440860215056,4.887585532746823,4.887585532746823
4.887585532746823,34.21309872922776,0.0,4.887585532746823,34.21309872922776,0.0,9.775171065493646
4.887585532746823,14.662756598240469,9.775171065493646,4.887585532746823,63.53861192570871,9.775171065493646,4.887585532746823
4.887585532746823,19.550342130987293,9.775171065493646,4.887585532746823,24.437927663734115,14.662756598240469,4.887585532746823
4.887585532746823,9.775171065493646,4.887585532746823,0.0,24.437927663734115,9.775171065493646,4.887585532746823
4.887585532746823,0.0,48.87585532746823,9.775171065493646,4.887585532746823,9.775171065493646,48.87585532746823
34.21309872922776,29.325513196480937,24.437927663734115,4.887585532746823,14.662756598240469,0.0,29.325513196480937
14.662756598240469,24.437927663734115,4.887585532746823,9.775171065493646,34.21309872922776,0.0,4.887585532746823
4.887585532746823,24.437927663734115,4.887585532746823,4.887585532746823,39.100684261974585,9.775171065493646,0.0
0.0,4.887585532746823,4.887585532746823,9.775171065493646,4.887585532746823,34.21309872922776,24.437927663734115
4.887585532746823,9.775171065493646,9.775171065493646,0.0,39.100684261974585,9.775171065493646,83.08895405669598
34.21309872922776,9.775171065493646,4.887585532746823,0.0,234.6041055718475,4.887585532746823,53.763440860215056
14.662756598240469,9.775171065493646,0.0,4.887585532746823,29.325513196480937,9.775171065493646,14.662756598240469
9.775171065493646,9.775171065493646,0.0,19.550342130987293,53.763440860215056,0.0,14.662756598240469
4.887585532746823,24.437927663734115,4.887585532746823,0.0,14.662756598240469,19.550342130987293,34.21309872922776
0.0,19.550342130987293,29.325513196480937,4.887585532746823,4.887585532746823,4.887585532746823,48.87585532746823
9.775171065493646,24.437927663734115,19.550342130987293,9.775171065493646,141.73998044965788,19.550342130987293,9.775171065493646
14.662756598240469,4.887585532746823,19.550342130987293,4.887585532746823,43.98826979472141,4.887585532746823,19.550342130987293
4.887585532746823,4.887585532746823,4.887585532746823,9.775171065493646,19.550342130987293,0.0,19.550342130987293
0.0,19.550342130987293,0.0,39.100684261974585,4.887585532746823,9.775171065493646,4.887585532746823
9.775171065493646,9.775171065493646,0.0,4.887585532746823,39.100684261974585,34.21309872922776,19.550342130987293
29.325513196480937,14.662756598240469,4.887585532746823,4.887585532746823,43.98826979472141,14.662756598240469,4.887585532746823
24.437927663734115,14.662756598240469,9.775171065493646,0.0,24.437927663734115,4.887585532746823,29.325513196480937
9.775171065493646,14.662756598240469,4.887585532746823,9.775171065493646,9.775171065493646,0.0,9.775171065493646
4.887585532746823,14.662756598240469,4.887585532746823,9.775171065493646,24.437927663734115,4.887585532746823,9.775171065493646
4.887585532746823,4.887585532746823,14.662756598240469,4.887585532746823,34.21309872922776,4.887585532746823,19.550342130987293
4.887585532746823,24.437927663734115,4.887585532746823,4.887585532746823,4.887585532746823,0.0,34.21309872922776
4.887585532746823,39.100684261974585,9.775171065493646,0.0,29.325513196480937,9.775171065493646,43.98826979472141
9.775171065493646,9.775171065493646,4.887585532746823,9.775171065493646,14.662756598240469,24.437927663734115,14.662756598240469
4.887585532746823,0.0,9.775171065493646,0.0,39.100684261974585,4.887585532746823,4.887585532746823
14.662756598240469,29.325513196480937,39.100684261974585,4.887585532746823,48.87585532746823,4.887585532746823,14.662756598240469
14.662756598240469,19.550342130987293,73.31378299120234,0.0,14.662756598240469,4.887585532746823,19.550342130987293
19.550342130987293,9.775171065493646,9.775171065493646,4.887585532746823,107.52688172043011,0.0,39.100684261974585
0.0,0.0,4.887585532746823,9.775171065493646,29.325513196480937,9.775171065493646,83.08895405669598
4.887585532746823,4.887585532746823,0.0,29.325513196480937,63.53861192570871,4.887585532746823,14.662756598240469
0.0,29.325513196480937,4.887585532746823,19.550342130987293,4.887585532746823,4.887585532746823,24.437927663734115
9.775171065493646,9.775171065493646,14.662756598240469,9.775171065493646,14.662756598240469,4.887585532746823,9.775171065493646
4.887585532746823,4.887585532746823,24.437927663734115,4.887585532746823,4.887585532746823,4.887585532746823,48.87585532746823
0.0,43.98826979472141,4.887585532746823,9.775171065493646,117.30205278592375,0.0,14.662756598240469
4.887585532746823,4.887585532746823,9.775171065493646,4.887585532746823,14.662756598240469,0.0,4.887585532746823
9.775171065493646,9.775171065493646,9.775171065493646,4.887585532746823,78.20136852394917,4.887585532746823,0.0
14.662756598240469,4.887585532746823,9.775171065493646,9.775171065493646,14.662756598240469,9.775171065493646,14.662756598240469
4.887585532746823,4.887585532746823,39.100684261974585,14.662756598240469,63.53861192570871,9.775171065493646,4.887585532746823
24.437927663734115,4.887585532746823,63.53861192570871,19.550342130987293,102.63929618768329,29.325513196480937,14.662756598240469
4.887585532746823,4.887585532746823,4.887585532746823,14.662756598240469,19.550342130987293,14.662756598240469,14.662756598240469
0.0,34.21309872922776,4.887585532746823,0.0,24.437927663734115,0.0,4.887585532746823
4.887585532746823,58.651026392961874,9.775171065493646,39.100684261974585,29.325513196480937,4.887585532746823,9.775171065493646
4.887585532746823,29.325513196480937,9.775171065493646,29.325513196480937,19.550342130987293,9.775171065493646,53.763440860215056
9.775171065493646,14.662756598240469,4.887585532746823,4.887585532746823,43.98826979472141,4.887585532746823,14.662756598240469
0.0,4.887585532746823,29.325513196480937,4.887585532746823,19.550342130987293,9.775171065493646,73.31378299120234
4.887585532746823,4.887585532746823,4.887585532746823,24.437927663734115,68.42619745845552,9.775171065493646,19.550342130987293
92.86412512218965,4.887585532746823,24.437927663734115,4.887585532746823,78.20136852394917,9.775171065493646,9.775171065493646
9.775171065493646,39.100684261974585,29.325513196480937,9.775171065493646,24.437927663734115,9.775171065493646,29.325513196480937
9.775171065493646,14.662756598240469,4.887585532746823,0.0,29.325513196480937,4.887585532746823,9.775171065493646
4.887585532746823,29.325513196480937,9.775171065493646,4.887585532746823,92.86412512218965,0.0,19.550342130987293
4.887585532746823,4.887585532746823,4.887585532746823,4.887585532746823,19.550342130987293,4.887585532746823,14.662756598240469
9.775171065493646,19.550342130987293,0.0,0.0,4.887585532746823,24.437927663734115,4.887585532746823
4.887585532746823,0.0,19.550342130987293,9.775171065493646,19.550342130987293,24.437927663734115,24.437927663734115
4.887585532746823,19.550342130987293,4.887585532746823,14.662756598240469,107.52688172043011,4.887585532746823,14.662756598240469
9.775171065493646,117.30205278592375,19.550342130987293,9.775171065493646,166.17790811339196,0.0,34.21309872922776
14.662756598240469,205.27859237536657,4.887585532746823,9.775171065493646,63.53861192570871,14.662756598240469,4.887585532746823
9.775171065493646,24.437927663734115,0.0,39.100684261974585,97.75171065493646,4.887585532746823,14.662756598240469
14.662756598240469,4.887585532746823,4.887585532746823,9.775171065493646,43.98826979472141,9.775171065493646,9.775171065493646
4.887585532746823,9.775171065493646,39.100684261974585,0.0,34.21309872922776,9.775171065493646,9.775171065493646
4.887585532746823,24.437927663734115,9.775171065493646,4.887585532746823,0.0,0.0,9.775171065493646
9.775171065493646,43.98826979472141,14.662756598240469,9.775171065493646,24.437927663734115,9.775171065493646,156.40273704789834
9.775171065493646,29.325513196480937,9.775171065493646,24.437927663734115,268.81720430107526,9.775171065493646,24.437927663734115
29.325513196480937,29.325513196480937,9.775171065493646,4.887585532746823,24.437927663734115,0.0,9.775171065493646
4.887585532746823,4.887585532746823,24.437927663734115,4.887585532746823,9.775171065493646,9.775171065493646,4.887585532746823
9.775171065493646,48.87585532746823,14.662756598240469,4.887585532746823,107.52688172043011,4.887585532746823,24.437927663734115
29.325513196480937,9.775171065493646,4.887585532746823,0.0,14.662756598240469,9.775171065493646,83.08895405669598
78.20136852394917,39.100684261974585,0.0,0.0,122.18963831867057,4.887585532746823,9.775171065493646
19.550342130987293,19.550342130987293,9.775171065493646,4.887585532746823,48.87585532746823,4.887585532746823,9.775171065493646
4.887585532746823,0.0,53.763440860215056,9.775171065493646,9.775171065493646,4.887585532746823,4.887585532746823
0.0,9.775171065493646,0.0,0.0,34.21309872922776,14.662756598240469,156.40273704789834
4.887585532746823,0.0,19.550342130987293,9.775171065493646,122.18963831867057,4.887585532746823,48.87585532746823
0.0,48.87585532746823,4.887585532746823,19.550342130987293,43.98826979472141,9.775171065493646,14.662756598240469
4.887585532746823,19.550342130987293,43.98826979472141,4.887585532746823,63.53861192570871,4.887585532746823,122.18963831867057
68.42619745845552,9.775171065493646,9.775171065493646,4.887585532746823,14.662756598240469,9.775171065493646,9.775171065493646
4.887585532746823,34.21309872922776,4.887585532746823,4.887585532746823,9.775171065493646,4.887585532746823,9.775171065493646
4.887585532746823,43.98826979472141,0.0,4.887585532746823,24.437927663734115,9.775171065493646,9.775171065493646
9.775171065493646,29.325513196480937,4.887585532746823,4.887585532746823,151.51515151515153,9.775171065493646,29.325513196480937
0.0,29.325513196480937,29.325513196480937,24.437927663734115,14.662756598240469,9.775171065493646,29.325513196480937
24.437927663734115,39.100684261974585,19.550342130987293,9.775171065493646,4.887585532746823,4.887585532746823,19.550342130987293
9.775171065493646,19.550342130987293,9.775171065493646,9.775171065493646,107.52688172043011,29.325513196480937,9.775171065493646
4.887585532746823,4.887585532746823,19.550342130987293,0.0,351.9061583577713,4.887585532746823,9.775171065493646
4.887585532746823,9.775171065493646,9.775171065493646,9.775171065493646,112.41446725317694,9.775171065493646,102.63929618768329
24.437927663734115,24.437927663734115,39.100684261974585,0.0,151.51515151515153,4.887585532746823,9.775171065493646
19.550342130987293,68.42619745845552,19.550342130987293,9.775171065493646,24.437927663734115,4.887585532746823,9.775171065493646
9.775171065493646,63.53861192570871,9.775171065493646,4.887585532746823,117.30205278592375,4.887585532746823,24.437927663734115
43.98826979472141,24.437927663734115,4.887585532746823,0.0,14.662756598240469,9.775171065493646,9.775171065493646
9.775171065493646,34.21309872922776,4.887585532746823,4.887585532746823,166.17790811339196,39.100684261974585,4.887585532746823
19.550342130987293,24.437927663734115,4.887585532746823,4.887585532746823,97.75171065493646,9.775171065493646,14.662756598240469
43.98826979472141,34.21309872922776,4.887585532746823,4.887585532746823,9.775171065493646,0.0,29.325513196480937
9.775171065493646,34.21309872922776,9.775171065493646,14.662756598240469,24.437927663734115,9.775171065493646,4.887585532746823
4.887585532746823,9.775171065493646,0.0,0.0,58.651026392961874,4.887585532746823,43.98826979472141
9.775171065493646,4.887585532746823,131.96480938416423,0.0,19.550342130987293,9.775171065493646,9.775171065493646
0.0,29.325513196480937,24.437927663734115,4.887585532746823,9.775171065493646,9.775171065493646,29.325513196480937
293.2551319648094,4.887585532746823,9.775171065493646,34.21309872922776,102.63929618768329,4.887585532746823,19.550342130987293
224.82893450635387,4.887585532746823,9.775171065493646,19.550342130987293,151.51515151515153,0.0,9.775171065493646
63.53861192570871,4.887585532746823,39.100684261974585,14.662756598240469,14.662756598240469,39.100684261974585,0.0
24.437927663734115,9.775171065493646,9.775171065493646,4.887585532746823,195.50342130987292,4.887585532746823,34.21309872922776
9.775171065493646,43.98826979472141,0.0,4.887585532746823,78.20136852394917,4.887585532746823,48.87585532746823
0.0,14.662756598240469,0.0,0.0,9.775171065493646,4.887585532746823,39.100684261974585
9.775171065493646,58.651026392961874,0.0,9.775171065493646,53.763440860215056,4.887585532746823,9.775171065493646
4.887585532746823,14.662756598240469,4.887585532746823,4.887585532746823,87.97653958944282,9.775171065493646,4.887585532746823
4.887585532746823,14.662756598240469,87.97653958944282,4.887585532746823,9.775171065493646,4.887585532746823,9.775171065493646
9.775171065493646,14.662756598240469,14.662756598240469,9.775171065493646,234.6041055718475,14.662756598240469,87.97653958944282
4.887585532746823,63.53861192570871,29.325513196480937,4.887585532746823,298.14271749755625,4.887585532746823,9.775171065493646
9.775171065493646,29.325513196480937,24.437927663734115,43.98826979472141,24.437927663734115,4.887585532746823,9.775171065493646
4.887585532746823,9.775171065493646,9.775171065493646,4.887585532746823,14.662756598240469,4.887585532746823,0.0
48.87585532746823,4.887585532746823,0.0,9.775171065493646,63.53861192570871,4.887585532746823,4.887585532746823
14.662756598240469,0.0,14.662756598240469,4.887585532746823,24.437927663734115,9.775171065493646,0.0
19.550342130987293,39.100684261974585,29.325513196480937,4.887585532746823,9.775171065493646,4.887585532746823,0.0
29.325513196480937,4.887585532746823,29.325513196480937,4.887585532746823,0.0,9.775171065493646,4.887585532746823
9.775171065493646,0.0,34.21309872922776,4.887585532746823,87.97653958944282,0.0,4.887585532746823
0.0,24.437927663734115,9.775171065493646,9.775171065493646,151.51515151515153,4.887585532746823,4.887585532746823
0.0,14.662756598240469,4.887585532746823,244.37927663734115,107.52688172043011,14.662756598240469,0.0
39.100684261974585,112.41446725317694,4.887585532746823,29.325513196480937,39.100684261974585,4.887585532746823,9.775171065493646
14.662756598240469,9.775171065493646,19.550342130987293,4.887585532746823,9.775171065493646,24.437927663734115,39.100684261974585
4.887585532746823,29.325513196480937,58.651026392961874,9.775171065493646,4.887585532746823,4.887585532746823,14.662756598240469
4.887585532746823,14.662756598240469,29.325513196480937,0.0,205.27859237536657,24.437927663734115,9.775171065493646
4.887585532746823,0.0,39.100684261974585,9.775171065493646,43.98826979472141,9.775171065493646,4.887585532746823
19.550342130987293,0.0,19.550342130987293,9.775171065493646,24.437927663734115,4.887585532746823,63.53861192570871
4.887585532746823,4.887585532746823,14.662756598240469,73.31378299120234,53.763440860215056,4.887585532746823,9.775171065493646
4.887585532746823,14.662756598240469,14.662756598240469,151.51515151515153,34.21309872922776,9.775171065493646,4.887585532746823
4.887585532746823,24.437927663734115,9.775171065493646,24.437927663734115,19.550342130987293,0.0,29.325513196480937
19.550342130987293,14.662756598240469,4.887585532746823,4.887585532746823,63.53861192570871,4.887585532746823,9.775171065493646
4.887585532746823,63.53861192570871,9.775171065493646,9.775171065493646,9.775171065493646,9.775171065493646,19.550342130987293
14.662756598240469,19.550342130987293,4.887585532746823,4.887585532746823,24.437927663734115,0.0,19.550342130987293
4.887585532746823,24.437927663734115,9.775171065493646,4.887585532746823,68.42619745845552,0.0,4.887585532746823
24.437927663734115,29.325513196480937,112.41446725317694,4.887585532746823,107.52688172043011,4.887585532746823,9.775171065493646
9.775171065493646,14.662756598240469,19.550342130987293,9.775171065493646,9.775171065493646,0.0,9.775171065493646
14.662756598240469,4.887585532746823,9.775171065493646,4.887585532746823,29.325513196480937,4.887585532746823,4.887585532746823
9.775171065493646,48.87585532746823,34.21309872922776,14.662756598240469,73.31378299120234,4.887585532746823,0.0
39.100684261974585,4.887585532746823,78.20136852394917,4.887585532746823,29.325513196480937,14.662756598240469,4.887585532746823
9.775171065493646,4.887585532746823,9.775171065493646,312.8054740957967,43.98826979472141,14.662756598240469,4.887585532746823
0.0,0.0,4.887585532746823,48.87585532746823,9.775171065493646,29.325513196480937,4.887585532746823
0.0,4.887585532746823,14.662756598240469,4.887585532746823,19.550342130987293,4.887585532746823,9.775171065493646
0.0,29.325513196480937,34.21309872922776,24.437927663734115,14.662756598240469,0.0,58.651026392961874
48.87585532746823,9.775171065493646,14.662756598240469,97.75171065493646,58.651026392961874,0.0,9.775171065493646
4.887585532746823,4.887585532746823,4.887585532746823,34.21309872922776,83.08895405669598,4.887585532746823,4.887585532746823
4.887585532746823,4.887585532746823,0.0,156.40273704789834,9.775171065493646,29.325513196480937,0.0
9.775171065493646,19.550342130987293,63.53861192570871,151.51515151515153,29.325513196480937,9.775171065493646,58.651026392961874
39.100684261974585,9.775171065493646,9.775171065493646,9.775171065493646,39.100684261974585,14.662756598240469,24.437927663734115
34.21309872922776,83.08895405669598,29.325513196480937,63.53861192570871,39.100684261974585,0.0,0.0
9.775171065493646,24.437927663734115,9.775171065493646,9.775171065493646,102.63929618768329,4.887585532746823,0.0
4.887585532746823,4.887585532746823,4.887585532746823,107.52688172043011,43.98826979472141,4.887585532746823,34.21309872922776
4.887585532746823,4.887585532746823,39.100684261974585,9.775171065493646,9.775171065493646,0.0,39.100684261974585
9.775171065493646,0.0,14.662756598240469,9.775171065493646,63.53861192570871,4.887585532746823,4.887585532746823
4.887585532746823,63.53861192570871,34.21309872922776,14.662756598240469,78.20136852394917,4.887585532746823,4.887585532746823
0.0,29.325513196480937,58.651026392961874,9.775171065493646,9.775171065493646,53.763440860215056,4.887585532746823
4.887585532746823,9.775171065493646,34.21309872922776,43.98826979472141,29.325513196480937,4.887585532746823,4.887585532746823
48.87585532746823,19.550342130987293,9.775171065493646,146.6275659824047,92.86412512218965,9.775171065493646,0.0
24.437927663734115,0.0,0.0,19.550342130987293,14.662756598240469,4.887585532746823,9.775171065493646
19.550342130987293,9.775171065493646,48.87585532746823,9.775171065493646,73.31378299120234,9.775171065493646,9.775171065493646
0.0,4.887585532746823,161.29032258064515,4.887585532746823,4.887585532746823,14.662756598240469,4.887585532746823
9.775171065493646,0.0,24.437927663734115,43.98826979472141,146.6275659824047,14.662756598240469,4.887585532746823
4.887585532746823,34.21309872922776,43.98826979472141,224.82893450635387,87.97653958944282,4.887585532746823,0.0
14.662756598240469,4.887585532746823,63.53861192570871,73.31378299120234,34.21309872922776,29.325513196480937,4.887585532746823
14.662756598240469,0.0,4.887585532746823,24.437927663734115,48.87585532746823,4.887585532746823,24.437927663734115
14.662756598240469,4.887585532746823,4.887585532746823,9.775171065493646,19.550342130987293,9.775171065493646,9.775171065493646
0.0,0.0,0.0,107.52688172043011,4.887585532746823,48.87585532746823,24.437927663734115
4.887585532746823,43.98826979472141,43.98826979472141,669.5992179863147,39.100684261974585,4.887585532746823,9.775171065493646
4.887585532746823,102.63929618768329,29.325513196480937,24.437927663734115,73.31378299120234,4.887585532746823,4.887585532746823
9.775171065493646,156.40273704789834,107.52688172043011,73.31378299120234,43.98826979472141,39.100684261974585,9.775171065493646
9.775171065493646,9.775171065493646,34.21309872922776,625.6109481915934,9.775171065493646,9.775171065493646,9.775171065493646
0.0,9.775171065493646,14.662756598240469,63.53861192570871,14.662756598240469,4.887585532746823,43.98826979472141
4.887585532746823,29.325513196480937,4.887585532746823,9.775171065493646,29.325513196480937,4.887585532746823,4.887585532746823
4.887585532746823,34.21309872922776,4.887585532746823,0.0,0.0,4.887585532746823,4.887585532746823
19.550342130987293,29.325513196480937,68.42619745845552,263.92961876832845,83.08895405669598,4.887585532746823,0.0
29.325513196480937,24.437927663734115,39.100684261974585,146.6275659824047,53.763440860215056,4.887585532746823,4.887585532746823
4.887585532746823,9.775171065493646,146.6275659824047,9.775171065493646,39.100684261974585,43.98826979472141,4.887585532746823
4.887585532746823,0.0,29.325513196480937,444.77028347996094,9.775171065493646,24.437927663734115,14.662756598240469
0.0,24.437927663734115,0.0,151.51515151515153,14.662756598240469,0.0,0.0
0.0,14.662756598240469,92.86412512218965,278.5923753665689,14.662756598240469,14.662756598240469,9.775171065493646
14.662756598240469,24.437927663734115,19.550342130987293,19.550342130987293,127.07722385141741,78.20136852394917,4.887585532746823
4.887585532746823,29.325513196480937,87.97653958944282,4.887585532746823,24.437927663734115,9.775171065493646,4.887585532746823
4.887585532746823,14.662756598240469,200.39100684261973,566.9599217986315,9.775171065493646,175.95307917888564,9.775171065493646
4.887585532746823,34.21309872922776,29.325513196480937,24.437927663734115,0.0,24.437927663734115,19.550342130987293
14.662756598240469,83.08895405669598,48.87585532746823,48.87585532746823,53.763440860215056,14.662756598240469,4.887585532746823
24.437927663734115,9.775171065493646,4.887585532746823,9.775171065493646,34.21309872922776,107.52688172043011,131.96480938416423
4.887585532746823,4.887585532746823,244.37927663734115,58.651026392961874,9.775171065493646,24.437927663734115,19.550342130987293
4.887585532746823,48.87585532746823,127.07722385141741,478.9833822091887,63.53861192570871,175.95307917888564,19.550342130987293
4.887585532746823,19.550342130987293,14.662756598240469,34.21309872922776,9.775171065493646,122.18963831867057,0.0
39.100684261974585,29.325513196480937,97.75171065493646,9.775171065493646,180.84066471163246,43.98826979472141,29.325513196480937
24.437927663734115,14.662756598240469,97.75171065493646,117.30205278592375,19.550342130987293,19.550342130987293,4.887585532746823
29.325513196480937,24.437927663734115,127.07722385141741,112.41446725317694,4.887585532746823,73.31378299120234,4.887585532746823
9.775171065493646,14.662756598240469,43.98826979472141,29.325513196480937,87.97653958944282,542.5219941348973,14.662756598240469
4.887585532746823,19.550342130987293,24.437927663734115,738.0254154447704,48.87585532746823,190.6158357771261,9.775171065493646
19.550342130987293,102.63929618768329,107.52688172043011,161.29032258064515,19.550342130987293,14.662756598240469,9.775171065493646
4.887585532746823,24.437927663734115,117.30205278592375,19.550342130987293,9.775171065493646,371.4565004887586,53.763440860215056
0.0,9.775171065493646,107.52688172043011,175.95307917888564,63.53861192570871,347.0185728250244,14.662756598240469
0.0,4.887585532746823,34.21309872922776,48.87585532746823,19.550342130987293,107.52688172043011,9.775171065493646
24.437927663734115,0.0,244.37927663734115,420.33235581622677,4.887585532746823,777.1260997067449,0.0
43.98826979472141,29.325513196480937,215.05376344086022,39.100684261974585,34.21309872922776,180.84066471163246,0.0
14.662756598240469,171.0654936461388,68.42619745845552,459.4330400782014,48.87585532746823,527.8592375366569,4.887585532746823
4.887585532746823,131.96480938416423,53.763440860215056,97.75171065493646,63.53861192570871,29.325513196480937,4.887585532746823
34.21309872922776,48.87585532746823,259.04203323558164,224.82893450635387,29.325513196480937,669.5992179863147,4.887585532746823
29.325513196480937,34.21309872922776,19.550342130987293,34.21309872922776,19.550342130987293,92.86412512218965,9.775171065493646
4.887585532746823,29.325513196480937,9.775171065493646,4.887585532746823,34.21309872922776,4.887585532746823,0.0
14.662756598240469,9.775171065493646,97.75171065493646,337.2434017595308,14.662756598240469,694.0371456500488,9.775171065493646
0.0,4.887585532746823,39.100684261974585,234.6041055718475,39.100684261974585,175.95307917888564,4.887585532746823
4.887585532746823,254.15444770283483,39.100684261974585,303.03030303030306,4.887585532746823,410.55718475073314,34.21309872922776
43.98826979472141,43.98826979472141,278.5923753665689,24.437927663734115,78.20136852394917,1857.2825024437927,4.887585532746823
53.763440860215056,14.662756598240469,131.96480938416423,9.775171065493646,43.98826979472141,122.18963831867057,4.887585532746823
327.4682306940371,24.437927663734115,107.52688172043011,127.07722385141741,29.325513196480937,1065.4936461388074,4.887585532746823
83.08895405669598,9.775171065493646,263.92961876832845,161.29032258064515,4.887585532746823,303.03030303030306,9.775171065493646
9.775171065493646,9.775171065493646,58.651026392961874,171.0654936461388,9.775171065493646,542.5219941348973,0.0
4.887585532746823,4.887585532746823,425.2199413489736,117.30205278592375,102.63929618768329,488.7585532746823,14.662756598240469
4.887585532746823,4.887585532746823,53.763440860215056,146.6275659824047,43.98826979472141,835.7771260997067,4.887585532746823
83.08895405669598,4.887585532746823,405.6695992179863,317.6930596285435,14.662756598240469,430.10752688172045,4.887585532746823
229.7165200391007,24.437927663734115,43.98826979472141,78.20136852394917,9.775171065493646,24.437927663734115,4.887585532746823
136.85239491691104,293.2551319648094,278.5923753665689,14.662756598240469,102.63929618768329,449.65786901270775,0.0
117.30205278592375,29.325513196480937,24.437927663734115,0.0,39.100684261974585,478.9833822091887,9.775171065493646
4.887585532746823,9.775171065493646,151.51515151515153,180.84066471163246,48.87585532746823,278.5923753665689,24.437927663734115
4.887585532746823,48.87585532746823,733.1378299120234,454.54545454545456,14.662756598240469,29.325513196480937,9.775171065493646
0.0,24.437927663734115,24.437927663734115,43.98826979472141,24.437927663734115,928.6412512218964,4.887585532746823
4.887585532746823,9.775171065493646,4.887585532746823,4.887585532746823,87.97653958944282,244.37927663734115,4.887585532746823
239.49169110459434,112.41446725317694,650.0488758553274,425.2199413489736,14.662756598240469,1402.737047898338,9.775171065493646
92.86412512218965,9.775171065493646,34.21309872922776,239.49169110459434,9.775171065493646,200.39100684261973,9.775171065493646
4.887585532746823,4.887585532746823,175.95307917888564,19.550342130987293,24.437927663734115,410.55718475073314,0.0
4.887585532746823,73.31378299120234,664.7116324535679,698.9247311827957,9.775171065493646,747.800586510264,9.775171065493646
0.0,34.21309872922776,19.550342130987293,43.98826979472141,39.100684261974585,430.10752688172045,63.53861192570871
19.550342130987293,43.98826979472141,415.44477028347995,127.07722385141741,131.96480938416423,913.9784946236559,9.775171065493646
239.49169110459434,9.775171065493646,68.42619745845552,122.18963831867057,73.31378299120234,1197.4584555229717,0.0
63.53861192570871,0.0,146.6275659824047,249.26686217008796,9.775171065493646,43.98826979472141,9.775171065493646
43.98826979472141,43.98826979472141,742.9130009775172,547.4095796676442,19.550342130987293,415.44477028347995,4.887585532746823
34.21309872922776,78.20136852394917,102.63929618768329,14.662756598240469,9.775171065493646,288.36754643206257,0.0
4.887585532746823,68.42619745845552,19.550342130987293,9.775171065493646,117.30205278592375,1226.7839687194526,0.0
0.0,34.21309872922776,43.98826979472141,366.5689149560117,68.42619745845552,156.40273704789834,0.0
92.86412512218965,9.775171065493646,327.4682306940371,288.36754643206257,48.87585532746823,107.52688172043011,4.887585532746823
219.94134897360706,14.662756598240469,48.87585532746823,19.550342130987293,4.887585532746823,777.1260997067449,4.887585532746823
14.662756598240469,4.887585532746823,415.44477028347995,249.26686217008796,14.662756598240469,39.100684261974585,4.887585532746823
195.50342130987292,0.0,175.95307917888564,29.325513196480937,4.887585532746823,283.47996089931576,4.887585532746823
48.87585532746823,4.887585532746823,9.775171065493646,547.4095796676442,9.775171065493646,801.5640273704789,4.887585532746823
0.0,58.651026392961874,273.7047898338221,43.98826979472141,4.887585532746823,195.50342130987292,0.0
14.662756598240469,29.325513196480937,24.437927663734115,14.662756598240469,53.763440860215056,112.41446725317694,4.887585532746823
171.0654936461388,4.887585532746823,288.36754643206257,63.53861192570871,14.662756598240469,366.5689149560117,0.0
53.763440860215056,68.42619745845552,107.52688172043011,513.1964809384165,63.53861192570871,102.63929618768329,4.887585532746823
9.775171065493646,200.39100684261973,884.6529814271751,112.41446725317694,34.21309872922776,503.42130987292273,14.662756598240469
146.6275659824047,73.31378299120234,122.18963831867057,9.775171065493646,14.662756598240469,571.8475073313783,4.887585532746823
29.325513196480937,4.887585532746823,39.100684261974585,9.775171065493646,9.775171065493646,9.775171065493646,0.0
4.887585532746823,14.662756598240469,4.887585532746823,4.887585532746823,24.437927663734115,645.1612903225806,0.0
24.437927663734115,4.887585532746823,659.824046920821,87.97653958944282,68.42619745845552,107.52688172043011,4.887585532746823
24.437927663734115,9.775171065493646,171.0654936461388,14.662756598240469,14.662756598240469,478.9833822091887,9.775171065493646
43.98826979472141,14.662756598240469,635.386119257087,141.73998044965788,4.887585532746823,205.27859237536657,9.775171065493646
4.887585532746823,92.86412512218965,48.87585532746823,14.662756598240469,48.87585532746823,63.53861192570871,4.887585532746823
83.08895405669598,24.437927663734115,24.437927663734115,361.6813294232649,87.97653958944282,879.7653958944283,4.887585532746823
317.6930596285435,97.75171065493646,171.0654936461388,244.37927663734115,9.775171065493646,48.87585532746823,4.887585532746823
288.36754643206257,53.763440860215056,493.6461388074291,24.437927663734115,53.763440860215056,244.37927663734115,4.887585532746823
29.325513196480937,4.887585532746823,210.16617790811338,4.887585532746823,9.775171065493646,239.49169110459434,4.887585532746823
14.662756598240469,356.7937438905181,195.50342130987292,381.2316715542522,4.887585532746823,83.08895405669598,9.775171065493646
9.775171065493646,63.53861192570871,1451.6129032258066,39.100684261974585,58.651026392961874,48.87585532746823,9.775171065493646
4.887585532746823,0.0,48.87585532746823,9.775171065493646,29.325513196480937,317.6930596285435,9.775171065493646
4.887585532746823,92.86412512218965,1080.156402737048,180.84066471163246,19.550342130987293,141.73998044965788,4.887585532746823
166.17790811339196,4.887585532746823,444.77028347996094,493.6461388074291,0.0,166.17790811339196,9.775171065493646
34.21309872922776,43.98826979472141,34.21309872922776,24.437927663734115,4.887585532746823,518.0840664711633,9.775171065493646
39.100684261974585,29.325513196480937,92.86412512218965,9.775171065493646,97.75171065493646,449.65786901270775,9.775171065493646
9.775171065493646,14.662756598240469,92.86412512218965,190.6158357771261,14.662756598240469,24.437927663734115,4.887585532746823
0.0,73.31378299120234,537.6344086021505,171.0654936461388,63.53861192570871,190.6158357771261,4.887585532746823
156.40273704789834,117.30205278592375,58.651026392961874,19.550342130987293,24.437927663734115,513.1964809384165,4.887585532746823
39.100684261974585,14.662756598240469,669.5992179863147,185.7282502443793,29.325513196480937,97.75171065493646,0.0
92.86412512218965,43.98826979472141,112.41446725317694,87.97653958944282,39.100684261974585,87.97653958944282,9.775171065493646
58.651026392961874,303.03030303030306,122.18963831867057,34.21309872922776,53.763440860215056,97.75171065493646,4.887585532746823
9.775171065493646,9.775171065493646,405.6695992179863,610.9481915933529,9.775171065493646,508.30889540566966,0.0
39.100684261974585,78.20136852394917,48.87585532746823,102.63929618768329,4.887585532746823,78.20136852394917,0.0
73.31378299120234,263.92961876832845,19.550342130987293,39.100684261974585,156.40273704789834,34.21309872922776,14.662756598240469
229.7165200391007,53.763440860215056,39.100684261974585,9.775171065493646,39.100684261974585,156.40273704789834,14.662756598240469
19.550342130987293,34.21309872922776,141.73998044965788,34.21309872922776,68.42619745845552,117.30205278592375,4.887585532746823
4.887585532746823,14.662756598240469,43.98826979472141,63.53861192570871,14.662756598240469,234.6041055718475,4.887585532746823
14.662756598240469,87.97653958944282,146.6275659824047,9.775171065493646,14.662756598240469,78.20136852394917,14.662756598240469
122.18963831867057,9.775171065493646,112.41446725317694,97.75171065493646,14.662756598240469,29.325513196480937,4.887585532746823
9.775171065493646,136.85239491691104,9.775171065493646,14.662756598240469,136.85239491691104,845.5522971652003,4.887585532746823
87.97653958944282,14.662756598240469,205.27859237536657,1309.8729227761485,24.437927663734115,78.20136852394917,4.887585532746823
9.775171065493646,78.20136852394917,19.550342130987293,48.87585532746823,0.0,87.97653958944282,4.887585532746823
9.775171065493646,219.94134897360706,229.7165200391007,4.887585532746823,29.325513196480937,606.0606060606061,14.662756598240469
68.42619745845552,19.550342130987293,410.55718475073314,337.2434017595308,39.100684261974585,430.10752688172045,9.775171065493646
29.325513196480937,24.437927663734115,43.98826979472141,92.86412512218965,39.100684261974585,68.42619745845552,9.775171065493646
136.85239491691104,9.775171065493646,19.550342130987293,591.3978494623656,29.325513196480937,63.53861192570871,4.887585532746823
156.40273704789834,117.30205278592375,43.98826979472141,19.550342130987293,4.887585532746823,356.7937438905181,29.325513196480937
14.662756598240469,34.21309872922776,156.40273704789834,19.550342130987293,34.21309872922776,127.07722385141741,4.887585532746823
24.437927663734115,14.662756598240469,156.40273704789834,0.0,122.18963831867057,39.100684261974585,9.775171065493646
263.92961876832845,19.550342130987293,244.37927663734115,444.77028347996094,43.98826979472141,288.36754643206257,9.775171065493646
29.325513196480937,224.82893450635387,29.325513196480937,127.07722385141741,0.0,68.42619745845552,0.0
4.887585532746823,39.100684261974585,537.6344086021505,537.6344086021505,68.42619745845552,801.5640273704789,4.887585532746823
14.662756598240469,180.84066471163246,34.21309872922776,268.81720430107526,9.775171065493646,73.31378299120234,0.0
87.97653958944282,122.18963831867057,190.6158357771261,107.52688172043011,58.651026392961874,483.8709677419355,4.887585532746823
68.42619745845552,14.662756598240469,19.550342130987293,14.662756598240469,63.53861192570871,48.87585532746823,0.0
24.437927663734115,34.21309872922776,542.5219941348973,87.97653958944282,9.775171065493646,14.662756598240469,166.17790811339196
39.100684261974585,234.6041055718475,122.18963831867057,117.30205278592375,24.437927663734115,24.437927663734115,58.651026392961874
14.662756598240469,34.21309872922776,39.100684261974585,19.550342130987293,78.20136852394917,180.84066471163246,4.887585532746823
29.325513196480937,24.437927663734115,366.5689149560117,249.26686217008796,58.651026392961874,87.97653958944282,14.662756598240469
92.86412512218965,68.42619745845552,117.30205278592375,73.31378299120234,19.550342130987293,141.73998044965788,4.887585532746823
9.775171065493646,9.775171065493646,112.41446725317694,259.04203323558164,4.887585532746823,791.7888563049853,14.662756598240469
9.775171065493646,219.94134897360706,215.05376344086022,29.325513196480937,97.75171065493646,205.27859237536657,4.887585532746823
410.55718475073314,190.6158357771261,19.550342130987293,190.6158357771261,43.98826979472141,107.52688172043011,9.775171065493646
151.51515151515153,19.550342130987293,200.39100684261973,337.2434017595308,39.100684261974585,1114.3695014662756,9.775171065493646
9.775171065493646,34.21309872922776,112.41446725317694,14.662756598240469,43.98826979472141,63.53861192570871,9.775171065493646
0.0,288.36754643206257,215.05376344086022,757.5757575757576,9.775171065493646,249.26686217008796,9.775171065493646
4.887585532746823,19.550342130987293,9.775171065493646,185.7282502443793,4.887585532746823,259.04203323558164,4.887585532746823
43.98826979472141,9.775171065493646,263.92961876832845,239.49169110459434,190.6158357771261,92.86412512218965,4.887585532746823
195.50342130987292,210.16617790811338,24.437927663734115,63.53861192570871,29.325513196480937,9.775171065493646,9.775171065493646
210.16617790811338,298.14271749755625,596.2854349951125,39.100684261974585,24.437927663734115,283.47996089931576,0.0
244.37927663734115,190.6158357771261,43.98826979472141,180.84066471163246,34.21309872922776,58.651026392961874,9.775171065493646
29.325513196480937,34.21309872922776,171.0654936461388,9.775171065493646,24.437927663734115,107.52688172043011,9.775171065493646
24.437927663734115,14.662756598240469,9.775171065493646,29.325513196480937,127.07722385141741,4.887585532746823,14.662756598240469
43.98826979472141,4.887585532746823,102.63929618768329,141.73998044965788,9.775171065493646,425.2199413489736,4.887585532746823
0.0,234.6041055718475,92.86412512218965,19.550342130987293,4.887585532746823,175.95307917888564,4.887585532746823
39.100684261974585,68.42619745845552,122.18963831867057,92.86412512218965,78.20136852394917,200.39100684261973,9.775171065493646
9.775171065493646,58.651026392961874,63.53861192570871,112.41446725317694,9.775171065493646,224.82893450635387,4.887585532746823
43.98826979472141,161.29032258064515,263.92961876832845,9.775171065493646,24.437927663734115,405.6695992179863,19.550342130987293
83.08895405669598,14.662756598240469,112.41446725317694,615.8357771260997,68.42619745845552,39.100684261974585,24.437927663734115
107.52688172043011,0.0,9.775171065493646,131.96480938416423,14.662756598240469,322.5806451612903,9.775171065493646
9.775171065493646,4.887585532746823,464.3206256109482,112.41446725317694,9.775171065493646,136.85239491691104,4.887585532746823
73.31378299120234,200.39100684261973,24.437927663734115,386.119257086999,14.662756598240469,131.96480938416423,9.775171065493646
107.52688172043011,381.2316715542522,9.775171065493646,92.86412512218965,53.763440860215056,366.5689149560117,9.775171065493646
14.662756598240469,39.100684261974585,185.7282502443793,9.775171065493646,19.550342130987293,112.41446725317694,4.887585532746823
4.887585532746823,14.662756598240469,63.53861192570871,146.6275659824047,9.775171065493646,19.550342130987293,0.0
4.887585532746823,4.887585532746823,29.325513196480937,83.08895405669598,14.662756598240469,24.437927663734115,4.887585532746823
0.0,9.775171065493646,97.75171065493646,39.100684261974585,24.437927663734115,410.55718475073314,9.775171065493646
190.6158357771261,166.17790811339196,73.31378299120234,29.325513196480937,39.100684261974585,361.6813294232649,9.775171065493646
146.6275659824047,180.84066471163246,73.31378299120234,645.1612903225806,14.662756598240469,395.89442815249265,0.0
53.763440860215056,679.3743890518084,29.325513196480937,107.52688172043011,4.887585532746823,356.7937438905181,9.775171065493646
9.775171065493646,29.325513196480937,4.887585532746823,4.887585532746823,0.0,53.763440860215056,14.662756598240469
322.5806451612903,43.98826979472141,562.0723362658846,366.5689149560117,112.41446725317694,586.5102639296188,4.887585532746823
136.85239491691104,19.550342130987293,34.21309872922776,234.6041055718475,141.73998044965788,97.75171065493646,4.887585532746823
9.775171065493646,200.39100684261973,127.07722385141741,14.662756598240469,19.550342130987293,63.53861192570871,4.887585532746823
24.437927663734115,58.651026392961874,68.42619745845552,127.07722385141741,4.887585532746823,53.763440860215056,9.775171065493646
4.887585532746823,29.325513196480937,278.5923753665689,9.775171065493646,4.887585532746823,122.18963831867057,9.775171065493646
97.75171065493646,87.97653958944282,127.07722385141741,48.87585532746823,19.550342130987293,420.33235581622677,9.775171065493646
14.662756598240469,9.775171065493646,9.775171065493646,469.208211143695,9.775171065493646,24.437927663734115,4.887585532746823
9.775171065493646,298.14271749755625,581.622678396872,102.63929618768329,53.763440860215056,263.92961876832845,0.0
14.662756598240469,180.84066471163246,161.29032258064515,63.53861192570871,58.651026392961874,29.325513196480937,9.775171065493646
4.887585532746823,34.21309872922776,73.31378299120234,4.887585532746823,9.775171065493646,29.325513196480937,9.775171065493646
166.17790811339196,48.87585532746823,166.17790811339196,327.4682306940371,63.53861192570871,273.7047898338221,0.0
68.42619745845552,4.887585532746823,332.35581622678393,78.20136852394917,9.775171065493646,53.763440860215056,0.0
14.662756598240469,141.73998044965788,19.550342130987293,48.87585532746823,9.775171065493646,386.119257086999,0.0
4.887585532746823,141.73998044965788,4.887585532746823,92.86412512218965,58.651026392961874,97.75171065493646,0.0
156.40273704789834,43.98826979472141,83.08895405669598,14.662756598240469,29.325513196480937,444.77028347996094,9.775171065493646
166.17790811339196,9.775171065493646,215.05376344086022,0.0,4.887585532746823,127.07722385141741,19.550342130987293
14.662756598240469,14.662756598240469,43.98826979472141,747.800586510264,9.775171065493646,190.6158357771261,9.775171065493646
0.0,151.51515151515153,102.63929618768329,53.763440860215056,83.08895405669598,288.36754643206257,0.0
9.775171065493646,48.87585532746823,34.21309872922776,24.437927663734115,131.96480938416423,43.98826979472141,0.0
166.17790811339196,63.53861192570871,244.37927663734115,239.49169110459434,29.325513196480937,557.1847507331378,4.887585532746823
229.7165200391007,102.63929618768329,24.437927663734115,469.208211143695,19.550342130987293,127.07722385141741,0.0
14.662756598240469,24.437927663734115,156.40273704789834,24.437927663734115,83.08895405669598,53.763440860215056,0.0
9.775171065493646,239.49169110459434,14.662756598240469,19.550342130987293,4.887585532746823,361.6813294232649,4.887585532746823
102.63929618768329,92.86412512218965,63.53861192570871,92.86412512218965,0.0,127.07722385141741,9.775171065493646
14.662756598240469,29.325513196480937,102.63929618768329,63.53861192570871,0.0,53.763440860215056,4.887585532746823
342.1309872922776,161.29032258064515,195.50342130987292,29.325513196480937,53.763440860215056,29.325513196480937,4.887585532746823
146.6275659824047,102.63929618768329,131.96480938416423,9.775171065493646,9.775171065493646,9.775171065493646,9.775171065493646
73.31378299120234,24.437927663734115,24.437927663734115,513.1964809384165,14.662756598240469,273.7047898338221,4.887585532746823
48.87585532746823,14.662756598240469,34.21309872922776,14.662756598240469,24.437927663734115,141.73998044965788,9.775171065493646
4.887585532746823,215.05376344086022,9.775171065493646,9.775171065493646,9.775171065493646,39.100684261974585,14.662756598240469
4.887585532746823,87.97653958944282,127.07722385141741,112.41446725317694,19.550342130987293,4.887585532746823,9.775171065493646
146.6275659824047,9.775171065493646,73.31378299120234,73.31378299120234,4.887585532746823,532.7468230694037,4.887585532746823
19.550342130987293,9.775171065493646,625.6109481915934,43.98826979472141,14.662756598240469,171.0654936461388,29.325513196480937
97.75171065493646,268.81720430107526,14.662756598240469,9.775171065493646,63.53861192570871,34.21309872922776,9.775171065493646
9.775171065493646,151.51515151515153,73.31378299120234,34.21309872922776,9.775171065493646,161.29032258064515,14.662756598240469
83.08895405669598,34.21309872922776,215.05376344086022,43.98826979472141,9.775171065493646,107.52688172043011,9.775171065493646
19.550342130987293,122.18963831867057,244.37927663734115,127.07722385141741,92.86412512218965,34.21309872922776,4.887585532746823
9.775171065493646,14.662756598240469,210.16617790811338,48.87585532746823,19.550342130987293,576.7350928641251,4.887585532746823
9.775171065493646,102.63929618768329,19.550342130987293,122.18963831867057,4.887585532746823,29.325513196480937,4.887585532746823
9.775171065493646,117.30205278592375,24.437927663734115,420.33235581622677,0.0,146.6275659824047,4.887585532746823
19.550342130987293,9.775171065493646,571.8475073313783,78.20136852394917,9.775171065493646,224.82893450635387,0.0
83.08895405669598,112.41446725317694,29.325513196480937,312.8054740957967,19.550342130987293,19.550342130987293,0.0
9.775171065493646,14.662756598240469,146.6275659824047,24.437927663734115,107.52688172043011,87.97653958944282,0.0
175.95307917888564,180.84066471163246,58.651026392961874,9.775171065493646,117.30205278592375,488.7585532746823,4.887585532746823
19.550342130987293,29.325513196480937,219.94134897360706,312.8054740957967,19.550342130987293,351.9061583577713,19.550342130987293
63.53861192570871,24.437927663734115,478.9833822091887,39.100684261974585,4.887585532746823,83.08895405669598,9.775171065493646
136.85239491691104,14.662756598240469,117.30205278592375,259.04203323558164,14.662756598240469,131.96480938416423,9.775171065493646
14.662756598240469,219.94134897360706,14.662756598240469,58.651026392961874,34.21309872922776,141.73998044965788,4.887585532746823
4.887585532746823,97.75171065493646,190.6158357771261,9.775171065493646,29.325513196480937,146.6275659824047,4.887585532746823
434.99511241446726,4.887585532746823,136.85239491691104,4.887585532746823,14.662756598240469,127.07722385141741,4.887585532746823
102.63929618768329,29.325513196480937,97.75171065493646,4.887585532746823,73.31378299120234,87.97653958944282,4.887585532746823
4.887585532746823,63.53861192570871,400.78201368523946,78.20136852394917,19.550342130987293,87.97653958944282,4.887585532746823
24.437927663734115,14.662756598240469,141.73998044965788,175.95307917888564,4.887585532746823,200.39100684261973,4.887585532746823
14.662756598240469,43.98826979472141,24.437927663734115,215.05376344086022,34.21309872922776,87.97653958944282,24.437927663734115
4.887585532746823,34.21309872922776,39.100684261974585,83.08895405669598,58.651026392961874,219.94134897360706,14.662756598240469
24.437927663734115,4.887585532746823,87.97653958944282,4.887585532746823,34.21309872922776,180.84066471163246,4.887585532746823
161.29032258064515,87.97653958944282,180.84066471163246,356.7937438905181,9.775171065493646,73.31378299120234,4.887585532746823
29.325513196480937,39.100684261974585,141.73998044965788,39.100684261974585,4.887585532746823,68.42619745845552,9.775171065493646
4.887585532746823,43.98826979472141,9.775171065493646,117.30205278592375,29.325513196480937,185.7282502443793,4.887585532746823
9.775171065493646,4.887585532746823,146.6275659824047,322.5806451612903,19.550342130987293,219.94134897360706,0.0
29.325513196480937,268.81720430107526,136.85239491691104,48.87585532746823,0.0,58.651026392961874,0.0
4.887585532746823,29.325513196480937,102.63929618768329,161.29032258064515,48.87585532746823,63.53861192570871,0.0
87.97653958944282,171.0654936461388,83.08895405669598,63.53861192570871,24.437927663734115,102.63929618768329,4.887585532746823
14.662756598240469,68.42619745845552,34.21309872922776,24.437927663734115,9.775171065493646,83.08895405669598,4.887585532746823
0.0,53.763440860215056,151.51515151515153,19.550342130987293,24.437927663734115,63.53861192570871,4.887585532746823
0.0,9.775171065493646,117.30205278592375,9.775171065493646,19.550342130987293,107.52688172043011,9.775171065493646
78.20136852394917,58.651026392961874,102.63929618768329,4.887585532746823,9.775171065493646,215.05376344086022,9.775171065493646
48.87585532746823,39.100684261974585,205.27859237536657,39.100684261974585,122.18963831867057,493.6461388074291,0.0
43.98826979472141,24.437927663734115,278.5923753665689,376.3440860215054,4.887585532746823,728.2502443792766,4.887585532746823
117.30205278592375,4.887585532746823,83.08895405669598,259.04203323558164,24.437927663734115,92.86412512218965,24.437927663734115
73.31378299120234,14.662756598240469,63.53861192570871,39.100684261974585,4.887585532746823,782.0136852394917,4.887585532746823
29.325513196480937,141.73998044965788,122.18963831867057,14.662756598240469,4.887585532746823,63.53861192570871,9.775171065493646
14.662756598240469,34.21309872922776,161.29032258064515,19.550342130987293,34.21309872922776,234.6041055718475,0.0
122.18963831867057,4.887585532746823,200.39100684261973,4.887585532746823,14.662756598240469,63.53861192570871,146.6275659824047
219.94134897360706,219.94134897360706,73.31378299120234,83.08895405669598,9.775171065493646,19.550342130987293,34.21309872922776
58.651026392961874,151.51515151515153,24.437927663734115,48.87585532746823,92.86412512218965,200.39100684261973,19.550342130987293
87.97653958944282,19.550342130987293,386.119257086999,4.887585532746823,43.98826979472141,43.98826979472141,9.775171065493646
102.63929618768329,14.662756598240469,58.651026392961874,4.887585532746823,4.887585532746823,9.775171065493646,0.0
4.887585532746823,43.98826979472141,97.75171065493646,43.98826979472141,9.775171065493646,29.325513196480937,4.887585532746823
9.775171065493646,24.437927663734115,19.550342130987293,24.437927663734115,24.437927663734115,185.7282502443793,4.887585532746823
166.17790811339196,39.100684261974585,4.887585532746823,68.42619745845552,9.775171065493646,63.53861192570871,0.0
97.75171065493646,29.325513196480937,24.437927663734115,356.7937438905181,48.87585532746823,112.41446725317694,9.775171065493646
58.651026392961874,4.887585532746823,244.37927663734115,43.98826979472141,58.651026392961874,127.07722385141741,4.887585532746823
19.550342130987293,180.84066471163246,273.7047898338221,0.0,9.775171065493646,78.20136852394917,14.662756598240469
9.775171065493646,39.100684261974585,351.9061583577713,34.21309872922776,24.437927663734115,48.87585532746823,14.662756598240469
4.887585532746823,53.763440860215056,24.437927663734115,420.33235581622677,0.0,107.52688172043011,9.775171065493646
9.775171065493646,24.437927663734115,68.42619745845552,43.98826979472141,29.325513196480937,43.98826979472141,4.887585532746823
29.325513196480937,24.437927663734115,83.08895405669598,9.775171065493646,19.550342130987293,117.30205278592375,4.887585532746823
141.73998044965788,92.86412512218965,34.21309872922776,4.887585532746823,9.775171065493646,39.100684261974585,4.887585532746823
19.550342130987293,29.325513196480937,29.325513196480937,508.30889540566966,73.31378299120234,244.37927663734115,4.887585532746823
4.887585532746823,43.98826979472141,185.7282502443793,68.42619745845552,43.98826979472141,19.550342130987293,4.887585532746823
4.887585532746823,9.775171065493646,210.16617790811338,9.775171065493646,0.0,434.99511241446726,0.0
4.887585532746823,9.775171065493646,53.763440860215056,9.775171065493646,48.87585532746823,234.6041055718475,14.662756598240469
39.100684261974585,73.31378299120234,83.08895405669598,48.87585532746823,14.662756598240469,175.95307917888564,4.887585532746823
87.97653958944282,156.40273704789834,34.21309872922776,200.39100684261973,63.53861192570871,146.6275659824047,4.887585532746823
53.763440860215056,43.98826979472141,131.96480938416423,141.73998044965788,19.550342130987293,43.98826979472141,9.775171065493646
43.98826979472141,34.21309872922776,39.100684261974585,97.75171065493646,9.775171065493646,268.81720430107526,4.887585532746823
4.887585532746823,87.97653958944282,24.437927663734115,9.775171065493646,0.0,48.87585532746823,4.887585532746823
9.775171065493646,43.98826979472141,97.75171065493646,9.775171065493646,9.775171065493646,73.31378299120234,34.21309872922776
