HandOpen,HandClose,Wrist Flexion,Wrist Extension,Supination,Pronation,Rest
0.0,102.63929618768329,0.0,0.0,14.662756598240469,156.40273704789834,259.04203323558164
4.887585532746823,63.53861192570871,4.887585532746823,4.887585532746823,48.87585532746823,107.52688172043011,180.84066471163246
4.887585532746823,24.437927663734115,4.887585532746823,0.0,136.85239491691104,43.98826979472141,78.20136852394917
4.887585532746823,14.662756598240469,39.100684261974585,4.887585532746823,200.39100684261973,19.550342130987293,34.21309872922776
4.887585532746823,4.887585532746823,83.08895405669598,39.100684261974585,229.7165200391007,14.662756598240469,14.662756598240469
73.31378299120234,9.775171065493646,122.18963831867057,112.41446725317694,215.05376344086022,4.887585532746823,4.887585532746823
161.29032258064515,9.775171065493646,131.96480938416423,180.84066471163246,166.17790811339196,9.775171065493646,0.0
210.16617790811338,4.887585532746823,131.96480938416423,210.16617790811338,83.08895405669598,0.0,9.775171065493646
205.27859237536657,4.887585532746823,107.52688172043011,175.95307917888564,39.100684261974585,0.0,9.775171065493646
171.0654936461388,4.887585532746823,43.98826979472141,112.41446725317694,24.437927663734115,29.325513196480937,4.887585532746823
92.86412512218965,34.21309872922776,24.437927663734115,68.42619745845552,9.775171065493646,78.20136852394917,68.42619745845552
48.87585532746823,78.20136852394917,14.662756598240469,24.437927663734115,4.887585532746823,117.30205278592375,166.17790811339196
14.662756598240469,127.07722385141741,9.775171065493646,14.662756598240469,0.0,166.17790811339196,259.04203323558164
14.662756598240469,151.51515151515153,9.775171065493646,9.775171065493646,4.887585532746823,195.50342130987292,298.14271749755625
0.0,141.73998044965788,4.887585532746823,9.775171065493646,4.887585532746823,175.95307917888564,283.47996089931576
4.887585532746823,92.86412512218965,0.0,4.887585532746823,68.42619745845552,117.30205278592375,210.16617790811338
0.0,39.100684261974585,4.887585532746823,9.775171065493646,161.29032258064515,43.98826979472141,102.63929618768329
9.775171065493646,24.437927663734115,29.325513196480937,14.662756598240469,239.49169110459434,19.550342130987293,39.100684261974585
19.550342130987293,9.775171065493646,73.31378299120234,53.763440860215056,259.04203323558164,4.887585532746823,19.550342130987293
73.31378299120234,4.887585532746823,112.41446725317694,127.07722385141741,219.94134897360706,9.775171065493646,9.775171065493646
171.0654936461388,4.887585532746823,127.07722385141741,180.84066471163246,131.96480938416423,4.887585532746823,9.775171065493646
219.94134897360706,9.775171065493646,107.52688172043011,200.39100684261973,58.651026392961874,0.0,0.0
219.94134897360706,9.775171065493646,87.97653958944282,171.0654936461388,29.325513196480937,4.887585532746823,0.0
171.0654936461388,24.437927663734115,29.325513196480937,117.30205278592375,9.775171065493646,14.662756598240469,4.887585532746823
83.08895405669598,63.53861192570871,14.662756598240469,58.651026392961874,9.775171065493646,58.651026392961874,48.87585532746823
34.21309872922776,92.86412512218965,9.775171065493646,29.325513196480937,0.0,122.18963831867057,151.51515151515153
19.550342130987293,127.07722385141741,4.887585532746823,14.662756598240469,0.0,161.29032258064515,224.82893450635387
4.887585532746823,92.86412512218965,9.775171065493646,9.775171065493646,0.0,175.95307917888564,259.04203323558164
4.887585532746823,63.53861192570871,4.887585532746823,4.887585532746823,107.52688172043011,151.51515151515153,107.52688172043011
34.21309872922776,4.887585532746823,0.0,24.437927663734115,268.81720430107526,14.662756598240469,0.0
229.7165200391007,9.775171065493646,53.763440860215056,141.73998044965788,24.437927663734115,0.0,0.0
141.73998044965788,4.887585532746823,131.96480938416423,117.30205278592375,9.775171065493646,29.325513196480937,127.07722385141741
14.662756598240469,87.97653958944282,19.550342130987293,4.887585532746823,9.775171065493646,122.18963831867057,278.5923753665689
4.887585532746823,87.97653958944282,9.775171065493646,0.0,175.95307917888564,58.651026392961874,24.437927663734115
29.325513196480937,4.887585532746823,9.775171065493646,48.87585532746823,127.07722385141741,0.0,4.887585532746823
200.39100684261973,4.887585532746823,78.20136852394917,190.6158357771261,4.887585532746823,0.0,0.0
48.87585532746823,9.775171065493646,112.41446725317694,24.437927663734115,0.0,19.550342130987293,166.17790811339196
4.887585532746823,102.63929618768329,14.662756598240469,4.887585532746823,48.87585532746823,92.86412512218965,224.82893450635387
9.775171065493646,43.98826979472141,0.0,4.887585532746823,249.26686217008796,73.31378299120234,19.550342130987293
107.52688172043011,4.887585532746823,9.775171065493646,107.52688172043011,34.21309872922776,9.775171065493646,4.887585532746823
166.17790811339196,4.887585532746823,117.30205278592375,175.95307917888564,4.887585532746823,9.775171065493646,24.437927663734115
14.662756598240469,4.887585532746823,48.87585532746823,19.550342130987293,0.0,107.52688172043011,249.26686217008796
0.0,102.63929618768329,0.0,4.887585532746823,102.63929618768329,92.86412512218965,136.85239491691104
4.887585532746823,58.651026392961874,4.887585532746823,4.887585532746823,234.6041055718475,14.662756598240469,14.662756598240469
195.50342130987292,4.887585532746823,87.97653958944282,156.40273704789834,19.550342130987293,0.0,4.887585532746823
136.85239491691104,4.887585532746823,127.07722385141741,131.96480938416423,4.887585532746823,9.775171065493646,127.07722385141741
9.775171065493646,43.98826979472141,4.887585532746823,9.775171065493646,9.775171065493646,117.30205278592375,288.36754643206257
9.775171065493646,156.40273704789834,4.887585532746823,9.775171065493646,224.82893450635387,78.20136852394917,29.325513196480937
39.100684261974585,29.325513196480937,4.887585532746823,68.42619745845552,166.17790811339196,9.775171065493646,4.887585532746823
244.37927663734115,9.775171065493646,112.41446725317694,180.84066471163246,14.662756598240469,4.887585532746823,9.775171065493646
53.763440860215056,0.0,102.63929618768329,29.325513196480937,0.0,29.325513196480937,166.17790811339196
0.0,34.21309872922776,9.775171065493646,9.775171065493646,53.763440860215056,136.85239491691104,234.6041055718475
0.0,185.7282502443793,4.887585532746823,9.775171065493646,249.26686217008796,58.651026392961874,24.437927663734115
122.18963831867057,43.98826979472141,14.662756598240469,136.85239491691104,34.21309872922776,4.887585532746823,14.662756598240469
229.7165200391007,9.775171065493646,122.18963831867057,131.96480938416423,4.887585532746823,0.0,29.325513196480937
24.437927663734115,4.887585532746823,43.98826979472141,19.550342130987293,9.775171065493646,68.42619745845552,259.04203323558164
4.887585532746823,43.98826979472141,4.887585532746823,9.775171065493646,151.51515151515153,107.52688172043011,136.85239491691104
9.775171065493646,166.17790811339196,0.0,19.550342130987293,219.94134897360706,9.775171065493646,4.887585532746823
195.50342130987292,24.437927663734115,4.887585532746823,180.84066471163246,19.550342130987293,4.887585532746823,4.887585532746823
146.6275659824047,0.0,83.08895405669598,112.41446725317694,9.775171065493646,14.662756598240469,97.75171065493646
9.775171065493646,4.887585532746823,48.87585532746823,9.775171065493646,0.0,78.20136852394917,268.81720430107526
9.775171065493646,39.100684261974585,0.0,9.775171065493646,175.95307917888564,117.30205278592375,39.100684261974585
43.98826979472141,171.0654936461388,4.887585532746823,68.42619745845552,166.17790811339196,9.775171065493646,4.887585532746823
210.16617790811338,53.763440860215056,53.763440860215056,171.0654936461388,9.775171065493646,4.887585532746823,0.0
78.20136852394917,4.887585532746823,122.18963831867057,19.550342130987293,9.775171065493646,29.325513196480937,156.40273704789834
9.775171065493646,4.887585532746823,14.662756598240469,4.887585532746823,53.763440860215056,131.96480938416423,234.6041055718475
0.0,63.53861192570871,4.887585532746823,0.0,249.26686217008796,34.21309872922776,19.550342130987293
73.31378299120234,73.31378299120234,0.0,122.18963831867057,39.100684261974585,4.887585532746823,4.887585532746823
205.27859237536657,0.0,102.63929618768329,175.95307917888564,9.775171065493646,0.0,4.887585532746823
24.437927663734115,0.0,102.63929618768329,9.775171065493646,4.887585532746823,29.325513196480937,239.49169110459434
4.887585532746823,4.887585532746823,4.887585532746823,0.0,136.85239491691104,117.30205278592375,141.73998044965788
0.0,102.63929618768329,0.0,14.662756598240469,254.15444770283483,29.325513196480937,9.775171065493646
156.40273704789834,73.31378299120234,9.775171065493646,161.29032258064515,29.325513196480937,4.887585532746823,9.775171065493646
107.52688172043011,4.887585532746823,151.51515151515153,83.08895405669598,4.887585532746823,0.0,63.53861192570871
9.775171065493646,4.887585532746823,48.87585532746823,9.775171065493646,9.775171065493646,0.0,273.7047898338221
9.775171065493646,43.98826979472141,4.887585532746823,9.775171065493646,175.95307917888564,146.6275659824047,58.651026392961874
29.325513196480937,112.41446725317694,0.0,39.100684261974585,156.40273704789834,97.75171065493646,4.887585532746823
190.6158357771261,34.21309872922776,68.42619745845552,224.82893450635387,9.775171065493646,9.775171065493646,14.662756598240469
73.31378299120234,9.775171065493646,107.52688172043011,63.53861192570871,9.775171065493646,4.887585532746823,249.26686217008796
9.775171065493646,9.775171065493646,4.887585532746823,9.775171065493646,53.763440860215056,43.98826979472141,127.07722385141741
4.887585532746823,73.31378299120234,4.887585532746823,0.0,219.94134897360706,97.75171065493646,4.887585532746823
78.20136852394917,146.6275659824047,0.0,136.85239491691104,29.325513196480937,29.325513196480937,4.887585532746823
195.50342130987292,19.550342130987293,102.63929618768329,156.40273704789834,9.775171065493646,9.775171065493646,122.18963831867057
19.550342130987293,4.887585532746823,112.41446725317694,9.775171065493646,4.887585532746823,4.887585532746823,273.7047898338221
4.887585532746823,4.887585532746823,4.887585532746823,9.775171065493646,141.73998044965788,112.41446725317694,29.325513196480937
0.0,87.97653958944282,9.775171065493646,24.437927663734115,249.26686217008796,122.18963831867057,4.887585532746823
156.40273704789834,78.20136852394917,9.775171065493646,215.05376344086022,29.325513196480937,9.775171065493646,4.887585532746823
156.40273704789834,4.887585532746823,107.52688172043011,87.97653958944282,0.0,0.0,190.6158357771261
14.662756598240469,9.775171065493646,43.98826979472141,0.0,19.550342130987293,4.887585532746823,219.94134897360706
9.775171065493646,14.662756598240469,4.887585532746823,0.0,259.04203323558164,87.97653958944282,14.662756598240469
48.87585532746823,102.63929618768329,4.887585532746823,58.651026392961874,185.7282502443793,127.07722385141741,4.887585532746823
224.82893450635387,29.325513196480937,14.662756598240469,195.50342130987292,9.775171065493646,14.662756598240469,53.763440860215056
34.21309872922776,0.0,102.63929618768329,24.437927663734115,0.0,9.775171065493646,254.15444770283483
4.887585532746823,0.0,34.21309872922776,0.0,29.325513196480937,14.662756598240469,43.98826979472141
9.775171065493646,9.775171065493646,4.887585532746823,9.775171065493646,205.27859237536657,146.6275659824047,9.775171065493646
83.08895405669598,83.08895405669598,4.887585532746823,112.41446725317694,151.51515151515153,87.97653958944282,4.887585532746823
210.16617790811338,63.53861192570871,4.887585532746823,131.96480938416423,14.662756598240469,4.887585532746823,112.41446725317694
14.662756598240469,4.887585532746823,141.73998044965788,14.662756598240469,9.775171065493646,0.0,254.15444770283483
4.887585532746823,0.0,63.53861192570871,9.775171065493646,122.18963831867057,43.98826979472141,29.325513196480937
9.775171065493646,58.651026392961874,9.775171065493646,14.662756598240469,239.49169110459434,171.0654936461388,9.775171065493646
215.05376344086022,102.63929618768329,4.887585532746823,171.0654936461388,24.437927663734115,48.87585532746823,0.0
180.84066471163246,19.550342130987293,43.98826979472141,83.08895405669598,9.775171065493646,4.887585532746823,161.29032258064515
9.775171065493646,0.0,210.16617790811338,4.887585532746823,9.775171065493646,4.887585532746823,190.6158357771261
4.887585532746823,4.887585532746823,43.98826979472141,0.0,180.84066471163246,102.63929618768329,14.662756598240469
9.775171065493646,53.763440860215056,0.0,58.651026392961874,156.40273704789834,146.6275659824047,0.0
195.50342130987292,83.08895405669598,4.887585532746823,171.0654936461388,4.887585532746823,9.775171065493646,24.437927663734115
78.20136852394917,9.775171065493646,68.42619745845552,24.437927663734115,0.0,9.775171065493646,229.7165200391007
0.0,0.0,131.96480938416423,9.775171065493646,29.325513196480937,29.325513196480937,131.96480938416423
0.0,9.775171065493646,24.437927663734115,4.887585532746823,229.7165200391007,127.07722385141741,9.775171065493646
73.31378299120234,97.75171065493646,9.775171065493646,141.73998044965788,122.18963831867057,102.63929618768329,0.0
185.7282502443793,53.763440860215056,4.887585532746823,161.29032258064515,9.775171065493646,4.887585532746823,107.52688172043011
14.662756598240469,4.887585532746823,78.20136852394917,14.662756598240469,0.0,0.0,283.47996089931576
9.775171065493646,4.887585532746823,102.63929618768329,4.887585532746823,112.41446725317694,39.100684261974585,29.325513196480937
9.775171065493646,24.437927663734115,9.775171065493646,14.662756598240469,288.36754643206257,151.51515151515153,0.0
180.84066471163246,136.85239491691104,9.775171065493646,151.51515151515153,34.21309872922776,39.100684261974585,14.662756598240469
161.29032258064515,53.763440860215056,0.0,112.41446725317694,9.775171065493646,9.775171065493646,219.94134897360706
14.662756598240469,9.775171065493646,136.85239491691104,4.887585532746823,29.325513196480937,0.0,185.7282502443793
9.775171065493646,4.887585532746823,63.53861192570871,0.0,268.81720430107526,48.87585532746823,14.662756598240469
9.775171065493646,68.42619745845552,9.775171065493646,48.87585532746823,146.6275659824047,136.85239491691104,0.0
161.29032258064515,87.97653958944282,4.887585532746823,195.50342130987292,9.775171065493646,14.662756598240469,19.550342130987293
112.41446725317694,14.662756598240469,53.763440860215056,24.437927663734115,0.0,0.0,234.6041055718475
9.775171065493646,14.662756598240469,117.30205278592375,9.775171065493646,53.763440860215056,0.0,141.73998044965788
4.887585532746823,4.887585532746823,4.887585532746823,0.0,244.37927663734115,92.86412512218965,4.887585532746823
53.763440860215056,102.63929618768329,9.775171065493646,131.96480938416423,43.98826979472141,107.52688172043011,0.0
219.94134897360706,68.42619745845552,9.775171065493646,166.17790811339196,9.775171065493646,4.887585532746823,102.63929618768329
29.325513196480937,0.0,151.51515151515153,24.437927663734115,4.887585532746823,9.775171065493646,254.15444770283483
9.775171065493646,9.775171065493646,117.30205278592375,4.887585532746823,97.75171065493646,9.775171065493646,24.437927663734115
9.775171065493646,19.550342130987293,9.775171065493646,19.550342130987293,224.82893450635387,131.96480938416423,0.0
141.73998044965788,136.85239491691104,0.0,200.39100684261973,19.550342130987293,43.98826979472141,9.775171065493646
136.85239491691104,53.763440860215056,0.0,141.73998044965788,0.0,4.887585532746823,166.17790811339196
9.775171065493646,4.887585532746823,92.86412512218965,14.662756598240469,9.775171065493646,0.0,205.27859237536657
0.0,4.887585532746823,68.42619745845552,0.0,175.95307917888564,34.21309872922776,19.550342130987293
4.887585532746823,73.31378299120234,14.662756598240469,58.651026392961874,131.96480938416423,151.51515151515153,0.0
180.84066471163246,102.63929618768329,0.0,180.84066471163246,9.775171065493646,68.42619745845552,9.775171065493646
107.52688172043011,14.662756598240469,24.437927663734115,34.21309872922776,9.775171065493646,4.887585532746823,229.7165200391007
9.775171065493646,4.887585532746823,117.30205278592375,4.887585532746823,39.100684261974585,4.887585532746823,180.84066471163246
0.0,9.775171065493646,19.550342130987293,0.0,210.16617790811338,39.100684261974585,14.662756598240469
63.53861192570871,68.42619745845552,0.0,107.52688172043011,131.96480938416423,136.85239491691104,4.887585532746823
195.50342130987292,117.30205278592375,9.775171065493646,190.6158357771261,4.887585532746823,48.87585532746823,68.42619745845552
24.437927663734115,9.775171065493646,43.98826979472141,14.662756598240469,4.887585532746823,4.887585532746823,259.04203323558164
4.887585532746823,4.887585532746823,136.85239491691104,9.775171065493646,112.41446725317694,4.887585532746823,24.437927663734115
0.0,4.887585532746823,29.325513196480937,19.550342130987293,263.92961876832845,97.75171065493646,9.775171065493646
171.0654936461388,97.75171065493646,0.0,171.0654936461388,29.325513196480937,156.40273704789834,4.887585532746823
171.0654936461388,112.41446725317694,0.0,112.41446725317694,4.887585532746823,14.662756598240469,141.73998044965788
19.550342130987293,14.662756598240469,19.550342130987293,4.887585532746823,14.662756598240469,9.775171065493646,210.16617790811338
9.775171065493646,4.887585532746823,127.07722385141741,4.887585532746823,185.7282502443793,9.775171065493646,14.662756598240469
4.887585532746823,48.87585532746823,53.763440860215056,58.651026392961874,151.51515151515153,136.85239491691104,0.0
166.17790811339196,122.18963831867057,4.887585532746823,210.16617790811338,9.775171065493646,161.29032258064515,0.0
83.08895405669598,14.662756598240469,4.887585532746823,29.325513196480937,9.775171065493646,9.775171065493646,205.27859237536657
9.775171065493646,0.0,58.651026392961874,9.775171065493646,68.42619745845552,0.0,156.40273704789834
9.775171065493646,9.775171065493646,92.86412512218965,0.0,254.15444770283483,43.98826979472141,9.775171065493646
63.53861192570871,87.97653958944282,9.775171065493646,63.53861192570871,53.763440860215056,161.29032258064515,4.887585532746823
219.94134897360706,78.20136852394917,4.887585532746823,156.40273704789834,4.887585532746823,43.98826979472141,78.20136852394917
24.437927663734115,4.887585532746823,0.0,14.662756598240469,0.0,9.775171065493646,259.04203323558164
9.775171065493646,0.0,107.52688172043011,4.887585532746823,180.84066471163246,0.0,34.21309872922776
4.887585532746823,29.325513196480937,43.98826979472141,9.775171065493646,185.7282502443793,29.325513196480937,0.0
127.07722385141741,112.41446725317694,9.775171065493646,161.29032258064515,14.662756598240469,136.85239491691104,9.775171065493646
161.29032258064515,48.87585532746823,4.887585532746823,107.52688172043011,4.887585532746823,43.98826979472141,171.0654936461388
14.662756598240469,9.775171065493646,9.775171065493646,4.887585532746823,24.437927663734115,4.887585532746823,234.6041055718475
4.887585532746823,0.0,151.51515151515153,4.887585532746823,229.7165200391007,0.0,24.437927663734115
4.887585532746823,34.21309872922776,63.53861192570871,68.42619745845552,107.52688172043011,43.98826979472141,0.0
180.84066471163246,122.18963831867057,4.887585532746823,224.82893450635387,4.887585532746823,141.73998044965788,9.775171065493646
131.96480938416423,24.437927663734115,4.887585532746823,29.325513196480937,9.775171065493646,53.763440860215056,205.27859237536657
4.887585532746823,0.0,29.325513196480937,4.887585532746823,166.17790811339196,0.0,166.17790811339196
4.887585532746823,0.0,127.07722385141741,0.0,195.50342130987292,0.0,9.775171065493646
29.325513196480937,58.651026392961874,43.98826979472141,97.75171065493646,14.662756598240469,97.75171065493646,0.0
185.7282502443793,97.75171065493646,9.775171065493646,180.84066471163246,0.0,127.07722385141741,73.31378299120234
107.52688172043011,9.775171065493646,4.887585532746823,14.662756598240469,4.887585532746823,9.775171065493646,278.5923753665689
14.662756598240469,4.887585532746823,48.87585532746823,9.775171065493646,156.40273704789834,0.0,48.87585532746823
9.775171065493646,4.887585532746823,117.30205278592375,4.887585532746823,146.6275659824047,39.100684261974585,0.0
122.18963831867057,39.100684261974585,14.662756598240469,185.7282502443793,9.775171065493646,156.40273704789834,14.662756598240469
156.40273704789834,117.30205278592375,9.775171065493646,136.85239491691104,9.775171065493646,73.31378299120234,224.82893450635387
14.662756598240469,4.887585532746823,9.775171065493646,14.662756598240469,48.87585532746823,4.887585532746823,156.40273704789834
4.887585532746823,0.0,83.08895405669598,4.887585532746823,259.04203323558164,9.775171065493646,4.887585532746823
14.662756598240469,0.0,97.75171065493646,43.98826979472141,43.98826979472141,24.437927663734115,0.0
156.40273704789834,73.31378299120234,9.775171065493646,180.84066471163246,9.775171065493646,156.40273704789834,63.53861192570871
131.96480938416423,78.20136852394917,0.0,48.87585532746823,0.0,48.87585532746823,278.5923753665689
14.662756598240469,4.887585532746823,29.325513196480937,0.0,102.63929618768329,0.0,39.100684261974585
4.887585532746823,4.887585532746823,127.07722385141741,4.887585532746823,229.7165200391007,0.0,9.775171065493646
83.08895405669598,19.550342130987293,34.21309872922776,87.97653958944282,24.437927663734115,58.651026392961874,0.0
210.16617790811338,122.18963831867057,9.775171065493646,156.40273704789834,9.775171065493646,171.0654936461388,161.29032258064515
24.437927663734115,34.21309872922776,4.887585532746823,24.437927663734115,4.887585532746823,29.325513196480937,229.7165200391007
0.0,9.775171065493646,4.887585532746823,9.775171065493646,131.96480938416423,9.775171065493646,9.775171065493646
9.775171065493646,0.0,97.75171065493646,14.662756598240469,200.39100684261973,0.0,9.775171065493646
107.52688172043011,14.662756598240469,43.98826979472141,185.7282502443793,19.550342130987293,127.07722385141741,29.325513196480937
166.17790811339196,107.52688172043011,0.0,122.18963831867057,0.0,107.52688172043011,234.6041055718475
19.550342130987293,43.98826979472141,0.0,9.775171065493646,14.662756598240469,14.662756598240469,161.29032258064515
0.0,0.0,9.775171065493646,4.887585532746823,219.94134897360706,0.0,9.775171065493646
9.775171065493646,9.775171065493646,92.86412512218965,24.437927663734115,92.86412512218965,4.887585532746823,0.0
151.51515151515153,14.662756598240469,78.20136852394917,229.7165200391007,9.775171065493646,166.17790811339196,87.97653958944282
141.73998044965788,122.18963831867057,4.887585532746823,83.08895405669598,4.887585532746823,73.31378299120234,293.2551319648094
4.887585532746823,34.21309872922776,9.775171065493646,0.0,87.97653958944282,4.887585532746823,43.98826979472141
0.0,0.0,29.325513196480937,9.775171065493646,254.15444770283483,4.887585532746823,9.775171065493646
43.98826979472141,4.887585532746823,97.75171065493646,131.96480938416423,34.21309872922776,39.100684261974585,4.887585532746823
185.7282502443793,39.100684261974585,39.100684261974585,151.51515151515153,9.775171065493646,151.51515151515153,156.40273704789834
68.42619745845552,102.63929618768329,4.887585532746823,14.662756598240469,9.775171065493646,29.325513196480937,244.37927663734115
0.0,43.98826979472141,9.775171065493646,0.0,156.40273704789834,9.775171065493646,14.662756598240469
4.887585532746823,9.775171065493646,29.325513196480937,14.662756598240469,190.6158357771261,9.775171065493646,4.887585532746823
122.18963831867057,9.775171065493646,122.18963831867057,190.6158357771261,9.775171065493646,83.08895405669598,4.887585532746823
205.27859237536657,9.775171065493646,29.325513196480937,107.52688172043011,0.0,151.51515151515153,239.49169110459434
19.550342130987293,122.18963831867057,9.775171065493646,9.775171065493646,9.775171065493646,14.662756598240469,200.39100684261973
4.887585532746823,53.763440860215056,0.0,4.887585532746823,166.17790811339196,4.887585532746823,4.887585532746823
9.775171065493646,4.887585532746823,73.31378299120234,39.100684261974585,102.63929618768329,14.662756598240469,9.775171065493646
185.7282502443793,9.775171065493646,141.73998044965788,210.16617790811338,0.0,127.07722385141741,68.42619745845552
156.40273704789834,73.31378299120234,14.662756598240469,58.651026392961874,0.0,102.63929618768329,259.04203323558164
9.775171065493646,112.41446725317694,4.887585532746823,0.0,78.20136852394917,4.887585532746823,39.100684261974585
4.887585532746823,9.775171065493646,4.887585532746823,4.887585532746823,249.26686217008796,4.887585532746823,4.887585532746823
53.763440860215056,0.0,73.31378299120234,97.75171065493646,24.437927663734115,24.437927663734115,9.775171065493646
229.7165200391007,0.0,92.86412512218965,156.40273704789834,9.775171065493646,141.73998044965788,112.41446725317694
19.550342130987293,117.30205278592375,9.775171065493646,9.775171065493646,9.775171065493646,58.651026392961874,234.6041055718475
9.775171065493646,87.97653958944282,4.887585532746823,9.775171065493646,122.18963831867057,9.775171065493646,24.437927663734115
9.775171065493646,9.775171065493646,9.775171065493646,9.775171065493646,229.7165200391007,0.0,0.0
102.63929618768329,4.887585532746823,127.07722385141741,146.6275659824047,29.325513196480937,29.325513196480937,9.775171065493646
180.84066471163246,4.887585532746823,58.651026392961874,112.41446725317694,4.887585532746823,175.95307917888564,224.82893450635387
9.775171065493646,122.18963831867057,4.887585532746823,4.887585532746823,9.775171065493646,48.87585532746823,141.73998044965788
9.775171065493646,58.651026392961874,4.887585532746823,0.0,171.0654936461388,9.775171065493646,9.775171065493646
4.887585532746823,0.0,29.325513196480937,43.98826979472141,97.75171065493646,9.775171065493646,0.0
171.0654936461388,4.887585532746823,161.29032258064515,219.94134897360706,9.775171065493646,102.63929618768329,73.31378299120234
131.96480938416423,34.21309872922776,43.98826979472141,39.100684261974585,4.887585532746823,78.20136852394917,259.04203323558164
4.887585532746823,131.96480938416423,9.775171065493646,0.0,92.86412512218965,9.775171065493646,34.21309872922776
0.0,24.437927663734115,9.775171065493646,0.0,234.6041055718475,4.887585532746823,0.0
43.98826979472141,4.887585532746823,34.21309872922776,48.87585532746823,29.325513196480937,4.887585532746823,0.0
205.27859237536657,4.887585532746823,122.18963831867057,215.05376344086022,4.887585532746823,161.29032258064515,161.29032258064515
68.42619745845552,43.98826979472141,34.21309872922776,29.325513196480937,4.887585532746823,78.20136852394917,234.6041055718475
9.775171065493646,136.85239491691104,4.887585532746823,4.887585532746823,171.0654936461388,4.887585532746823,9.775171065493646
4.887585532746823,29.325513196480937,9.775171065493646,0.0,166.17790811339196,4.887585532746823,9.775171065493646
127.07722385141741,9.775171065493646,39.100684261974585,97.75171065493646,9.775171065493646,58.651026392961874,4.887585532746823
200.39100684261973,0.0,136.85239491691104,175.95307917888564,0.0,146.6275659824047,224.82893450635387
24.437927663734115,39.100684261974585,19.550342130987293,19.550342130987293,9.775171065493646,19.550342130987293,175.95307917888564
4.887585532746823,141.73998044965788,4.887585532746823,0.0,190.6158357771261,0.0,4.887585532746823
4.887585532746823,29.325513196480937,9.775171065493646,9.775171065493646,87.97653958944282,0.0,4.887585532746823
156.40273704789834,9.775171065493646,43.98826979472141,175.95307917888564,4.887585532746823,97.75171065493646,68.42619745845552
185.7282502443793,0.0,127.07722385141741,122.18963831867057,0.0,117.30205278592375,283.47996089931576
14.662756598240469,92.86412512218965,24.437927663734115,4.887585532746823,97.75171065493646,9.775171065493646,48.87585532746823
0.0,107.52688172043011,4.887585532746823,9.775171065493646,244.37927663734115,9.775171065493646,0.0
19.550342130987293,14.662756598240469,0.0,24.437927663734115,24.437927663734115,24.437927663734115,34.21309872922776
195.50342130987292,0.0,63.53861192570871,151.51515151515153,0.0,131.96480938416423,263.92961876832845
87.97653958944282,0.0,127.07722385141741,102.63929618768329,9.775171065493646,97.75171065493646,195.50342130987292
4.887585532746823,78.20136852394917,19.550342130987293,9.775171065493646,180.84066471163246,9.775171065493646,4.887585532746823
9.775171065493646,97.75171065493646,4.887585532746823,0.0,244.37927663734115,9.775171065493646,4.887585532746823
73.31378299120234,9.775171065493646,9.775171065493646,53.763440860215056,9.775171065493646,117.30205278592375,87.97653958944282
175.95307917888564,9.775171065493646,73.31378299120234,141.73998044965788,4.887585532746823,249.26686217008796,322.5806451612903
19.550342130987293,9.775171065493646,78.20136852394917,9.775171065493646,9.775171065493646,19.550342130987293,48.87585532746823
9.775171065493646,141.73998044965788,9.775171065493646,4.887585532746823,210.16617790811338,0.0,9.775171065493646
9.775171065493646,83.08895405669598,0.0,14.662756598240469,151.51515151515153,0.0,9.775171065493646
131.96480938416423,4.887585532746823,4.887585532746823,156.40273704789834,9.775171065493646,122.18963831867057,205.27859237536657
141.73998044965788,4.887585532746823,107.52688172043011,127.07722385141741,4.887585532746823,166.17790811339196,156.40273704789834
14.662756598240469,39.100684261974585,39.100684261974585,9.775171065493646,58.651026392961874,14.662756598240469,4.887585532746823
0.0,136.85239491691104,14.662756598240469,9.775171065493646,273.7047898338221,4.887585532746823,4.887585532746823
19.550342130987293,29.325513196480937,4.887585532746823,48.87585532746823,34.21309872922776,9.775171065493646,53.763440860215056
185.7282502443793,4.887585532746823,0.0,195.50342130987292,4.887585532746823,107.52688172043011,254.15444770283483
63.53861192570871,4.887585532746823,151.51515151515153,34.21309872922776,0.0,107.52688172043011,43.98826979472141
9.775171065493646,53.763440860215056,73.31378299120234,4.887585532746823,175.95307917888564,4.887585532746823,0.0
0.0,141.73998044965788,4.887585532746823,0.0,190.6158357771261,9.775171065493646,9.775171065493646
83.08895405669598,19.550342130987293,0.0,92.86412512218965,14.662756598240469,53.763440860215056,117.30205278592375
190.6158357771261,9.775171065493646,24.437927663734115,171.0654936461388,4.887585532746823,171.0654936461388,234.6041055718475
19.550342130987293,0.0,136.85239491691104,9.775171065493646,43.98826979472141,24.437927663734115,19.550342130987293
0.0,43.98826979472141,34.21309872922776,4.887585532746823,293.2551319648094,4.887585532746823,9.775171065493646
4.887585532746823,127.07722385141741,9.775171065493646,19.550342130987293,127.07722385141741,4.887585532746823,29.325513196480937
117.30205278592375,14.662756598240469,0.0,151.51515151515153,4.887585532746823,112.41446725317694,263.92961876832845
151.51515151515153,9.775171065493646,9.775171065493646,107.52688172043011,4.887585532746823,161.29032258064515,171.0654936461388
9.775171065493646,9.775171065493646,131.96480938416423,14.662756598240469,87.97653958944282,19.550342130987293,4.887585532746823
9.775171065493646,58.651026392961874,48.87585532746823,0.0,263.92961876832845,0.0,4.887585532746823
14.662756598240469,102.63929618768329,0.0,92.86412512218965,34.21309872922776,14.662756598240469,53.763440860215056
161.29032258064515,4.887585532746823,9.775171065493646,263.92961876832845,4.887585532746823,102.63929618768329,259.04203323558164
53.763440860215056,4.887585532746823,63.53861192570871,29.325513196480937,4.887585532746823,83.08895405669598,39.100684261974585
9.775171065493646,4.887585532746823,92.86412512218965,0.0,171.0654936461388,4.887585532746823,4.887585532746823
0.0,102.63929618768329,9.775171065493646,4.887585532746823,166.17790811339196,0.0,4.887585532746823
97.75171065493646,39.100684261974585,0.0,73.31378299120234,9.775171065493646,58.651026392961874,180.84066471163246
185.7282502443793,14.662756598240469,9.775171065493646,200.39100684261973,0.0,175.95307917888564,229.7165200391007
19.550342130987293,4.887585532746823,107.52688172043011,19.550342130987293,53.763440860215056,19.550342130987293,19.550342130987293
0.0,14.662756598240469,92.86412512218965,14.662756598240469,219.94134897360706,9.775171065493646,4.887585532746823
9.775171065493646,141.73998044965788,4.887585532746823,9.775171065493646,68.42619745845552,0.0,19.550342130987293
102.63929618768329,58.651026392961874,9.775171065493646,136.85239491691104,9.775171065493646,127.07722385141741,234.6041055718475
141.73998044965788,9.775171065493646,43.98826979472141,136.85239491691104,9.775171065493646,97.75171065493646,175.95307917888564
4.887585532746823,4.887585532746823,141.73998044965788,9.775171065493646,151.51515151515153,4.887585532746823,9.775171065493646
4.887585532746823,39.100684261974585,19.550342130987293,0.0,190.6158357771261,4.887585532746823,4.887585532746823
43.98826979472141,122.18963831867057,4.887585532746823,24.437927663734115,9.775171065493646,14.662756598240469,43.98826979472141
166.17790811339196,19.550342130987293,4.887585532746823,175.95307917888564,4.887585532746823,141.73998044965788,234.6041055718475
83.08895405669598,4.887585532746823,29.325513196480937,53.763440860215056,14.662756598240469,102.63929618768329,112.41446725317694
9.775171065493646,0.0,131.96480938416423,0.0,254.15444770283483,9.775171065493646,4.887585532746823
4.887585532746823,29.325513196480937,53.763440860215056,4.887585532746823,136.85239491691104,9.775171065493646,4.887585532746823
83.08895405669598,107.52688172043011,4.887585532746823,102.63929618768329,4.887585532746823,39.100684261974585,127.07722385141741
219.94134897360706,39.100684261974585,4.887585532746823,185.7282502443793,9.775171065493646,161.29032258064515,239.49169110459434
19.550342130987293,9.775171065493646,58.651026392961874,14.662756598240469,58.651026392961874,43.98826979472141,19.550342130987293
0.0,0.0,122.18963831867057,4.887585532746823,244.37927663734115,9.775171065493646,9.775171065493646
4.887585532746823,29.325513196480937,14.662756598240469,14.662756598240469,24.437927663734115,0.0,9.775171065493646
151.51515151515153,131.96480938416423,0.0,219.94134897360706,9.775171065493646,24.437927663734115,219.94134897360706
166.17790811339196,43.98826979472141,0.0,122.18963831867057,4.887585532746823,185.7282502443793,156.40273704789834
14.662756598240469,4.887585532746823,117.30205278592375,4.887585532746823,136.85239491691104,58.651026392961874,4.887585532746823
0.0,9.775171065493646,92.86412512218965,0.0,215.05376344086022,4.887585532746823,0.0
29.325513196480937,39.100684261974585,4.887585532746823,24.437927663734115,14.662756598240469,4.887585532746823,39.100684261974585
195.50342130987292,131.96480938416423,9.775171065493646,175.95307917888564,9.775171065493646,68.42619745845552,259.04203323558164
107.52688172043011,19.550342130987293,9.775171065493646,83.08895405669598,29.325513196480937,141.73998044965788,107.52688172043011
9.775171065493646,0.0,97.75171065493646,4.887585532746823,205.27859237536657,9.775171065493646,0.0
9.775171065493646,4.887585532746823,19.550342130987293,9.775171065493646,102.63929618768329,0.0,4.887585532746823
112.41446725317694,29.325513196480937,9.775171065493646,87.97653958944282,4.887585532746823,24.437927663734115,127.07722385141741
249.26686217008796,175.95307917888564,0.0,161.29032258064515,4.887585532746823,171.0654936461388,244.37927663734115
24.437927663734115,39.100684261974585,29.325513196480937,14.662756598240469,136.85239491691104,68.42619745845552,24.437927663734115
4.887585532746823,14.662756598240469,102.63929618768329,4.887585532746823,219.94134897360706,4.887585532746823,0.0
0.0,4.887585532746823,48.87585532746823,4.887585532746823,24.437927663734115,0.0,0.0
92.86412512218965,34.21309872922776,9.775171065493646,151.51515151515153,9.775171065493646,48.87585532746823,219.94134897360706
161.29032258064515,127.07722385141741,0.0,122.18963831867057,0.0,190.6158357771261,200.39100684261973
4.887585532746823,24.437927663734115,53.763440860215056,4.887585532746823,122.18963831867057,39.100684261974585,19.550342130987293
9.775171065493646,4.887585532746823,102.63929618768329,4.887585532746823,190.6158357771261,4.887585532746823,9.775171065493646
19.550342130987293,9.775171065493646,14.662756598240469,39.100684261974585,14.662756598240469,9.775171065493646,48.87585532746823
171.0654936461388,29.325513196480937,4.887585532746823,195.50342130987292,4.887585532746823,68.42619745845552,268.81720430107526
87.97653958944282,112.41446725317694,4.887585532746823,73.31378299120234,0.0,117.30205278592375,43.98826979472141
4.887585532746823,39.100684261974585,102.63929618768329,9.775171065493646,195.50342130987292,9.775171065493646,4.887585532746823
0.0,0.0,68.42619745845552,4.887585532746823,146.6275659824047,4.887585532746823,9.775171065493646
58.651026392961874,4.887585532746823,4.887585532746823,48.87585532746823,4.887585532746823,19.550342130987293,171.0654936461388
229.7165200391007,29.325513196480937,0.0,171.0654936461388,0.0,107.52688172043011,273.7047898338221
19.550342130987293,127.07722385141741,29.325513196480937,19.550342130987293,63.53861192570871,83.08895405669598,19.550342130987293
4.887585532746823,19.550342130987293,156.40273704789834,9.775171065493646,224.82893450635387,4.887585532746823,4.887585532746823
9.775171065493646,4.887585532746823,68.42619745845552,4.887585532746823,24.437927663734115,9.775171065493646,14.662756598240469
131.96480938416423,0.0,9.775171065493646,171.0654936461388,4.887585532746823,24.437927663734115,229.7165200391007
156.40273704789834,53.763440860215056,9.775171065493646,180.84066471163246,9.775171065493646,151.51515151515153,156.40273704789834
9.775171065493646,161.29032258064515,63.53861192570871,14.662756598240469,122.18963831867057,43.98826979472141,4.887585532746823
9.775171065493646,24.437927663734115,97.75171065493646,0.0,234.6041055718475,9.775171065493646,0.0
29.325513196480937,9.775171065493646,9.775171065493646,24.437927663734115,19.550342130987293,4.887585532746823,39.100684261974585
180.84066471163246,4.887585532746823,9.775171065493646,190.6158357771261,4.887585532746823,39.100684261974585,244.37927663734115
92.86412512218965,68.42619745845552,9.775171065493646,63.53861192570871,19.550342130987293,171.0654936461388,97.75171065493646
4.887585532746823,107.52688172043011,107.52688172043011,0.0,215.05376344086022,58.651026392961874,4.887585532746823
0.0,9.775171065493646,48.87585532746823,0.0,146.6275659824047,9.775171065493646,0.0
68.42619745845552,0.0,14.662756598240469,97.75171065493646,4.887585532746823,9.775171065493646,83.08895405669598
229.7165200391007,0.0,4.887585532746823,161.29032258064515,0.0,63.53861192570871,283.47996089931576
24.437927663734115,136.85239491691104,24.437927663734115,9.775171065493646,53.763440860215056,156.40273704789834,43.98826979472141
4.887585532746823,117.30205278592375,122.18963831867057,0.0,234.6041055718475,14.662756598240469,4.887585532746823
0.0,4.887585532746823,39.100684261974585,4.887585532746823,39.100684261974585,4.887585532746823,9.775171065493646
107.52688172043011,4.887585532746823,9.775171065493646,151.51515151515153,9.775171065493646,34.21309872922776,180.84066471163246
156.40273704789834,29.325513196480937,4.887585532746823,131.96480938416423,4.887585532746823,127.07722385141741,146.6275659824047
4.887585532746823,127.07722385141741,48.87585532746823,9.775171065493646,131.96480938416423,112.41446725317694,9.775171065493646
0.0,24.437927663734115,136.85239491691104,9.775171065493646,229.7165200391007,4.887585532746823,0.0
14.662756598240469,4.887585532746823,24.437927663734115,29.325513196480937,19.550342130987293,0.0,48.87585532746823
166.17790811339196,0.0,0.0,180.84066471163246,9.775171065493646,63.53861192570871,254.15444770283483
122.18963831867057,34.21309872922776,0.0,58.651026392961874,9.775171065493646,146.6275659824047,48.87585532746823
9.775171065493646,122.18963831867057,58.651026392961874,0.0,185.7282502443793,43.98826979472141,0.0
9.775171065493646,43.98826979472141,146.6275659824047,9.775171065493646,151.51515151515153,14.662756598240469,9.775171065493646
63.53861192570871,9.775171065493646,24.437927663734115,68.42619745845552,14.662756598240469,0.0,190.6158357771261
244.37927663734115,0.0,4.887585532746823,166.17790811339196,9.775171065493646,63.53861192570871,200.39100684261973
34.21309872922776,24.437927663734115,0.0,19.550342130987293,78.20136852394917,200.39100684261973,14.662756598240469
4.887585532746823,127.07722385141741,102.63929618768329,4.887585532746823,224.82893450635387,24.437927663734115,0.0
0.0,39.100684261974585,83.08895405669598,9.775171065493646,24.437927663734115,9.775171065493646,29.325513196480937
112.41446725317694,9.775171065493646,9.775171065493646,141.73998044965788,4.887585532746823,4.887585532746823,224.82893450635387
175.95307917888564,0.0,0.0,122.18963831867057,0.0,87.97653958944282,112.41446725317694
14.662756598240469,39.100684261974585,39.100684261974585,4.887585532746823,107.52688172043011,141.73998044965788,4.887585532746823
0.0,151.51515151515153,102.63929618768329,9.775171065493646,171.0654936461388,14.662756598240469,9.775171065493646
4.887585532746823,43.98826979472141,48.87585532746823,43.98826979472141,4.887585532746823,4.887585532746823,146.6275659824047
136.85239491691104,9.775171065493646,9.775171065493646,205.27859237536657,0.0,9.775171065493646,249.26686217008796
161.29032258064515,4.887585532746823,4.887585532746823,83.08895405669598,24.437927663734115,161.29032258064515,19.550342130987293
14.662756598240469,24.437927663734115,58.651026392961874,4.887585532746823,180.84066471163246,68.42619745845552,4.887585532746823
0.0,156.40273704789834,117.30205278592375,0.0,127.07722385141741,9.775171065493646,4.887585532746823
29.325513196480937,63.53861192570871,19.550342130987293,87.97653958944282,14.662756598240469,4.887585532746823,180.84066471163246
210.16617790811338,0.0,9.775171065493646,205.27859237536657,4.887585532746823,117.30205278592375,185.7282502443793
73.31378299120234,4.887585532746823,9.775171065493646,24.437927663734115,83.08895405669598,146.6275659824047,14.662756598240469
4.887585532746823,87.97653958944282,78.20136852394917,9.775171065493646,259.04203323558164,9.775171065493646,4.887585532746823
9.775171065493646,185.7282502443793,58.651026392961874,9.775171065493646,34.21309872922776,0.0,19.550342130987293
92.86412512218965,19.550342130987293,4.887585532746823,156.40273704789834,9.775171065493646,4.887585532746823,239.49169110459434
136.85239491691104,4.887585532746823,9.775171065493646,151.51515151515153,4.887585532746823,131.96480938416423,122.18963831867057
4.887585532746823,4.887585532746823,14.662756598240469,14.662756598240469,112.41446725317694,131.96480938416423,4.887585532746823
4.887585532746823,92.86412512218965,107.52688172043011,4.887585532746823,175.95307917888564,9.775171065493646,0.0
19.550342130987293,68.42619745845552,34.21309872922776,24.437927663734115,14.662756598240469,0.0,92.86412512218965
141.73998044965788,4.887585532746823,4.887585532746823,195.50342130987292,9.775171065493646,29.325513196480937,224.82893450635387
127.07722385141741,4.887585532746823,9.775171065493646,78.20136852394917,19.550342130987293,175.95307917888564,24.437927663734115
9.775171065493646,39.100684261974585,9.775171065493646,4.887585532746823,190.6158357771261,102.63929618768329,9.775171065493646
0.0,127.07722385141741,127.07722385141741,0.0,151.51515151515153,9.775171065493646,19.550342130987293
29.325513196480937,43.98826979472141,39.100684261974585,73.31378299120234,14.662756598240469,0.0,200.39100684261973
195.50342130987292,9.775171065493646,0.0,224.82893450635387,9.775171065493646,48.87585532746823,136.85239491691104
48.87585532746823,0.0,0.0,19.550342130987293,48.87585532746823,166.17790811339196,4.887585532746823
4.887585532746823,24.437927663734115,34.21309872922776,4.887585532746823,244.37927663734115,24.437927663734115,4.887585532746823
0.0,141.73998044965788,136.85239491691104,4.887585532746823,29.325513196480937,9.775171065493646,34.21309872922776
136.85239491691104,34.21309872922776,24.437927663734115,161.29032258064515,4.887585532746823,0.0,283.47996089931576
156.40273704789834,9.775171065493646,9.775171065493646,146.6275659824047,0.0,112.41446725317694,117.30205278592375
4.887585532746823,0.0,9.775171065493646,14.662756598240469,92.86412512218965,136.85239491691104,4.887585532746823
0.0,14.662756598240469,19.550342130987293,9.775171065493646,215.05376344086022,14.662756598240469,4.887585532746823
29.325513196480937,122.18963831867057,136.85239491691104,9.775171065493646,14.662756598240469,0.0,97.75171065493646
239.49169110459434,43.98826979472141,63.53861192570871,161.29032258064515,0.0,0.0,224.82893450635387
151.51515151515153,4.887585532746823,4.887585532746823,87.97653958944282,78.20136852394917,180.84066471163246,19.550342130987293
9.775171065493646,4.887585532746823,0.0,9.775171065493646,244.37927663734115,122.18963831867057,9.775171065493646
0.0,29.325513196480937,78.20136852394917,4.887585532746823,53.763440860215056,9.775171065493646,9.775171065493646
29.325513196480937,141.73998044965788,205.27859237536657,63.53861192570871,4.887585532746823,4.887585532746823,180.84066471163246
161.29032258064515,24.437927663734115,24.437927663734115,171.0654936461388,4.887585532746823,43.98826979472141,171.0654936461388
68.42619745845552,0.0,0.0,14.662756598240469,92.86412512218965,151.51515151515153,4.887585532746823
4.887585532746823,0.0,4.887585532746823,0.0,205.27859237536657,48.87585532746823,4.887585532746823
4.887585532746823,43.98826979472141,73.31378299120234,4.887585532746823,14.662756598240469,0.0,24.437927663734115
87.97653958944282,131.96480938416423,87.97653958944282,146.6275659824047,4.887585532746823,4.887585532746823,215.05376344086022
175.95307917888564,29.325513196480937,9.775171065493646,122.18963831867057,29.325513196480937,107.52688172043011,107.52688172043011
14.662756598240469,4.887585532746823,9.775171065493646,14.662756598240469,254.15444770283483,127.07722385141741,4.887585532746823
4.887585532746823,9.775171065493646,9.775171065493646,0.0,146.6275659824047,4.887585532746823,0.0
0.0,39.100684261974585,127.07722385141741,19.550342130987293,9.775171065493646,0.0,87.97653958944282
161.29032258064515,190.6158357771261,43.98826979472141,171.0654936461388,0.0,19.550342130987293,229.7165200391007
127.07722385141741,43.98826979472141,9.775171065493646,58.651026392961874,34.21309872922776,151.51515151515153,24.437927663734115
14.662756598240469,9.775171065493646,0.0,4.887585532746823,219.94134897360706,87.97653958944282,9.775171065493646
9.775171065493646,4.887585532746823,19.550342130987293,9.775171065493646,83.08895405669598,9.775171065493646,14.662756598240469
43.98826979472141,29.325513196480937,122.18963831867057,73.31378299120234,9.775171065493646,0.0,200.39100684261973
234.6041055718475,141.73998044965788,34.21309872922776,175.95307917888564,0.0,39.100684261974585,205.27859237536657
83.08895405669598,43.98826979472141,4.887585532746823,24.437927663734115,112.41446725317694,141.73998044965788,9.775171065493646
9.775171065493646,9.775171065493646,4.887585532746823,9.775171065493646,190.6158357771261,97.75171065493646,4.887585532746823
4.887585532746823,4.887585532746823,4.887585532746823,0.0,19.550342130987293,9.775171065493646,78.20136852394917
78.20136852394917,34.21309872922776,83.08895405669598,131.96480938416423,9.775171065493646,4.887585532746823,273.7047898338221
185.7282502443793,151.51515151515153,92.86412512218965,141.73998044965788,29.325513196480937,117.30205278592375,58.651026392961874
14.662756598240469,43.98826979472141,4.887585532746823,4.887585532746823,229.7165200391007,161.29032258064515,4.887585532746823
4.887585532746823,9.775171065493646,9.775171065493646,0.0,117.30205278592375,9.775171065493646,0.0
0.0,4.887585532746823,48.87585532746823,39.100684261974585,4.887585532746823,4.887585532746823,171.0654936461388
146.6275659824047,29.325513196480937,117.30205278592375,205.27859237536657,0.0,9.775171065493646,200.39100684261973
146.6275659824047,141.73998044965788,14.662756598240469,63.53861192570871,63.53861192570871,180.84066471163246,14.662756598240469
4.887585532746823,78.20136852394917,0.0,4.887585532746823,229.7165200391007,107.52688172043011,0.0
0.0,9.775171065493646,4.887585532746823,4.887585532746823,34.21309872922776,4.887585532746823,29.325513196480937
24.437927663734115,0.0,73.31378299120234,102.63929618768329,0.0,0.0,244.37927663734115
175.95307917888564,48.87585532746823,107.52688172043011,175.95307917888564,4.887585532746823,58.651026392961874,117.30205278592375
87.97653958944282,127.07722385141741,14.662756598240469,9.775171065493646,83.08895405669598,180.84066471163246,9.775171065493646
14.662756598240469,4.887585532746823,0.0,4.887585532746823,205.27859237536657,24.437927663734115,0.0
4.887585532746823,0.0,4.887585532746823,4.887585532746823,24.437927663734115,14.662756598240469,131.96480938416423
58.651026392961874,0.0,112.41446725317694,161.29032258064515,0.0,4.887585532746823,244.37927663734115
161.29032258064515,136.85239491691104,53.763440860215056,97.75171065493646,29.325513196480937,78.20136852394917,19.550342130987293
29.325513196480937,63.53861192570871,0.0,14.662756598240469,254.15444770283483,146.6275659824047,0.0
4.887585532746823,4.887585532746823,4.887585532746823,4.887585532746823,156.40273704789834,19.550342130987293,9.775171065493646
4.887585532746823,4.887585532746823,53.763440860215056,24.437927663734115,14.662756598240469,0.0,166.17790811339196
92.86412512218965,14.662756598240469,102.63929618768329,175.95307917888564,4.887585532746823,9.775171065493646,229.7165200391007
234.6041055718475,151.51515151515153,4.887585532746823,78.20136852394917,34.21309872922776,136.85239491691104,14.662756598240469
24.437927663734115,34.21309872922776,4.887585532746823,4.887585532746823,215.05376344086022,141.73998044965788,4.887585532746823
4.887585532746823,9.775171065493646,4.887585532746823,4.887585532746823,58.651026392961874,9.775171065493646,29.325513196480937
9.775171065493646,4.887585532746823,53.763440860215056,78.20136852394917,0.0,9.775171065493646,224.82893450635387
180.84066471163246,14.662756598240469,78.20136852394917,141.73998044965788,9.775171065493646,29.325513196480937,107.52688172043011
83.08895405669598,87.97653958944282,4.887585532746823,14.662756598240469,78.20136852394917,175.95307917888564,9.775171065493646
4.887585532746823,39.100684261974585,0.0,9.775171065493646,219.94134897360706,63.53861192570871,0.0
9.775171065493646,4.887585532746823,9.775171065493646,9.775171065493646,24.437927663734115,4.887585532746823,131.96480938416423
83.08895405669598,4.887585532746823,97.75171065493646,117.30205278592375,9.775171065493646,4.887585532746823,244.37927663734115
219.94134897360706,14.662756598240469,43.98826979472141,136.85239491691104,19.550342130987293,78.20136852394917,24.437927663734115
29.325513196480937,122.18963831867057,4.887585532746823,9.775171065493646,200.39100684261973,156.40273704789834,0.0
4.887585532746823,92.86412512218965,0.0,0.0,127.07722385141741,19.550342130987293,4.887585532746823
4.887585532746823,4.887585532746823,9.775171065493646,14.662756598240469,4.887585532746823,0.0,151.51515151515153
122.18963831867057,9.775171065493646,127.07722385141741,161.29032258064515,9.775171065493646,4.887585532746823,185.7282502443793
166.17790811339196,43.98826979472141,48.87585532746823,78.20136852394917,58.651026392961874,107.52688172043011,9.775171065493646
9.775171065493646,122.18963831867057,4.887585532746823,4.887585532746823,234.6041055718475,127.07722385141741,9.775171065493646
0.0,29.325513196480937,0.0,9.775171065493646,29.325513196480937,4.887585532746823,4.887585532746823
9.775171065493646,4.887585532746823,53.763440860215056,83.08895405669598,4.887585532746823,9.775171065493646,224.82893450635387
161.29032258064515,0.0,122.18963831867057,195.50342130987292,4.887585532746823,9.775171065493646,117.30205278592375
97.75171065493646,34.21309872922776,14.662756598240469,19.550342130987293,92.86412512218965,180.84066471163246,9.775171065493646
9.775171065493646,107.52688172043011,0.0,4.887585532746823,175.95307917888564,78.20136852394917,0.0
9.775171065493646,24.437927663734115,9.775171065493646,4.887585532746823,14.662756598240469,4.887585532746823,97.75171065493646
48.87585532746823,9.775171065493646,73.31378299120234,156.40273704789834,0.0,0.0,259.04203323558164
180.84066471163246,9.775171065493646,92.86412512218965,166.17790811339196,14.662756598240469,63.53861192570871,29.325513196480937
14.662756598240469,53.763440860215056,4.887585532746823,14.662756598240469,171.0654936461388,151.51515151515153,9.775171065493646
0.0,127.07722385141741,9.775171065493646,4.887585532746823,151.51515151515153,19.550342130987293,9.775171065493646
14.662756598240469,9.775171065493646,9.775171065493646,14.662756598240469,9.775171065493646,4.887585532746823,171.0654936461388
166.17790811339196,4.887585532746823,92.86412512218965,190.6158357771261,0.0,0.0,195.50342130987292
146.6275659824047,4.887585532746823,43.98826979472141,97.75171065493646,63.53861192570871,127.07722385141741,14.662756598240469
4.887585532746823,83.08895405669598,4.887585532746823,4.887585532746823,205.27859237536657,122.18963831867057,4.887585532746823
9.775171065493646,92.86412512218965,4.887585532746823,4.887585532746823,19.550342130987293,4.887585532746823,63.53861192570871
29.325513196480937,9.775171065493646,24.437927663734115,87.97653958944282,9.775171065493646,4.887585532746823,278.5923753665689
180.84066471163246,9.775171065493646,127.07722385141741,219.94134897360706,0.0,14.662756598240469,58.651026392961874
117.30205278592375,14.662756598240469,53.763440860215056,19.550342130987293,112.41446725317694,180.84066471163246,0.0
4.887585532746823,141.73998044965788,4.887585532746823,4.887585532746823,190.6158357771261,73.31378299120234,4.887585532746823
0.0,73.31378299120234,4.887585532746823,4.887585532746823,14.662756598240469,0.0,175.95307917888564
43.98826979472141,9.775171065493646,39.100684261974585,161.29032258064515,9.775171065493646,0.0,219.94134897360706
224.82893450635387,0.0,112.41446725317694,171.0654936461388,4.887585532746823,87.97653958944282,19.550342130987293
48.87585532746823,112.41446725317694,29.325513196480937,14.662756598240469,175.95307917888564,239.49169110459434,0.0
9.775171065493646,205.27859237536657,4.887585532746823,9.775171065493646,141.73998044965788,29.325513196480937,39.100684261974585
9.775171065493646,19.550342130987293,4.887585532746823,24.437927663734115,14.662756598240469,4.887585532746823,254.15444770283483
166.17790811339196,4.887585532746823,34.21309872922776,146.6275659824047,0.0,0.0,127.07722385141741
156.40273704789834,4.887585532746823,131.96480938416423,63.53861192570871,43.98826979472141,73.31378299120234,14.662756598240469
9.775171065493646,78.20136852394917,39.100684261974585,0.0,215.05376344086022,136.85239491691104,0.0
4.887585532746823,102.63929618768329,9.775171065493646,0.0,83.08895405669598,9.775171065493646,92.86412512218965
48.87585532746823,0.0,4.887585532746823,73.31378299120234,9.775171065493646,9.775171065493646,263.92961876832845
161.29032258064515,9.775171065493646,43.98826979472141,185.7282502443793,9.775171065493646,48.87585532746823,39.100684261974585
24.437927663734115,19.550342130987293,136.85239491691104,24.437927663734115,87.97653958944282,185.7282502443793,4.887585532746823
0.0,136.85239491691104,24.437927663734115,9.775171065493646,234.6041055718475,29.325513196480937,0.0
0.0,58.651026392961874,9.775171065493646,4.887585532746823,29.325513196480937,4.887585532746823,166.17790811339196
19.550342130987293,4.887585532746823,4.887585532746823,175.95307917888564,4.887585532746823,4.887585532746823,244.37927663734115
185.7282502443793,0.0,29.325513196480937,156.40273704789834,14.662756598240469,92.86412512218965,19.550342130987293
78.20136852394917,34.21309872922776,190.6158357771261,9.775171065493646,210.16617790811338,185.7282502443793,0.0
0.0,131.96480938416423,39.100684261974585,4.887585532746823,175.95307917888564,19.550342130987293,14.662756598240469
0.0,19.550342130987293,9.775171065493646,39.100684261974585,9.775171065493646,4.887585532746823,268.81720430107526
107.52688172043011,9.775171065493646,9.775171065493646,190.6158357771261,9.775171065493646,9.775171065493646,175.95307917888564
141.73998044965788,0.0,39.100684261974585,97.75171065493646,9.775171065493646,127.07722385141741,9.775171065493646
14.662756598240469,78.20136852394917,127.07722385141741,9.775171065493646,205.27859237536657,161.29032258064515,9.775171065493646
4.887585532746823,127.07722385141741,24.437927663734115,0.0,92.86412512218965,14.662756598240469,73.31378299120234
9.775171065493646,9.775171065493646,4.887585532746823,73.31378299120234,14.662756598240469,0.0,215.05376344086022
127.07722385141741,0.0,9.775171065493646,185.7282502443793,4.887585532746823,19.550342130987293,48.87585532746823
107.52688172043011,4.887585532746823,34.21309872922776,19.550342130987293,136.85239491691104,185.7282502443793,9.775171065493646
4.887585532746823,112.41446725317694,151.51515151515153,9.775171065493646,190.6158357771261,83.08895405669598,24.437927663734115
4.887585532746823,97.75171065493646,29.325513196480937,4.887585532746823,19.550342130987293,0.0,195.50342130987292
48.87585532746823,4.887585532746823,9.775171065493646,166.17790811339196,4.887585532746823,0.0,136.85239491691104
180.84066471163246,0.0,4.887585532746823,141.73998044965788,14.662756598240469,34.21309872922776,4.887585532746823
24.437927663734115,14.662756598240469,24.437927663734115,4.887585532746823,219.94134897360706,175.95307917888564,4.887585532746823
9.775171065493646,175.95307917888564,131.96480938416423,9.775171065493646,136.85239491691104,58.651026392961874,83.08895405669598
4.887585532746823,58.651026392961874,53.763440860215056,58.651026392961874,4.887585532746823,4.887585532746823,239.49169110459434
102.63929618768329,9.775171065493646,4.887585532746823,200.39100684261973,0.0,0.0,24.437927663734115
195.50342130987292,0.0,4.887585532746823,48.87585532746823,14.662756598240469,180.84066471163246,4.887585532746823
19.550342130987293,48.87585532746823,68.42619745845552,0.0,171.0654936461388,131.96480938416423,4.887585532746823
4.887585532746823,166.17790811339196,73.31378299120234,4.887585532746823,83.08895405669598,14.662756598240469,156.40273704789834
29.325513196480937,14.662756598240469,4.887585532746823,151.51515151515153,9.775171065493646,0.0,215.05376344086022
219.94134897360706,9.775171065493646,0.0,151.51515151515153,4.887585532746823,9.775171065493646,19.550342130987293
87.97653958944282,0.0,0.0,14.662756598240469,141.73998044965788,146.6275659824047,9.775171065493646
4.887585532746823,83.08895405669598,112.41446725317694,4.887585532746823,224.82893450635387,63.53861192570871,24.437927663734115
0.0,112.41446725317694,68.42619745845552,24.437927663734115,24.437927663734115,14.662756598240469,205.27859237536657
29.325513196480937,14.662756598240469,4.887585532746823,244.37927663734115,4.887585532746823,4.887585532746823,141.73998044965788
175.95307917888564,4.887585532746823,0.0,107.52688172043011,9.775171065493646,83.08895405669598,9.775171065493646
68.42619745845552,4.887585532746823,48.87585532746823,9.775171065493646,171.0654936461388,156.40273704789834,0.0
4.887585532746823,122.18963831867057,141.73998044965788,4.887585532746823,161.29032258064515,14.662756598240469,39.100684261974585
4.887585532746823,63.53861192570871,19.550342130987293,87.97653958944282,9.775171065493646,0.0,239.49169110459434
83.08895405669598,4.887585532746823,4.887585532746823,195.50342130987292,0.0,0.0,122.18963831867057
175.95307917888564,0.0,0.0,19.550342130987293,24.437927663734115,131.96480938416423,9.775171065493646
14.662756598240469,48.87585532746823,83.08895405669598,4.887585532746823,224.82893450635387,117.30205278592375,4.887585532746823
4.887585532746823,122.18963831867057,78.20136852394917,4.887585532746823,83.08895405669598,4.887585532746823,151.51515151515153
0.0,9.775171065493646,9.775171065493646,141.73998044965788,4.887585532746823,0.0,200.39100684261973
141.73998044965788,4.887585532746823,0.0,146.6275659824047,4.887585532746823,24.437927663734115,14.662756598240469
58.651026392961874,0.0,9.775171065493646,9.775171065493646,87.97653958944282,171.0654936461388,4.887585532746823
4.887585532746823,102.63929618768329,97.75171065493646,4.887585532746823,210.16617790811338,63.53861192570871,29.325513196480937
0.0,102.63929618768329,63.53861192570871,14.662756598240469,24.437927663734115,9.775171065493646,249.26686217008796
58.651026392961874,4.887585532746823,0.0,195.50342130987292,0.0,4.887585532746823,161.29032258064515
156.40273704789834,9.775171065493646,0.0,107.52688172043011,9.775171065493646,92.86412512218965,9.775171065493646
14.662756598240469,39.100684261974585,39.100684261974585,4.887585532746823,210.16617790811338,122.18963831867057,9.775171065493646
4.887585532746823,122.18963831867057,127.07722385141741,9.775171065493646,151.51515151515153,19.550342130987293,63.53861192570871
0.0,34.21309872922776,24.437927663734115,43.98826979472141,9.775171065493646,0.0,234.6041055718475
87.97653958944282,4.887585532746823,9.775171065493646,185.7282502443793,4.887585532746823,4.887585532746823,29.325513196480937
161.29032258064515,4.887585532746823,0.0,73.31378299120234,48.87585532746823,122.18963831867057,9.775171065493646
9.775171065493646,43.98826979472141,24.437927663734115,4.887585532746823,244.37927663734115,136.85239491691104,0.0
4.887585532746823,117.30205278592375,131.96480938416423,9.775171065493646,39.100684261974585,14.662756598240469,146.6275659824047
9.775171065493646,34.21309872922776,29.325513196480937,131.96480938416423,14.662756598240469,4.887585532746823,215.05376344086022
122.18963831867057,9.775171065493646,14.662756598240469,190.6158357771261,4.887585532746823,9.775171065493646,14.662756598240469
102.63929618768329,0.0,4.887585532746823,14.662756598240469,92.86412512218965,127.07722385141741,4.887585532746823
0.0,0.0,73.31378299120234,9.775171065493646,229.7165200391007,58.651026392961874,43.98826979472141
9.775171065493646,107.52688172043011,122.18963831867057,4.887585532746823,19.550342130987293,9.775171065493646,205.27859237536657
39.100684261974585,58.651026392961874,9.775171065493646,175.95307917888564,4.887585532746823,0.0,122.18963831867057
156.40273704789834,9.775171065493646,4.887585532746823,127.07722385141741,4.887585532746823,63.53861192570871,9.775171065493646
34.21309872922776,4.887585532746823,0.0,9.775171065493646,210.16617790811338,180.84066471163246,9.775171065493646
9.775171065493646,39.100684261974585,63.53861192570871,0.0,180.84066471163246,24.437927663734115,78.20136852394917
0.0,112.41446725317694,92.86412512218965,68.42619745845552,4.887585532746823,4.887585532746823,249.26686217008796
39.100684261974585,24.437927663734115,9.775171065493646,171.0654936461388,0.0,9.775171065493646,29.325513196480937
185.7282502443793,4.887585532746823,0.0,19.550342130987293,19.550342130987293,161.29032258064515,9.775171065493646
43.98826979472141,0.0,0.0,4.887585532746823,200.39100684261973,131.96480938416423,0.0
4.887585532746823,58.651026392961874,68.42619745845552,0.0,102.63929618768329,14.662756598240469,166.17790811339196
0.0,117.30205278592375,73.31378299120234,151.51515151515153,9.775171065493646,0.0,219.94134897360706
29.325513196480937,19.550342130987293,9.775171065493646,171.0654936461388,4.887585532746823,19.550342130987293,14.662756598240469
161.29032258064515,0.0,0.0,9.775171065493646,73.31378299120234,146.6275659824047,4.887585532746823
68.42619745845552,0.0,34.21309872922776,9.775171065493646,205.27859237536657,78.20136852394917,4.887585532746823
0.0,68.42619745845552,97.75171065493646,19.550342130987293,19.550342130987293,9.775171065493646,205.27859237536657
4.887585532746823,107.52688172043011,29.325513196480937,190.6158357771261,4.887585532746823,4.887585532746823,156.40273704789834
68.42619745845552,9.775171065493646,9.775171065493646,87.97653958944282,4.887585532746823,63.53861192570871,9.775171065493646
190.6158357771261,0.0,9.775171065493646,4.887585532746823,175.95307917888564,175.95307917888564,9.775171065493646
14.662756598240469,9.775171065493646,48.87585532746823,4.887585532746823,205.27859237536657,29.325513196480937,87.97653958944282
4.887585532746823,112.41446725317694,73.31378299120234,58.651026392961874,9.775171065493646,0.0,249.26686217008796
9.775171065493646,83.08895405669598,4.887585532746823,190.6158357771261,0.0,9.775171065493646,29.325513196480937
156.40273704789834,9.775171065493646,9.775171065493646,29.325513196480937,9.775171065493646,97.75171065493646,0.0
146.6275659824047,4.887585532746823,0.0,4.887585532746823,200.39100684261973,141.73998044965788,9.775171065493646
9.775171065493646,43.98826979472141,68.42619745845552,9.775171065493646,97.75171065493646,14.662756598240469,161.29032258064515
4.887585532746823,141.73998044965788,97.75171065493646,146.6275659824047,9.775171065493646,4.887585532746823,210.16617790811338
24.437927663734115,34.21309872922776,9.775171065493646,156.40273704789834,4.887585532746823,0.0,14.662756598240469
190.6158357771261,9.775171065493646,0.0,19.550342130987293,73.31378299120234,151.51515151515153,4.887585532746823
68.42619745845552,0.0,4.887585532746823,9.775171065493646,234.6041055718475,166.17790811339196,4.887585532746823
4.887585532746823,53.763440860215056,97.75171065493646,39.100684261974585,34.21309872922776,14.662756598240469,210.16617790811338
0.0,161.29032258064515,68.42619745845552,190.6158357771261,0.0,4.887585532746823,185.7282502443793
73.31378299120234,14.662756598240469,0.0,112.41446725317694,9.775171065493646,34.21309872922776,9.775171065493646
102.63929618768329,0.0,0.0,4.887585532746823,156.40273704789834,136.85239491691104,0.0
9.775171065493646,4.887585532746823,39.100684261974585,0.0,205.27859237536657,53.763440860215056,63.53861192570871
0.0,48.87585532746823,131.96480938416423,68.42619745845552,14.662756598240469,9.775171065493646,249.26686217008796
9.775171065493646,92.86412512218965,39.100684261974585,200.39100684261973,9.775171065493646,9.775171065493646,34.21309872922776
131.96480938416423,14.662756598240469,9.775171065493646,29.325513196480937,14.662756598240469,68.42619745845552,4.887585532746823
127.07722385141741,0.0,0.0,9.775171065493646,259.04203323558164,156.40273704789834,4.887585532746823
9.775171065493646,9.775171065493646,29.325513196480937,4.887585532746823,175.95307917888564,14.662756598240469,136.85239491691104
4.887585532746823,117.30205278592375,107.52688172043011,151.51515151515153,9.775171065493646,4.887585532746823,224.82893450635387
9.775171065493646,58.651026392961874,19.550342130987293,175.95307917888564,4.887585532746823,14.662756598240469,19.550342130987293
195.50342130987292,4.887585532746823,9.775171065493646,9.775171065493646,63.53861192570871,166.17790811339196,4.887585532746823
97.75171065493646,9.775171065493646,4.887585532746823,4.887585532746823,239.49169110459434,107.52688172043011,9.775171065493646
4.887585532746823,39.100684261974585,92.86412512218965,43.98826979472141,34.21309872922776,4.887585532746823,200.39100684261973
4.887585532746823,141.73998044965788,102.63929618768329,156.40273704789834,0.0,0.0,161.29032258064515
78.20136852394917,29.325513196480937,14.662756598240469,68.42619745845552,9.775171065493646,48.87585532746823,4.887585532746823
185.7282502443793,9.775171065493646,9.775171065493646,9.775171065493646,146.6275659824047,200.39100684261973,0.0
14.662756598240469,0.0,0.0,0.0,224.82893450635387,29.325513196480937,97.75171065493646
4.887585532746823,34.21309872922776,39.100684261974585,63.53861192570871,14.662756598240469,4.887585532746823,283.47996089931576
0.0,112.41446725317694,107.52688172043011,239.49169110459434,9.775171065493646,4.887585532746823,29.325513196480937
112.41446725317694,29.325513196480937,14.662756598240469,34.21309872922776,9.775171065493646,117.30205278592375,4.887585532746823
107.52688172043011,0.0,9.775171065493646,4.887585532746823,195.50342130987292,166.17790811339196,4.887585532746823
9.775171065493646,9.775171065493646,9.775171065493646,4.887585532746823,156.40273704789834,19.550342130987293,92.86412512218965
9.775171065493646,34.21309872922776,68.42619745845552,136.85239491691104,4.887585532746823,9.775171065493646,239.49169110459434
34.21309872922776,146.6275659824047,107.52688172043011,151.51515151515153,0.0,4.887585532746823,19.550342130987293
146.6275659824047,34.21309872922776,4.887585532746823,14.662756598240469,107.52688172043011,146.6275659824047,4.887585532746823
78.20136852394917,0.0,0.0,9.775171065493646,224.82893450635387,102.63929618768329,9.775171065493646
9.775171065493646,9.775171065493646,4.887585532746823,24.437927663734115,39.100684261974585,9.775171065493646,190.6158357771261
0.0,34.21309872922776,127.07722385141741,185.7282502443793,4.887585532746823,4.887585532746823,151.51515151515153
53.763440860215056,131.96480938416423,107.52688172043011,102.63929618768329,0.0,68.42619745845552,4.887585532746823
185.7282502443793,24.437927663734115,4.887585532746823,4.887585532746823,141.73998044965788,215.05376344086022,4.887585532746823
14.662756598240469,4.887585532746823,0.0,0.0,210.16617790811338,29.325513196480937,63.53861192570871
4.887585532746823,0.0,24.437927663734115,73.31378299120234,14.662756598240469,4.887585532746823,249.26686217008796
4.887585532746823,34.21309872922776,122.18963831867057,185.7282502443793,9.775171065493646,4.887585532746823,29.325513196480937
122.18963831867057,171.0654936461388,43.98826979472141,19.550342130987293,4.887585532746823,78.20136852394917,9.775171065493646
161.29032258064515,29.325513196480937,4.887585532746823,9.775171065493646,190.6158357771261,171.0654936461388,4.887585532746823
9.775171065493646,4.887585532746823,4.887585532746823,0.0,185.7282502443793,14.662756598240469,166.17790811339196
4.887585532746823,9.775171065493646,58.651026392961874,127.07722385141741,4.887585532746823,0.0,215.05376344086022
34.21309872922776,0.0,166.17790811339196,219.94134897360706,0.0,0.0,14.662756598240469
185.7282502443793,24.437927663734115,19.550342130987293,19.550342130987293,43.98826979472141,117.30205278592375,0.0
73.31378299120234,48.87585532746823,4.887585532746823,9.775171065493646,244.37927663734115,141.73998044965788,4.887585532746823
0.0,68.42619745845552,0.0,14.662756598240469,117.30205278592375,4.887585532746823,205.27859237536657
0.0,4.887585532746823,58.651026392961874,195.50342130987292,9.775171065493646,0.0,166.17790811339196
58.651026392961874,48.87585532746823,102.63929618768329,102.63929618768329,4.887585532746823,34.21309872922776,14.662756598240469
190.6158357771261,117.30205278592375,9.775171065493646,14.662756598240469,141.73998044965788,210.16617790811338,4.887585532746823
34.21309872922776,4.887585532746823,4.887585532746823,9.775171065493646,205.27859237536657,92.86412512218965,43.98826979472141
4.887585532746823,4.887585532746823,4.887585532746823,53.763440860215056,9.775171065493646,4.887585532746823,239.49169110459434
4.887585532746823,4.887585532746823,97.75171065493646,195.50342130987292,4.887585532746823,9.775171065493646,102.63929618768329
87.97653958944282,92.86412512218965,83.08895405669598,19.550342130987293,9.775171065493646,58.651026392961874,9.775171065493646
127.07722385141741,78.20136852394917,4.887585532746823,4.887585532746823,249.26686217008796,175.95307917888564,0.0
19.550342130987293,9.775171065493646,4.887585532746823,0.0,175.95307917888564,19.550342130987293,127.07722385141741
0.0,0.0,29.325513196480937,156.40273704789834,9.775171065493646,4.887585532746823,244.37927663734115
0.0,34.21309872922776,146.6275659824047,171.0654936461388,4.887585532746823,29.325513196480937,14.662756598240469
156.40273704789834,136.85239491691104,29.325513196480937,14.662756598240469,53.763440860215056,127.07722385141741,0.0
87.97653958944282,19.550342130987293,4.887585532746823,9.775171065493646,239.49169110459434,122.18963831867057,43.98826979472141
14.662756598240469,4.887585532746823,4.887585532746823,29.325513196480937,29.325513196480937,4.887585532746823,229.7165200391007
9.775171065493646,4.887585532746823,19.550342130987293,180.84066471163246,9.775171065493646,9.775171065493646,175.95307917888564
43.98826979472141,4.887585532746823,117.30205278592375,107.52688172043011,9.775171065493646,4.887585532746823,9.775171065493646
185.7282502443793,48.87585532746823,43.98826979472141,14.662756598240469,131.96480938416423,190.6158357771261,0.0
43.98826979472141,112.41446725317694,9.775171065493646,0.0,146.6275659824047,141.73998044965788,34.21309872922776
9.775171065493646,19.550342130987293,0.0,83.08895405669598,14.662756598240469,4.887585532746823,190.6158357771261
0.0,9.775171065493646,34.21309872922776,200.39100684261973,0.0,4.887585532746823,87.97653958944282
48.87585532746823,263.92961876832845,92.86412512218965,24.437927663734115,4.887585532746823,63.53861192570871,4.887585532746823
171.0654936461388,454.54545454545456,34.21309872922776,4.887585532746823,195.50342130987292,122.18963831867057,4.887585532746823
24.437927663734115,19.550342130987293,14.662756598240469,9.775171065493646,107.52688172043011,14.662756598240469,83.08895405669598
0.0,4.887585532746823,4.887585532746823,107.52688172043011,9.775171065493646,4.887585532746823,244.37927663734115
9.775171065493646,4.887585532746823,24.437927663734115,156.40273704789834,0.0,14.662756598240469,19.550342130987293
87.97653958944282,131.96480938416423,131.96480938416423,4.887585532746823,92.86412512218965,102.63929618768329,0.0
141.73998044965788,625.6109481915934,43.98826979472141,9.775171065493646,210.16617790811338,180.84066471163246,4.887585532746823
9.775171065493646,112.41446725317694,9.775171065493646,4.887585532746823,29.325513196480937,19.550342130987293,200.39100684261973
4.887585532746823,4.887585532746823,4.887585532746823,180.84066471163246,4.887585532746823,4.887585532746823,175.95307917888564
19.550342130987293,175.95307917888564,24.437927663734115,117.30205278592375,0.0,9.775171065493646,4.887585532746823
151.51515151515153,508.30889540566966,122.18963831867057,4.887585532746823,122.18963831867057,156.40273704789834,9.775171065493646
73.31378299120234,19.550342130987293,39.100684261974585,0.0,200.39100684261973,102.63929618768329,48.87585532746823
4.887585532746823,4.887585532746823,9.775171065493646,68.42619745845552,14.662756598240469,4.887585532746823,254.15444770283483
0.0,9.775171065493646,4.887585532746823,185.7282502443793,0.0,4.887585532746823,34.21309872922776
24.437927663734115,4.887585532746823,53.763440860215056,29.325513196480937,29.325513196480937,97.75171065493646,4.887585532746823
185.7282502443793,0.0,146.6275659824047,0.0,215.05376344086022,156.40273704789834,0.0
43.98826979472141,136.85239491691104,19.550342130987293,4.887585532746823,127.07722385141741,19.550342130987293,112.41446725317694
0.0,83.08895405669598,9.775171065493646,131.96480938416423,4.887585532746823,0.0,239.49169110459434
0.0,9.775171065493646,4.887585532746823,166.17790811339196,9.775171065493646,9.775171065493646,19.550342130987293
53.763440860215056,0.0,63.53861192570871,4.887585532746823,73.31378299120234,117.30205278592375,0.0
185.7282502443793,4.887585532746823,127.07722385141741,4.887585532746823,278.5923753665689,127.07722385141741,14.662756598240469
29.325513196480937,146.6275659824047,14.662756598240469,14.662756598240469,39.100684261974585,9.775171065493646,263.92961876832845
4.887585532746823,58.651026392961874,9.775171065493646,195.50342130987292,4.887585532746823,4.887585532746823,215.05376344086022
9.775171065493646,4.887585532746823,0.0,122.18963831867057,9.775171065493646,4.887585532746823,4.887585532746823
102.63929618768329,0.0,166.17790811339196,4.887585532746823,97.75171065493646,161.29032258064515,4.887585532746823
156.40273704789834,0.0,92.86412512218965,0.0,288.36754643206257,58.651026392961874,39.100684261974585
14.662756598240469,532.7468230694037,9.775171065493646,73.31378299120234,43.98826979472141,4.887585532746823,249.26686217008796
9.775171065493646,3157.380254154448,0.0,175.95307917888564,9.775171065493646,0.0,102.63929618768329
53.763440860215056,610.9481915933529,14.662756598240469,19.550342130987293,9.775171065493646,78.20136852394917,9.775171065493646
171.0654936461388,19.550342130987293,122.18963831867057,9.775171065493646,210.16617790811338,146.6275659824047,4.887585532746823
43.98826979472141,4.887585532746823,34.21309872922776,9.775171065493646,146.6275659824047,19.550342130987293,122.18963831867057
4.887585532746823,4.887585532746823,4.887585532746823,171.0654936461388,9.775171065493646,0.0,263.92961876832845
9.775171065493646,0.0,9.775171065493646,171.0654936461388,4.887585532746823,4.887585532746823,19.550342130987293
29.325513196480937,0.0,19.550342130987293,14.662756598240469,43.98826979472141,122.18963831867057,4.887585532746823
161.29032258064515,669.5992179863147,122.18963831867057,0.0,229.7165200391007,146.6275659824047,0.0
73.31378299120234,1925.7086999022483,63.53861192570871,0.0,87.97653958944282,9.775171065493646,200.39100684261973
4.887585532746823,171.0654936461388,4.887585532746823,141.73998044965788,9.775171065493646,0.0,190.6158357771261
0.0,0.0,0.0,161.29032258064515,9.775171065493646,9.775171065493646,14.662756598240469
112.41446725317694,0.0,58.651026392961874,4.887585532746823,122.18963831867057,136.85239491691104,0.0
185.7282502443793,1617.7908113391984,87.97653958944282,4.887585532746823,200.39100684261973,117.30205278592375,34.21309872922776
9.775171065493646,2952.1016617790815,4.887585532746823,151.51515151515153,14.662756598240469,9.775171065493646,224.82893450635387
4.887585532746823,576.7350928641251,4.887585532746823,307.91788856304987,0.0,0.0,83.08895405669598
0.0,24.437927663734115,0.0,29.325513196480937,0.0,53.763440860215056,0.0
146.6275659824047,9.775171065493646,97.75171065493646,4.887585532746823,195.50342130987292,141.73998044965788,4.887585532746823
112.41446725317694,39.100684261974585,83.08895405669598,4.887585532746823,146.6275659824047,19.550342130987293,73.31378299120234
14.662756598240469,0.0,9.775171065493646,9.775171065493646,14.662756598240469,4.887585532746823,200.39100684261973
9.775171065493646,0.0,0.0,9.775171065493646,4.887585532746823,0.0,19.550342130987293
24.437927663734115,992.179863147605,19.550342130987293,4.887585532746823,43.98826979472141,87.97653958944282,4.887585532746823
161.29032258064515,381.2316715542522,102.63929618768329,171.0654936461388,259.04203323558164,161.29032258064515,4.887585532746823
34.21309872922776,918.8660801564027,43.98826979472141,92.86412512218965,78.20136852394917,9.775171065493646,161.29032258064515
4.887585532746823,371.4565004887586,4.887585532746823,180.84066471163246,9.775171065493646,4.887585532746823,166.17790811339196
4.887585532746823,4.887585532746823,4.887585532746823,73.31378299120234,0.0,9.775171065493646,9.775171065493646
48.87585532746823,9.775171065493646,9.775171065493646,4.887585532746823,166.17790811339196,171.0654936461388,4.887585532746823
161.29032258064515,3944.281524926686,171.0654936461388,4.887585532746823,205.27859237536657,92.86412512218965,39.100684261974585
24.437927663734115,1358.7487781036168,102.63929618768329,9.775171065493646,14.662756598240469,4.887585532746823,249.26686217008796
4.887585532746823,288.36754643206257,4.887585532746823,395.89442815249265,4.887585532746823,4.887585532746823,97.75171065493646
4.887585532746823,19.550342130987293,4.887585532746823,694.0371456500488,0.0,39.100684261974585,9.775171065493646
92.86412512218965,9.775171065493646,68.42619745845552,24.437927663734115,205.27859237536657,180.84066471163246,0.0
171.0654936461388,14.662756598240469,78.20136852394917,4.887585532746823,131.96480938416423,43.98826979472141,97.75171065493646
24.437927663734115,185.7282502443793,9.775171065493646,0.0,14.662756598240469,9.775171065493646,273.7047898338221
9.775171065493646,224.82893450635387,0.0,0.0,4.887585532746823,9.775171065493646,34.21309872922776
0.0,63.53861192570871,4.887585532746823,0.0,48.87585532746823,48.87585532746823,4.887585532746823
122.18963831867057,654.9364613880742,9.775171065493646,811.3391984359725,244.37927663734115,175.95307917888564,9.775171065493646
146.6275659824047,1041.0557184750733,48.87585532746823,303.03030303030306,39.100684261974585,24.437927663734115,185.7282502443793
9.775171065493646,283.47996089931576,14.662756598240469,298.14271749755625,14.662756598240469,9.775171065493646,190.6158357771261
0.0,650.0488758553274,9.775171065493646,171.0654936461388,9.775171065493646,0.0,14.662756598240469
24.437927663734115,43.98826979472141,9.775171065493646,4.887585532746823,122.18963831867057,131.96480938416423,4.887585532746823
195.50342130987292,2590.4203323558163,68.42619745845552,0.0,175.95307917888564,156.40273704789834,24.437927663734115
68.42619745845552,102.63929618768329,63.53861192570871,244.37927663734115,14.662756598240469,14.662756598240469,239.49169110459434
9.775171065493646,34.21309872922776,4.887585532746823,1388.0742913000977,0.0,4.887585532746823,107.52688172043011
0.0,0.0,4.887585532746823,97.75171065493646,34.21309872922776,24.437927663734115,4.887585532746823
107.52688172043011,0.0,92.86412512218965,9.775171065493646,171.0654936461388,151.51515151515153,4.887585532746823
166.17790811339196,498.5337243401759,136.85239491691104,0.0,112.41446725317694,107.52688172043011,68.42619745845552
14.662756598240469,1505.3763440860216,29.325513196480937,14.662756598240469,4.887585532746823,9.775171065493646,249.26686217008796
4.887585532746823,43.98826979472141,4.887585532746823,669.5992179863147,0.0,9.775171065493646,39.100684261974585
9.775171065493646,4.887585532746823,0.0,884.6529814271751,68.42619745845552,43.98826979472141,9.775171065493646
4.887585532746823,4.887585532746823,9.775171065493646,24.437927663734115,215.05376344086022,210.16617790811338,9.775171065493646
0.0,1373.4115347018571,171.0654936461388,0.0,14.662756598240469,63.53861192570871,175.95307917888564
0.0,263.92961876832845,43.98826979472141,0.0,4.887585532746823,4.887585532746823,210.16617790811338
4.887585532746823,97.75171065493646,0.0,1314.7605083088954,0.0,4.887585532746823,19.550342130987293
1041.0557184750733,0.0,4.887585532746823,1085.0439882697947,122.18963831867057,97.75171065493646,9.775171065493646
156.40273704789834,219.94134897360706,43.98826979472141,29.325513196480937,263.92961876832845,141.73998044965788,48.87585532746823
39.100684261974585,1827.9569892473119,151.51515151515153,5000.0,29.325513196480937,14.662756598240469,254.15444770283483
4.887585532746823,102.63929618768329,19.550342130987293,581.622678396872,4.887585532746823,9.775171065493646,53.763440860215056
0.0,185.7282502443793,9.775171065493646,9.775171065493646,9.775171065493646,14.662756598240469,4.887585532746823
9.775171065493646,9.775171065493646,9.775171065493646,0.0,9.775171065493646,161.29032258064515,4.887585532746823
156.40273704789834,0.0,14.662756598240469,0.0,78.20136852394917,102.63929618768329,195.50342130987292
58.651026392961874,0.0,87.97653958944282,2292.2776148582598,24.437927663734115,4.887585532746823,185.7282502443793
0.0,5000.0,73.31378299120234,1344.0860215053763,102.63929618768329,0.0,9.775171065493646
4.887585532746823,219.94134897360706,4.887585532746823,63.53861192570871,43.98826979472141,24.437927663734115,4.887585532746823
4.887585532746823,19.550342130987293,0.0,43.98826979472141,185.7282502443793,136.85239491691104,29.325513196480937
606.0606060606061,24.437927663734115,97.75171065493646,757.5757575757576,24.437927663734115,92.86412512218965,229.7165200391007
83.08895405669598,0.0,146.6275659824047,14.662756598240469,0.0,9.775171065493646,112.41446725317694
9.775171065493646,0.0,9.775171065493646,3421.309872922776,0.0,9.775171065493646,4.887585532746823
0.0,2927.6637341153473,4.887585532746823,684.2619745845552,210.16617790811338,83.08895405669598,4.887585532746823
4.887585532746823,1466.275659824047,0.0,9.775171065493646,298.14271749755625,190.6158357771261,97.75171065493646
34.21309872922776,43.98826979472141,127.07722385141741,4.887585532746823,34.21309872922776,19.550342130987293,239.49169110459434
249.26686217008796,19.550342130987293,185.7282502443793,1143.6950146627566,9.775171065493646,0.0,19.550342130987293
9.775171065493646,122.18963831867057,9.775171065493646,2170.0879765395894,0.0,9.775171065493646,9.775171065493646
4.887585532746823,34.21309872922776,0.0,992.179863147605,0.0,156.40273704789834,4.887585532746823
83.08895405669598,303.03030303030306,0.0,24.437927663734115,151.51515151515153,122.18963831867057,151.51515151515153
1788.8563049853374,29.325513196480937,4.887585532746823,2126.099706744868,9.775171065493646,9.775171065493646,210.16617790811338
347.0185728250244,4.887585532746823,0.0,376.3440860215054,0.0,4.887585532746823,24.437927663734115
9.775171065493646,63.53861192570871,4.887585532746823,29.325513196480937,4.887585532746823,14.662756598240469,0.0
9.775171065493646,14.662756598240469,107.52688172043011,1099.7067448680352,307.91788856304987,185.7282502443793,4.887585532746823
0.0,83.08895405669598,43.98826979472141,1730.2052785923754,469.208211143695,83.08895405669598,190.6158357771261
2204.3010752688174,2917.8885630498535,131.96480938416423,53.763440860215056,34.21309872922776,0.0,151.51515151515153
972.6295210166178,733.1378299120234,146.6275659824047,3655.9139784946237,9.775171065493646,0.0,14.662756598240469
498.5337243401759,19.550342130987293,24.437927663734115,708.6999022482894,0.0,58.651026392961874,0.0
9.775171065493646,4.887585532746823,0.0,1231.6715542521995,146.6275659824047,136.85239491691104,97.75171065493646
0.0,4.887585532746823,9.775171065493646,469.208211143695,34.21309872922776,14.662756598240469,234.6041055718475
0.0,2932.551319648094,0.0,29.325513196480937,0.0,0.0,24.437927663734115
58.651026392961874,469.208211143695,4.887585532746823,0.0,4.887585532746823,4.887585532746823,0.0
381.2316715542522,24.437927663734115,4.887585532746823,5000.0,283.47996089931576,92.86412512218965,0.0
777.1260997067449,356.7937438905181,19.550342130987293,449.65786901270775,1109.4819159335289,92.86412512218965,175.95307917888564
19.550342130987293,1212.1212121212122,288.36754643206257,29.325513196480937,58.651026392961874,0.0,180.84066471163246
4.887585532746823,39.100684261974585,180.84066471163246,513.1964809384165,0.0,0.0,14.662756598240469
5000.0,293.2551319648094,14.662756598240469,928.6412512218964,4.887585532746823,185.7282502443793,0.0
195.50342130987292,9.775171065493646,68.42619745845552,801.5640273704789,78.20136852394917,68.42619745845552,34.21309872922776
0.0,9.775171065493646,39.100684261974585,1050.830889540567,307.91788856304987,34.21309872922776,219.94134897360706
0.0,278.5923753665689,175.95307917888564,102.63929618768329,386.119257086999,4.887585532746823,117.30205278592375
811.3391984359725,381.2316715542522,9.775171065493646,29.325513196480937,19.550342130987293,9.775171065493646,14.662756598240469
1075.268817204301,24.437927663734115,92.86412512218965,278.5923753665689,48.87585532746823,63.53861192570871,4.887585532746823
48.87585532746823,29.325513196480937,136.85239491691104,791.7888563049853,43.98826979472141,215.05376344086022,92.86412512218965
136.85239491691104,0.0,175.95307917888564,1940.3714565004886,4.887585532746823,19.550342130987293,263.92961876832845
244.37927663734115,83.08895405669598,801.5640273704789,68.42619745845552,0.0,14.662756598240469,29.325513196480937
14.662756598240469,312.8054740957967,180.84066471163246,43.98826979472141,14.662756598240469,19.550342130987293,9.775171065493646
0.0,811.3391984359725,0.0,2585.5327468230694,87.97653958944282,92.86412512218965,4.887585532746823
1803.5190615835777,356.7937438905181,117.30205278592375,361.6813294232649,112.41446725317694,78.20136852394917,185.7282502443793
469.208211143695,29.325513196480937,767.3509286412512,4.887585532746823,4.887585532746823,9.775171065493646,195.50342130987292
24.437927663734115,0.0,87.97653958944282,4931.573802541545,9.775171065493646,0.0,9.775171065493646
68.42619745845552,1510.2639296187683,542.5219941348973,1505.3763440860216,58.651026392961874,53.763440860215056,4.887585532746823
845.5522971652003,386.119257086999,513.1964809384165,39.100684261974585,63.53861192570871,127.07722385141741,24.437927663734115
733.1378299120234,24.437927663734115,347.0185728250244,288.36754643206257,303.03030303030306,19.550342130987293,268.81720430107526
19.550342130987293,43.98826979472141,24.437927663734115,102.63929618768329,215.05376344086022,9.775171065493646,107.52688172043011
0.0,14.662756598240469,43.98826979472141,0.0,195.50342130987292,9.775171065493646,9.775171065493646
904.2033235581623,141.73998044965788,303.03030303030306,1412.512218963832,24.437927663734115,92.86412512218965,0.0
156.40273704789834,24.437927663734115,874.8778103616814,694.0371456500488,0.0,171.0654936461388,92.86412512218965
234.6041055718475,58.651026392961874,757.5757575757576,112.41446725317694,0.0,14.662756598240469,244.37927663734115
234.6041055718475,58.651026392961874,2116.3245356793745,1129.032258064516,566.9599217986315,4.887585532746823,39.100684261974585
948.1915933528836,175.95307917888564,205.27859237536657,552.297165200391,1774.1935483870968,9.775171065493646,0.0
24.437927663734115,9.775171065493646,239.49169110459434,19.550342130987293,122.18963831867057,131.96480938416423,0.0
0.0,14.662756598240469,2727.272727272727,1676.4418377321601,9.775171065493646,87.97653958944282,136.85239491691104
351.9061583577713,4.887585532746823,459.4330400782014,811.3391984359725,0.0,4.887585532746823,205.27859237536657
19.550342130987293,112.41446725317694,19.550342130987293,9.775171065493646,4.887585532746823,4.887585532746823,14.662756598240469
869.9902248289345,625.6109481915934,327.4682306940371,1622.678396871945,102.63929618768329,14.662756598240469,0.0
205.27859237536657,171.0654936461388,117.30205278592375,503.42130987292273,9.775171065493646,117.30205278592375,24.437927663734115
43.98826979472141,14.662756598240469,894.4281524926687,29.325513196480937,4.887585532746823,107.52688172043011,205.27859237536657
0.0,4.887585532746823,1422.2873900293257,43.98826979472141,444.77028347996094,4.887585532746823,102.63929618768329
4.887585532746823,278.5923753665689,1378.299120234604,29.325513196480937,254.15444770283483,9.775171065493646,0.0
337.2434017595308,166.17790811339196,205.27859237536657,14.662756598240469,19.550342130987293,200.39100684261973,9.775171065493646
136.85239491691104,503.42130987292273,131.96480938416423,0.0,0.0,166.17790811339196,97.75171065493646
987.2922776148582,48.87585532746823,68.42619745845552,0.0,4.887585532746823,19.550342130987293,244.37927663734115
29.325513196480937,29.325513196480937,459.4330400782014,3049.8533724340177,0.0,9.775171065493646,29.325513196480937
9.775171065493646,0.0,630.4985337243402,73.31378299120234,19.550342130987293,24.437927663734115,4.887585532746823
3626.5884652981426,1168.1329423264906,376.3440860215054,2272.7272727272725,816.2267839687195,175.95307917888564,4.887585532746823
141.73998044965788,171.0654936461388,83.08895405669598,376.3440860215054,39.100684261974585,112.41446725317694,141.73998044965788
4.887585532746823,9.775171065493646,259.04203323558164,34.21309872922776,0.0,0.0,254.15444770283483
9.775171065493646,4.887585532746823,610.9481915933529,43.98826979472141,1666.6666666666665,4.887585532746823,34.21309872922776
0.0,122.18963831867057,493.6461388074291,381.2316715542522,263.92961876832845,0.0,9.775171065493646
1348.9736070381232,317.6930596285435,2018.5728250244379,9.775171065493646,19.550342130987293,127.07722385141741,9.775171065493646
488.7585532746823,171.0654936461388,58.651026392961874,1661.7790811339198,4.887585532746823,112.41446725317694,215.05376344086022
19.550342130987293,14.662756598240469,283.47996089931576,767.3509286412512,4.887585532746823,9.775171065493646,112.41446725317694
53.763440860215056,14.662756598240469,537.6344086021505,24.437927663734115,48.87585532746823,9.775171065493646,9.775171065493646
9.775171065493646,469.208211143695,48.87585532746823,4.887585532746823,278.5923753665689,63.53861192570871,0.0
53.763440860215056,29.325513196480937,293.2551319648094,1285.4349951124145,34.21309872922776,151.51515151515153,87.97653958944282
83.08895405669598,0.0,63.53861192570871,210.16617790811338,9.775171065493646,19.550342130987293,249.26686217008796
615.8357771260997,376.3440860215054,24.437927663734115,654.9364613880742,0.0,0.0,29.325513196480937
63.53861192570871,571.8475073313783,566.9599217986315,234.6041055718475,171.0654936461388,9.775171065493646,9.775171065493646
312.8054740957967,83.08895405669598,615.8357771260997,205.27859237536657,117.30205278592375,107.52688172043011,4.887585532746823
327.4682306940371,29.325513196480937,454.54545454545456,9.775171065493646,4.887585532746823,92.86412512218965,156.40273704789834
14.662756598240469,386.119257086999,24.437927663734115,1446.7253176930597,0.0,14.662756598240469,200.39100684261973
371.4565004887586,298.14271749755625,1094.8191593352883,982.4046920821114,239.49169110459434,4.887585532746823,9.775171065493646
19.550342130987293,14.662756598240469,386.119257086999,459.4330400782014,811.3391984359725,29.325513196480937,0.0
9.775171065493646,0.0,591.3978494623656,68.42619745845552,224.82893450635387,234.6041055718475,39.100684261974585
4.887585532746823,2052.785923753666,322.5806451612903,4.887585532746823,376.3440860215054,97.75171065493646,259.04203323558164
175.95307917888564,112.41446725317694,478.9833822091887,4.887585532746823,24.437927663734115,4.887585532746823,146.6275659824047
444.77028347996094,48.87585532746823,92.86412512218965,34.21309872922776,9.775171065493646,4.887585532746823,9.775171065493646
430.10752688172045,53.763440860215056,215.05376344086022,1461.3880742913002,0.0,63.53861192570871,0.0
180.84066471163246,0.0,34.21309872922776,102.63929618768329,0.0,156.40273704789834,97.75171065493646
9.775171065493646,29.325513196480937,1099.7067448680352,2888.563049853373,303.03030303030306,19.550342130987293,298.14271749755625
645.1612903225806,767.3509286412512,112.41446725317694,83.08895405669598,625.6109481915934,9.775171065493646,43.98826979472141
53.763440860215056,48.87585532746823,1148.5826001955033,601.1730205278593,63.53861192570871,4.887585532746823,14.662756598240469
259.04203323558164,34.21309872922776,713.5874877810362,102.63929618768329,4.887585532746823,180.84066471163246,0.0
78.20136852394917,19.550342130987293,606.0606060606061,14.662756598240469,4.887585532746823,180.84066471163246,151.51515151515153
9.775171065493646,24.437927663734115,547.4095796676442,708.6999022482894,4.887585532746823,9.775171065493646,205.27859237536657
332.35581622678393,298.14271749755625,87.97653958944282,127.07722385141741,9.775171065493646,9.775171065493646,19.550342130987293
73.31378299120234,34.21309872922776,0.0,87.97653958944282,0.0,29.325513196480937,9.775171065493646
224.82893450635387,4.887585532746823,684.2619745845552,0.0,0.0,131.96480938416423,19.550342130987293
190.6158357771261,9.775171065493646,449.65786901270775,1207.2336265884653,371.4565004887586,122.18963831867057,215.05376344086022
14.662756598240469,0.0,400.78201368523946,669.5992179863147,63.53861192570871,9.775171065493646,136.85239491691104
630.4985337243402,73.31378299120234,249.26686217008796,9.775171065493646,694.0371456500488,0.0,4.887585532746823
19.550342130987293,2091.8866080156404,552.297165200391,112.41446725317694,356.7937438905181,48.87585532746823,4.887585532746823
772.238514173998,53.763440860215056,161.29032258064515,1099.7067448680352,29.325513196480937,117.30205278592375,112.41446725317694
171.0654936461388,4.887585532746823,1001.9550342130987,439.8826979472141,14.662756598240469,9.775171065493646,273.7047898338221
439.8826979472141,83.08895405669598,342.1309872922776,83.08895405669598,356.7937438905181,0.0,29.325513196480937
87.97653958944282,434.99511241446726,1104.594330400782,29.325513196480937,83.08895405669598,34.21309872922776,4.887585532746823
102.63929618768329,24.437927663734115,786.9012707722385,83.08895405669598,4.887585532746823,205.27859237536657,0.0
9.775171065493646,288.36754643206257,498.5337243401759,532.7468230694037,175.95307917888564,117.30205278592375,156.40273704789834
1124.1446725317692,24.437927663734115,293.2551319648094,29.325513196480937,205.27859237536657,9.775171065493646,195.50342130987292
239.49169110459434,518.0840664711633,224.82893450635387,312.8054740957967,312.8054740957967,0.0,14.662756598240469
19.550342130987293,63.53861192570871,122.18963831867057,19.550342130987293,19.550342130987293,0.0,4.887585532746823
0.0,14.662756598240469,244.37927663734115,786.9012707722385,0.0,43.98826979472141,4.887585532746823
156.40273704789834,156.40273704789834,537.6344086021505,73.31378299120234,0.0,0.0,190.6158357771261
659.824046920821,48.87585532746823,87.97653958944282,2072.336265884653,0.0,4.887585532746823,146.6275659824047
39.100684261974585,4.887585532746823,508.30889540566966,78.20136852394917,860.2150537634409,4.887585532746823,9.775171065493646
9.775171065493646,97.75171065493646,244.37927663734115,0.0,283.47996089931576,337.2434017595308,9.775171065493646
34.21309872922776,4.887585532746823,39.100684261974585,1432.0625610948193,112.41446725317694,454.54545454545456,73.31378299120234
14.662756598240469,224.82893450635387,400.78201368523946,161.29032258064515,14.662756598240469,97.75171065493646,254.15444770283483
161.29032258064515,102.63929618768329,684.2619745845552,566.9599217986315,601.1730205278593,4.887585532746823,39.100684261974585
9.775171065493646,9.775171065493646,845.5522971652003,19.550342130987293,48.87585532746823,9.775171065493646,4.887585532746823
151.51515151515153,9.775171065493646,19.550342130987293,19.550342130987293,9.775171065493646,146.6275659824047,4.887585532746823
1143.6950146627566,39.100684261974585,14.662756598240469,171.0654936461388,244.37927663734115,127.07722385141741,151.51515151515153
190.6158357771261,48.87585532746823,513.1964809384165,195.50342130987292,19.550342130987293,4.887585532746823,234.6041055718475
14.662756598240469,0.0,342.1309872922776,136.85239491691104,9.775171065493646,0.0,19.550342130987293
0.0,928.6412512218964,400.78201368523946,684.2619745845552,0.0,29.325513196480937,4.887585532746823
640.2737047898338,229.7165200391007,303.03030303030306,166.17790811339196,826.0019550342131,796.6764418377321,9.775171065493646
371.4565004887586,19.550342130987293,977.5171065493646,547.4095796676442,347.0185728250244,288.36754643206257,210.16617790811338
24.437927663734115,4.887585532746823,39.100684261974585,24.437927663734115,92.86412512218965,19.550342130987293,146.6275659824047
4.887585532746823,9.775171065493646,83.08895405669598,977.5171065493646,19.550342130987293,0.0,9.775171065493646
9.775171065493646,19.550342130987293,405.6695992179863,2565.982404692082,4.887585532746823,4.887585532746823,0.0
948.1915933528836,1173.0205278592375,210.16617790811338,146.6275659824047,39.100684261974585,127.07722385141741,78.20136852394917
97.75171065493646,63.53861192570871,34.21309872922776,14.662756598240469,449.65786901270775,469.208211143695,254.15444770283483
4.887585532746823,9.775171065493646,498.5337243401759,9.775171065493646,420.33235581622677,29.325513196480937,34.21309872922776
9.775171065493646,0.0,34.21309872922776,9.775171065493646,24.437927663734115,0.0,4.887585532746823
4.887585532746823,29.325513196480937,87.97653958944282,410.55718475073314,190.6158357771261,87.97653958944282,4.887585532746823
371.4565004887586,943.3040078201368,923.7536656891496,19.550342130987293,185.7282502443793,948.1915933528836,131.96480938416423
122.18963831867057,87.97653958944282,58.651026392961874,806.4516129032257,117.30205278592375,410.55718475073314,210.16617790811338
131.96480938416423,4.887585532746823,34.21309872922776,48.87585532746823,9.775171065493646,19.550342130987293,9.775171065493646
39.100684261974585,112.41446725317694,1197.4584555229717,1744.868035190616,273.7047898338221,24.437927663734115,4.887585532746823
14.662756598240469,14.662756598240469,48.87585532746823,537.6344086021505,229.7165200391007,9.775171065493646,29.325513196480937
9.775171065493646,4.887585532746823,205.27859237536657,73.31378299120234,112.41446725317694,127.07722385141741,215.05376344086022
4.887585532746823,4.887585532746823,684.2619745845552,4.887585532746823,205.27859237536657,24.437927663734115,151.51515151515153
826.0019550342131,24.437927663734115,180.84066471163246,967.741935483871,29.325513196480937,9.775171065493646,9.775171065493646
78.20136852394917,63.53861192570871,48.87585532746823,1324.535679374389,283.47996089931576,34.21309872922776,0.0
4.887585532746823,4.887585532746823,48.87585532746823,723.3626588465298,48.87585532746823,4.887585532746823,73.31378299120234
180.84066471163246,391.00684261974584,29.325513196480937,107.52688172043011,14.662756598240469,0.0,249.26686217008796
869.9902248289345,474.0957966764418,366.5689149560117,522.9716520039101,601.1730205278593,288.36754643206257,34.21309872922776
53.763440860215056,19.550342130987293,166.17790811339196,1891.4956011730205,205.27859237536657,1304.9853372434018,4.887585532746823
14.662756598240469,4.887585532746823,141.73998044965788,102.63929618768329,14.662756598240469,34.21309872922776,9.775171065493646
234.6041055718475,1344.0860215053763,68.42619745845552,366.5689149560117,586.5102639296188,24.437927663734115,151.51515151515153
19.550342130987293,219.94134897360706,679.3743890518084,19.550342130987293,39.100684261974585,303.03030303030306,224.82893450635387
0.0,19.550342130987293,39.100684261974585,987.2922776148582,68.42619745845552,14.662756598240469,9.775171065493646
4.887585532746823,24.437927663734115,1153.4701857282503,962.8543499511242,34.21309872922776,4.887585532746823,0.0
97.75171065493646,4.887585532746823,312.8054740957967,219.94134897360706,669.5992179863147,171.0654936461388,14.662756598240469
386.119257086999,122.18963831867057,19.550342130987293,29.325513196480937,58.651026392961874,434.99511241446726,215.05376344086022
24.437927663734115,24.437927663734115,175.95307917888564,474.0957966764418,263.92961876832845,606.0606060606061,156.40273704789834
53.763440860215056,4.887585532746823,1085.0439882697947,19.550342130987293,166.17790811339196,68.42619745845552,9.775171065493646
185.7282502443793,0.0,664.7116324535679,1182.7956989247311,4.887585532746823,4.887585532746823,4.887585532746823
4.887585532746823,63.53861192570871,29.325513196480937,48.87585532746823,68.42619745845552,0.0,34.21309872922776
615.8357771260997,151.51515151515153,53.763440860215056,894.4281524926687,48.87585532746823,0.0,273.7047898338221
39.100684261974585,0.0,175.95307917888564,171.0654936461388,537.6344086021505,635.386119257087,78.20136852394917
219.94134897360706,0.0,215.05376344086022,9.775171065493646,48.87585532746823,1969.6969696969695,4.887585532746823
136.85239491691104,1109.4819159335289,659.824046920821,1847.507331378299,4.887585532746823,78.20136852394917,0.0
4.887585532746823,229.7165200391007,180.84066471163246,39.100684261974585,1432.0625610948193,9.775171065493646,146.6275659824047
14.662756598240469,19.550342130987293,29.325513196480937,469.208211143695,879.7653958944283,606.0606060606061,259.04203323558164
29.325513196480937,9.775171065493646,53.763440860215056,48.87585532746823,34.21309872922776,78.20136852394917,39.100684261974585
34.21309872922776,127.07722385141741,625.6109481915934,1124.1446725317692,156.40273704789834,0.0,9.775171065493646
136.85239491691104,24.437927663734115,259.04203323558164,29.325513196480937,175.95307917888564,127.07722385141741,0.0
14.662756598240469,175.95307917888564,733.1378299120234,283.47996089931576,87.97653958944282,249.26686217008796,195.50342130987292
0.0,24.437927663734115,156.40273704789834,391.00684261974584,68.42619745845552,195.50342130987292,171.0654936461388
0.0,53.763440860215056,566.9599217986315,347.0185728250244,19.550342130987293,63.53861192570871,9.775171065493646
869.9902248289345,215.05376344086022,312.8054740957967,283.47996089931576,215.05376344086022,117.30205278592375,0.0
78.20136852394917,97.75171065493646,19.550342130987293,24.437927663734115,200.39100684261973,395.89442815249265,63.53861192570871
29.325513196480937,4.887585532746823,73.31378299120234,2761.4858260019546,151.51515151515153,9.775171065493646,263.92961876832845
4.887585532746823,112.41446725317694,112.41446725317694,180.84066471163246,48.87585532746823,239.49169110459434,43.98826979472141
376.3440860215054,263.92961876832845,650.0488758553274,146.6275659824047,4.887585532746823,1652.0039100684262,4.887585532746823
131.96480938416423,73.31378299120234,386.119257086999,39.100684261974585,371.4565004887586,58.651026392961874,9.775171065493646
571.8475073313783,4.887585532746823,478.9833822091887,219.94134897360706,48.87585532746823,4.887585532746823,131.96480938416423
19.550342130987293,87.97653958944282,151.51515151515153,14.662756598240469,0.0,205.27859237536657,215.05376344086022
664.7116324535679,322.5806451612903,43.98826979472141,166.17790811339196,190.6158357771261,234.6041055718475,19.550342130987293
97.75171065493646,9.775171065493646,259.04203323558164,1857.2825024437927,601.1730205278593,1065.4936461388074,0.0
4.887585532746823,166.17790811339196,254.15444770283483,371.4565004887586,488.7585532746823,224.82893450635387,29.325513196480937
53.763440860215056,430.10752688172045,43.98826979472141,87.97653958944282,39.100684261974585,371.4565004887586,249.26686217008796
351.9061583577713,19.550342130987293,180.84066471163246,0.0,63.53861192570871,14.662756598240469,171.0654936461388
68.42619745845552,63.53861192570871,469.208211143695,865.1026392961877,239.49169110459434,4.887585532746823,4.887585532746823
9.775171065493646,420.33235581622677,14.662756598240469,87.97653958944282,141.73998044965788,107.52688172043011,9.775171065493646
4.887585532746823,19.550342130987293,767.3509286412512,1085.0439882697947,9.775171065493646,161.29032258064515,34.21309872922776
117.30205278592375,263.92961876832845,410.55718475073314,29.325513196480937,4.887585532746823,703.8123167155426,254.15444770283483
151.51515151515153,659.824046920821,200.39100684261973,78.20136852394917,180.84066471163246,34.21309872922776,131.96480938416423
14.662756598240469,205.27859237536657,29.325513196480937,1451.6129032258066,449.65786901270775,14.662756598240469,4.887585532746823
0.0,14.662756598240469,415.44477028347995,156.40273704789834,48.87585532746823,107.52688172043011,4.887585532746823
0.0,0.0,337.2434017595308,14.662756598240469,0.0,19.550342130987293,131.96480938416423
811.3391984359725,210.16617790811338,58.651026392961874,9.775171065493646,224.82893450635387,439.8826979472141,200.39100684261973
161.29032258064515,234.6041055718475,19.550342130987293,24.437927663734115,537.6344086021505,102.63929618768329,14.662756598240469
14.662756598240469,58.651026392961874,405.6695992179863,9.775171065493646,19.550342130987293,1158.357771260997,0.0
4.887585532746823,4.887585532746823,136.85239491691104,806.4516129032257,0.0,39.100684261974585,29.325513196480937
9.775171065493646,410.55718475073314,552.297165200391,97.75171065493646,9.775171065493646,166.17790811339196,234.6041055718475
332.35581622678393,171.0654936461388,840.6647116324535,14.662756598240469,439.8826979472141,1446.7253176930597,166.17790811339196
53.763440860215056,4.887585532746823,43.98826979472141,78.20136852394917,102.63929618768329,102.63929618768329,9.775171065493646
48.87585532746823,444.77028347996094,772.238514173998,117.30205278592375,14.662756598240469,273.7047898338221,9.775171065493646
141.73998044965788,43.98826979472141,63.53861192570871,938.41642228739,39.100684261974585,767.3509286412512,53.763440860215056
24.437927663734115,434.99511241446726,547.4095796676442,39.100684261974585,224.82893450635387,317.6930596285435,254.15444770283483
43.98826979472141,73.31378299120234,34.21309872922776,874.8778103616814,14.662756598240469,127.07722385141741,43.98826979472141
58.651026392961874,239.49169110459434,953.0791788856305,73.31378299120234,386.119257086999,249.26686217008796,9.775171065493646
0.0,58.651026392961874,205.27859237536657,244.37927663734115,283.47996089931576,87.97653958944282,0.0
171.0654936461388,9.775171065493646,229.7165200391007,229.7165200391007,14.662756598240469,205.27859237536657,127.07722385141741
610.9481915933529,0.0,351.9061583577713,586.5102639296188,151.51515151515153,679.3743890518084,229.7165200391007
43.98826979472141,43.98826979472141,224.82893450635387,307.91788856304987,1603.1280547409579,312.8054740957967,24.437927663734115
43.98826979472141,1906.158357771261,219.94134897360706,14.662756598240469,63.53861192570871,782.0136852394917,4.887585532746823
9.775171065493646,127.07722385141741,58.651026392961874,376.3440860215054,4.887585532746823,73.31378299120234,9.775171065493646
9.775171065493646,9.775171065493646,904.2033235581623,1608.0156402737048,185.7282502443793,400.78201368523946,200.39100684261973
161.29032258064515,9.775171065493646,53.763440860215056,97.75171065493646,117.30205278592375,742.9130009775172,156.40273704789834
180.84066471163246,0.0,361.6813294232649,4.887585532746823,9.775171065493646,29.325513196480937,9.775171065493646
9.775171065493646,4.887585532746823,249.26686217008796,513.1964809384165,4.887585532746823,166.17790811339196,0.0
4.887585532746823,53.763440860215056,835.7771260997067,1412.512218963832,244.37927663734115,537.6344086021505,78.20136852394917
254.15444770283483,97.75171065493646,43.98826979472141,703.8123167155426,312.8054740957967,68.42619745845552,293.2551319648094
747.800586510264,131.96480938416423,83.08895405669598,102.63929618768329,73.31378299120234,24.437927663734115,48.87585532746823
24.437927663734115,43.98826979472141,4.887585532746823,78.20136852394917,4.887585532746823,1021.5053763440861,4.887585532746823
4.887585532746823,9.775171065493646,1309.8729227761485,449.65786901270775,0.0,141.73998044965788,14.662756598240469
444.77028347996094,430.10752688172045,219.94134897360706,239.49169110459434,703.8123167155426,136.85239491691104,200.39100684261973
107.52688172043011,68.42619745845552,14.662756598240469,48.87585532746823,39.100684261974585,19.550342130987293,175.95307917888564
63.53861192570871,4.887585532746823,0.0,0.0,395.89442815249265,112.41446725317694,9.775171065493646
53.763440860215056,669.5992179863147,24.437927663734115,2140.7624633431087,24.437927663734115,430.10752688172045,0.0
14.662756598240469,112.41446725317694,488.7585532746823,87.97653958944282,24.437927663734115,127.07722385141741,48.87585532746823
29.325513196480937,674.4868035190616,547.4095796676442,9.775171065493646,63.53861192570871,58.651026392961874,263.92961876832845
156.40273704789834,161.29032258064515,19.550342130987293,1686.2170087976538,136.85239491691104,449.65786901270775,39.100684261974585
48.87585532746823,68.42619745845552,420.33235581622677,219.94134897360706,9.775171065493646,87.97653958944282,4.887585532746823
185.7282502443793,4.887585532746823,1427.1749755620724,14.662756598240469,4.887585532746823,4.887585532746823,0.0
185.7282502443793,0.0,58.651026392961874,180.84066471163246,107.52688172043011,1124.1446725317692,131.96480938416423
122.18963831867057,381.2316715542522,58.651026392961874,58.651026392961874,229.7165200391007,117.30205278592375,268.81720430107526
19.550342130987293,200.39100684261973,410.55718475073314,244.37927663734115,430.10752688172045,87.97653958944282,24.437927663734115
19.550342130987293,146.6275659824047,879.7653958944283,317.6930596285435,29.325513196480937,107.52688172043011,9.775171065493646
161.29032258064515,312.8054740957967,53.763440860215056,24.437927663734115,0.0,180.84066471163246,19.550342130987293
39.100684261974585,19.550342130987293,4.887585532746823,9.775171065493646,698.9247311827957,503.42130987292273,195.50342130987292
117.30205278592375,24.437927663734115,782.0136852394917,713.5874877810362,586.5102639296188,107.52688172043011,195.50342130987292
73.31378299120234,4.887585532746823,131.96480938416423,840.6647116324535,14.662756598240469,24.437927663734115,14.662756598240469
0.0,4.887585532746823,136.85239491691104,29.325513196480937,239.49169110459434,513.1964809384165,0.0
112.41446725317694,9.775171065493646,293.2551319648094,845.5522971652003,391.00684261974584,14.662756598240469,48.87585532746823
391.00684261974584,34.21309872922776,92.86412512218965,317.6930596285435,19.550342130987293,317.6930596285435,239.49169110459434
151.51515151515153,312.8054740957967,43.98826979472141,444.77028347996094,14.662756598240469,361.6813294232649,34.21309872922776
19.550342130987293,43.98826979472141,175.95307917888564,591.3978494623656,19.550342130987293,48.87585532746823,4.887585532746823
4.887585532746823,48.87585532746823,195.50342130987292,3401.7595307917886,224.82893450635387,303.03030303030306,0.0
19.550342130987293,0.0,273.7047898338221,156.40273704789834,83.08895405669598,200.39100684261973,112.41446725317694
63.53861192570871,239.49169110459434,254.15444770283483,14.662756598240469,146.6275659824047,39.100684261974585,234.6041055718475
112.41446725317694,674.4868035190616,1373.4115347018571,0.0,9.775171065493646,4.887585532746823,19.550342130987293
83.08895405669598,24.437927663734115,151.51515151515153,322.5806451612903,249.26686217008796,332.35581622678393,9.775171065493646
224.82893450635387,43.98826979472141,4.887585532746823,522.9716520039101,268.81720430107526,136.85239491691104,0.0
29.325513196480937,224.82893450635387,259.04203323558164,894.4281524926687,19.550342130987293,24.437927663734115,195.50342130987292
4.887585532746823,34.21309872922776,806.4516129032257,430.10752688172045,0.0,767.3509286412512,185.7282502443793
0.0,4.887585532746823,127.07722385141741,1251.2218963831867,19.550342130987293,48.87585532746823,4.887585532746823
200.39100684261973,4.887585532746823,381.2316715542522,493.6461388074291,215.05376344086022,107.52688172043011,4.887585532746823
386.119257086999,454.54545454545456,342.1309872922776,14.662756598240469,430.10752688172045,87.97653958944282,43.98826979472141
122.18963831867057,552.297165200391,200.39100684261973,1466.275659824047,19.550342130987293,356.7937438905181,234.6041055718475
9.775171065493646,24.437927663734115,39.100684261974585,117.30205278592375,9.775171065493646,14.662756598240469,102.63929618768329
43.98826979472141,4.887585532746823,131.96480938416423,19.550342130987293,1080.156402737048,102.63929618768329,4.887585532746823
112.41446725317694,420.33235581622677,620.7233626588466,4.887585532746823,68.42619745845552,131.96480938416423,0.0
102.63929618768329,58.651026392961874,268.81720430107526,9.775171065493646,723.3626588465298,14.662756598240469,97.75171065493646
9.775171065493646,39.100684261974585,9.775171065493646,1480.9384164222874,43.98826979472141,0.0,254.15444770283483
4.887585532746823,14.662756598240469,34.21309872922776,48.87585532746823,24.437927663734115,161.29032258064515,24.437927663734115
689.149560117302,78.20136852394917,1529.8142717497556,395.89442815249265,58.651026392961874,659.824046920821,0.0
166.17790811339196,498.5337243401759,811.3391984359725,24.437927663734115,39.100684261974585,19.550342130987293,29.325513196480937
14.662756598240469,9.775171065493646,53.763440860215056,1642.2287390029326,9.775171065493646,151.51515151515153,200.39100684261973
9.775171065493646,78.20136852394917,92.86412512218965,166.17790811339196,9.775171065493646,200.39100684261973,175.95307917888564
249.26686217008796,24.437927663734115,312.8054740957967,29.325513196480937,43.98826979472141,122.18963831867057,9.775171065493646
92.86412512218965,0.0,1353.86119257087,127.07722385141741,278.5923753665689,254.15444770283483,0.0
14.662756598240469,219.94134897360706,263.92961876832845,1314.7605083088954,97.75171065493646,14.662756598240469,48.87585532746823
156.40273704789834,151.51515151515153,410.55718475073314,312.8054740957967,185.7282502443793,92.86412512218965,307.91788856304987
29.325513196480937,19.550342130987293,850.4398826979472,1656.891495601173,4.887585532746823,317.6930596285435,48.87585532746823
4.887585532746823,0.0,97.75171065493646,166.17790811339196,97.75171065493646,14.662756598240469,4.887585532746823
303.03030303030306,698.9247311827957,78.20136852394917,161.29032258064515,273.7047898338221,112.41446725317694,4.887585532746823
131.96480938416423,513.1964809384165,102.63929618768329,4.887585532746823,39.100684261974585,254.15444770283483,210.16617790811338
4.887585532746823,29.325513196480937,39.100684261974585,127.07722385141741,4.887585532746823,68.42619745845552,180.84066471163246
14.662756598240469,9.775171065493646,244.37927663734115,347.0185728250244,244.37927663734115,39.100684261974585,9.775171065493646
24.437927663734115,9.775171065493646,205.27859237536657,34.21309872922776,131.96480938416423,92.86412512218965,0.0
4.887585532746823,4.887585532746823,234.6041055718475,156.40273704789834,73.31378299120234,14.662756598240469,63.53861192570871
141.73998044965788,4.887585532746823,1368.5239491691104,58.651026392961874,24.437927663734115,366.5689149560117,303.03030303030306
53.763440860215056,0.0,63.53861192570871,0.0,9.775171065493646,386.119257086999,58.651026392961874
4.887585532746823,43.98826979472141,141.73998044965788,1661.7790811339198,14.662756598240469,112.41446725317694,4.887585532746823
513.1964809384165,1392.9618768328444,464.3206256109482,166.17790811339196,175.95307917888564,9.775171065493646,0.0
63.53861192570871,73.31378299120234,552.297165200391,14.662756598240469,239.49169110459434,14.662756598240469,205.27859237536657
9.775171065493646,4.887585532746823,127.07722385141741,400.78201368523946,39.100684261974585,48.87585532746823,205.27859237536657
469.208211143695,0.0,14.662756598240469,29.325513196480937,254.15444770283483,63.53861192570871,14.662756598240469
366.5689149560117,229.7165200391007,131.96480938416423,1827.9569892473119,513.1964809384165,58.651026392961874,0.0
43.98826979472141,410.55718475073314,518.0840664711633,68.42619745845552,14.662756598240469,166.17790811339196,53.763440860215056
0.0,29.325513196480937,151.51515151515153,0.0,14.662756598240469,371.4565004887586,268.81720430107526
4.887585532746823,9.775171065493646,395.89442815249265,547.4095796676442,92.86412512218965,29.325513196480937,48.87585532746823
141.73998044965788,4.887585532746823,73.31378299120234,117.30205278592375,244.37927663734115,9.775171065493646,4.887585532746823
43.98826979472141,68.42619745845552,606.0606060606061,107.52688172043011,92.86412512218965,73.31378299120234,14.662756598240469
68.42619745845552,9.775171065493646,24.437927663734115,29.325513196480937,4.887585532746823,141.73998044965788,205.27859237536657
39.100684261974585,117.30205278592375,263.92961876832845,4.887585532746823,0.0,263.92961876832845,190.6158357771261
19.550342130987293,249.26686217008796,464.3206256109482,425.2199413489736,122.18963831867057,117.30205278592375,9.775171065493646
4.887585532746823,175.95307917888564,268.81720430107526,376.3440860215054,307.91788856304987,34.21309872922776,4.887585532746823
474.0957966764418,4.887585532746823,14.662756598240469,303.03030303030306,19.550342130987293,571.8475073313783,29.325513196480937
107.52688172043011,518.0840664711633,151.51515151515153,92.86412512218965,9.775171065493646,68.42619745845552,229.7165200391007
9.775171065493646,219.94134897360706,1089.9315738025416,58.651026392961874,29.325513196480937,43.98826979472141,112.41446725317694
102.63929618768329,14.662756598240469,195.50342130987292,39.100684261974585,83.08895405669598,14.662756598240469,9.775171065493646
4.887585532746823,19.550342130987293,703.8123167155426,0.0,171.0654936461388,0.0,9.775171065493646
19.550342130987293,9.775171065493646,48.87585532746823,1529.8142717497556,146.6275659824047,34.21309872922776,97.75171065493646
58.651026392961874,4.887585532746823,283.47996089931576,303.03030303030306,9.775171065493646,215.05376344086022,254.15444770283483
24.437927663734115,200.39100684261973,757.5757575757576,356.7937438905181,19.550342130987293,273.7047898338221,24.437927663734115
