HandOpen,HandClose,Wrist Flexion,Wrist Extension,Supination,Pronation,Rest
19.550342130987293,0.0,117.30205278592375,122.18963831867057,9.775171065493646,0.0,34.21309872922776
4.887585532746823,4.887585532746823,122.18963831867057,97.75171065493646,9.775171065493646,9.775171065493646,29.325513196480937
9.775171065493646,24.437927663734115,87.97653958944282,107.52688172043011,4.887585532746823,83.08895405669598,29.325513196480937
0.0,107.52688172043011,39.100684261974585,87.97653958944282,4.887585532746823,219.94134897360706,97.75171065493646
24.437927663734115,185.7282502443793,14.662756598240469,39.100684261974585,9.775171065493646,263.92961876832845,200.39100684261973
136.85239491691104,200.39100684261973,4.887585532746823,14.662756598240469,39.100684261974585,239.49169110459434,249.26686217008796
215.05376344086022,161.29032258064515,4.887585532746823,9.775171065493646,122.18963831867057,205.27859237536657,210.16617790811338
239.49169110459434,97.75171065493646,4.887585532746823,0.0,156.40273704789834,161.29032258064515,92.86412512218965
263.92961876832845,39.100684261974585,9.775171065493646,4.887585532746823,131.96480938416423,83.08895405669598,39.100684261974585
268.81720430107526,14.662756598240469,9.775171065493646,4.887585532746823,122.18963831867057,39.100684261974585,14.662756598240469
244.37927663734115,14.662756598240469,58.651026392961874,4.887585532746823,117.30205278592375,19.550342130987293,4.887585532746823
136.85239491691104,4.887585532746823,151.51515151515153,29.325513196480937,78.20136852394917,9.775171065493646,9.775171065493646
58.651026392961874,4.887585532746823,166.17790811339196,92.86412512218965,34.21309872922776,9.775171065493646,4.887585532746823
24.437927663734115,0.0,156.40273704789834,136.85239491691104,19.550342130987293,4.887585532746823,0.0
9.775171065493646,0.0,122.18963831867057,117.30205278592375,4.887585532746823,9.775171065493646,9.775171065493646
0.0,9.775171065493646,117.30205278592375,102.63929618768329,4.887585532746823,4.887585532746823,24.437927663734115
4.887585532746823,24.437927663734115,73.31378299120234,92.86412512218965,4.887585532746823,92.86412512218965,48.87585532746823
9.775171065493646,117.30205278592375,29.325513196480937,73.31378299120234,9.775171065493646,215.05376344086022,141.73998044965788
14.662756598240469,190.6158357771261,9.775171065493646,34.21309872922776,9.775171065493646,298.14271749755625,307.91788856304987
97.75171065493646,205.27859237536657,9.775171065493646,19.550342130987293,53.763440860215056,273.7047898338221,366.5689149560117
200.39100684261973,161.29032258064515,9.775171065493646,4.887585532746823,122.18963831867057,229.7165200391007,293.2551319648094
224.82893450635387,102.63929618768329,0.0,9.775171065493646,151.51515151515153,166.17790811339196,117.30205278592375
239.49169110459434,43.98826979472141,9.775171065493646,4.887585532746823,131.96480938416423,78.20136852394917,48.87585532746823
254.15444770283483,14.662756598240469,9.775171065493646,9.775171065493646,127.07722385141741,29.325513196480937,14.662756598240469
215.05376344086022,9.775171065493646,78.20136852394917,4.887585532746823,112.41446725317694,14.662756598240469,9.775171065493646
112.41446725317694,9.775171065493646,166.17790811339196,24.437927663734115,58.651026392961874,4.887585532746823,9.775171065493646
43.98826979472141,9.775171065493646,180.84066471163246,78.20136852394917,29.325513196480937,4.887585532746823,9.775171065493646
9.775171065493646,9.775171065493646,136.85239491691104,117.30205278592375,4.887585532746823,4.887585532746823,9.775171065493646
4.887585532746823,9.775171065493646,107.52688172043011,112.41446725317694,9.775171065493646,39.100684261974585,73.31378299120234
141.73998044965788,4.887585532746823,4.887585532746823,58.651026392961874,9.775171065493646,283.47996089931576,122.18963831867057
234.6041055718475,156.40273704789834,4.887585532746823,4.887585532746823,131.96480938416423,117.30205278592375,107.52688172043011
39.100684261974585,117.30205278592375,107.52688172043011,4.887585532746823,117.30205278592375,4.887585532746823,4.887585532746823
4.887585532746823,9.775171065493646,185.7282502443793,112.41446725317694,14.662756598240469,9.775171065493646,0.0
0.0,4.887585532746823,19.550342130987293,83.08895405669598,9.775171065493646,166.17790811339196,34.21309872922776
210.16617790811338,14.662756598240469,4.887585532746823,14.662756598240469,29.325513196480937,195.50342130987292,219.94134897360706
254.15444770283483,195.50342130987292,0.0,0.0,185.7282502443793,29.325513196480937,53.763440860215056
29.325513196480937,53.763440860215056,171.0654936461388,19.550342130987293,97.75171065493646,4.887585532746823,0.0
9.775171065493646,4.887585532746823,190.6158357771261,127.07722385141741,4.887585532746823,9.775171065493646,53.763440860215056
29.325513196480937,4.887585532746823,14.662756598240469,83.08895405669598,9.775171065493646,278.5923753665689,151.51515151515153
210.16617790811338,87.97653958944282,9.775171065493646,14.662756598240469,63.53861192570871,136.85239491691104,107.52688172043011
200.39100684261973,166.17790811339196,48.87585532746823,9.775171065493646,112.41446725317694,9.775171065493646,4.887585532746823
14.662756598240469,19.550342130987293,107.52688172043011,68.42619745845552,19.550342130987293,0.0,0.0
4.887585532746823,9.775171065493646,39.100684261974585,112.41446725317694,4.887585532746823,63.53861192570871,53.763440860215056
122.18963831867057,9.775171065493646,0.0,34.21309872922776,4.887585532746823,249.26686217008796,239.49169110459434
263.92961876832845,161.29032258064515,4.887585532746823,9.775171065493646,117.30205278592375,48.87585532746823,24.437927663734115
43.98826979472141,107.52688172043011,180.84066471163246,4.887585532746823,127.07722385141741,0.0,0.0
9.775171065493646,14.662756598240469,171.0654936461388,117.30205278592375,4.887585532746823,14.662756598240469,78.20136852394917
9.775171065493646,0.0,24.437927663734115,97.75171065493646,9.775171065493646,273.7047898338221,127.07722385141741
195.50342130987292,14.662756598240469,9.775171065493646,9.775171065493646,14.662756598240469,171.0654936461388,112.41446725317694
244.37927663734115,205.27859237536657,4.887585532746823,0.0,175.95307917888564,9.775171065493646,0.0
29.325513196480937,53.763440860215056,161.29032258064515,9.775171065493646,102.63929618768329,9.775171065493646,4.887585532746823
0.0,0.0,127.07722385141741,136.85239491691104,9.775171065493646,68.42619745845552,39.100684261974585
34.21309872922776,9.775171065493646,19.550342130987293,92.86412512218965,0.0,244.37927663734115,215.05376344086022
215.05376344086022,78.20136852394917,4.887585532746823,9.775171065493646,73.31378299120234,43.98826979472141,48.87585532746823
205.27859237536657,156.40273704789834,24.437927663734115,0.0,117.30205278592375,4.887585532746823,4.887585532746823
14.662756598240469,14.662756598240469,131.96480938416423,58.651026392961874,24.437927663734115,0.0,39.100684261974585
4.887585532746823,0.0,112.41446725317694,131.96480938416423,4.887585532746823,190.6158357771261,92.86412512218965
117.30205278592375,0.0,14.662756598240469,24.437927663734115,4.887585532746823,200.39100684261973,229.7165200391007
263.92961876832845,146.6275659824047,0.0,4.887585532746823,146.6275659824047,29.325513196480937,14.662756598240469
53.763440860215056,102.63929618768329,83.08895405669598,4.887585532746823,107.52688172043011,4.887585532746823,9.775171065493646
4.887585532746823,9.775171065493646,122.18963831867057,122.18963831867057,19.550342130987293,0.0,34.21309872922776
39.100684261974585,4.887585532746823,29.325513196480937,122.18963831867057,0.0,224.82893450635387,141.73998044965788
219.94134897360706,9.775171065493646,4.887585532746823,14.662756598240469,24.437927663734115,171.0654936461388,117.30205278592375
205.27859237536657,190.6158357771261,0.0,4.887585532746823,151.51515151515153,14.662756598240469,9.775171065493646
4.887585532746823,53.763440860215056,200.39100684261973,0.0,107.52688172043011,0.0,4.887585532746823
0.0,0.0,151.51515151515153,131.96480938416423,14.662756598240469,39.100684261974585,39.100684261974585
122.18963831867057,4.887585532746823,14.662756598240469,102.63929618768329,0.0,263.92961876832845,205.27859237536657
278.5923753665689,83.08895405669598,9.775171065493646,9.775171065493646,63.53861192570871,107.52688172043011,48.87585532746823
53.763440860215056,161.29032258064515,29.325513196480937,0.0,117.30205278592375,4.887585532746823,4.887585532746823
4.887585532746823,4.887585532746823,92.86412512218965,48.87585532746823,24.437927663734115,0.0,34.21309872922776
34.21309872922776,0.0,127.07722385141741,107.52688172043011,0.0,185.7282502443793,73.31378299120234
244.37927663734115,4.887585532746823,19.550342130987293,58.651026392961874,4.887585532746823,210.16617790811338,219.94134897360706
200.39100684261973,146.6275659824047,4.887585532746823,0.0,141.73998044965788,24.437927663734115,9.775171065493646
14.662756598240469,117.30205278592375,92.86412512218965,4.887585532746823,117.30205278592375,4.887585532746823,4.887585532746823
9.775171065493646,9.775171065493646,151.51515151515153,136.85239491691104,9.775171065493646,0.0,63.53861192570871
131.96480938416423,9.775171065493646,14.662756598240469,97.75171065493646,0.0,244.37927663734115,215.05376344086022
259.04203323558164,4.887585532746823,4.887585532746823,4.887585532746823,4.887585532746823,171.0654936461388,58.651026392961874
43.98826979472141,190.6158357771261,4.887585532746823,9.775171065493646,156.40273704789834,9.775171065493646,4.887585532746823
9.775171065493646,58.651026392961874,175.95307917888564,53.763440860215056,97.75171065493646,0.0,29.325513196480937
0.0,9.775171065493646,112.41446725317694,102.63929618768329,9.775171065493646,43.98826979472141,83.08895405669598
185.7282502443793,0.0,4.887585532746823,39.100684261974585,0.0,303.03030303030306,175.95307917888564
239.49169110459434,63.53861192570871,4.887585532746823,9.775171065493646,68.42619745845552,117.30205278592375,4.887585532746823
29.325513196480937,161.29032258064515,83.08895405669598,9.775171065493646,146.6275659824047,4.887585532746823,0.0
4.887585532746823,9.775171065493646,175.95307917888564,92.86412512218965,29.325513196480937,0.0,97.75171065493646
34.21309872922776,0.0,39.100684261974585,122.18963831867057,4.887585532746823,136.85239491691104,210.16617790811338
215.05376344086022,0.0,9.775171065493646,14.662756598240469,0.0,195.50342130987292,58.651026392961874
195.50342130987292,141.73998044965788,4.887585532746823,0.0,141.73998044965788,24.437927663734115,0.0
4.887585532746823,127.07722385141741,146.6275659824047,0.0,92.86412512218965,9.775171065493646,34.21309872922776
9.775171065493646,4.887585532746823,161.29032258064515,146.6275659824047,14.662756598240469,0.0,58.651026392961874
122.18963831867057,0.0,24.437927663734115,87.97653958944282,4.887585532746823,239.49169110459434,254.15444770283483
259.04203323558164,4.887585532746823,4.887585532746823,4.887585532746823,9.775171065493646,175.95307917888564,14.662756598240469
48.87585532746823,190.6158357771261,4.887585532746823,0.0,175.95307917888564,14.662756598240469,9.775171065493646
9.775171065493646,58.651026392961874,185.7282502443793,78.20136852394917,117.30205278592375,0.0,83.08895405669598
39.100684261974585,9.775171065493646,131.96480938416423,112.41446725317694,4.887585532746823,63.53861192570871,200.39100684261973
244.37927663734115,4.887585532746823,14.662756598240469,73.31378299120234,4.887585532746823,263.92961876832845,53.763440860215056
205.27859237536657,68.42619745845552,9.775171065493646,4.887585532746823,87.97653958944282,53.763440860215056,0.0
9.775171065493646,146.6275659824047,53.763440860215056,0.0,136.85239491691104,4.887585532746823,24.437927663734115
0.0,14.662756598240469,161.29032258064515,146.6275659824047,39.100684261974585,0.0,117.30205278592375
122.18963831867057,9.775171065493646,48.87585532746823,185.7282502443793,9.775171065493646,259.04203323558164,244.37927663734115
259.04203323558164,0.0,4.887585532746823,9.775171065493646,4.887585532746823,175.95307917888564,9.775171065493646
53.763440860215056,131.96480938416423,0.0,9.775171065493646,141.73998044965788,9.775171065493646,14.662756598240469
0.0,102.63929618768329,175.95307917888564,63.53861192570871,107.52688172043011,9.775171065493646,68.42619745845552
19.550342130987293,9.775171065493646,102.63929618768329,87.97653958944282,14.662756598240469,48.87585532746823,215.05376344086022
239.49169110459434,4.887585532746823,9.775171065493646,73.31378299120234,0.0,234.6041055718475,63.53861192570871
210.16617790811338,14.662756598240469,4.887585532746823,14.662756598240469,14.662756598240469,43.98826979472141,4.887585532746823
9.775171065493646,171.0654936461388,19.550342130987293,14.662756598240469,161.29032258064515,4.887585532746823,48.87585532746823
9.775171065493646,58.651026392961874,180.84066471163246,107.52688172043011,102.63929618768329,4.887585532746823,141.73998044965788
122.18963831867057,4.887585532746823,107.52688172043011,78.20136852394917,14.662756598240469,166.17790811339196,117.30205278592375
268.81720430107526,0.0,14.662756598240469,39.100684261974585,0.0,190.6158357771261,9.775171065493646
58.651026392961874,63.53861192570871,0.0,9.775171065493646,63.53861192570871,19.550342130987293,0.0
4.887585532746823,161.29032258064515,112.41446725317694,63.53861192570871,131.96480938416423,4.887585532746823,63.53861192570871
9.775171065493646,4.887585532746823,146.6275659824047,122.18963831867057,29.325513196480937,4.887585532746823,234.6041055718475
229.7165200391007,9.775171065493646,43.98826979472141,83.08895405669598,9.775171065493646,249.26686217008796,24.437927663734115
215.05376344086022,0.0,14.662756598240469,9.775171065493646,0.0,190.6158357771261,4.887585532746823
9.775171065493646,136.85239491691104,4.887585532746823,4.887585532746823,102.63929618768329,9.775171065493646,29.325513196480937
4.887585532746823,117.30205278592375,141.73998044965788,122.18963831867057,127.07722385141741,0.0,68.42619745845552
107.52688172043011,4.887585532746823,156.40273704789834,83.08895405669598,19.550342130987293,53.763440860215056,259.04203323558164
263.92961876832845,0.0,24.437927663734115,4.887585532746823,0.0,254.15444770283483,14.662756598240469
53.763440860215056,9.775171065493646,0.0,0.0,4.887585532746823,48.87585532746823,0.0
0.0,195.50342130987292,24.437927663734115,48.87585532746823,190.6158357771261,9.775171065493646,83.08895405669598
24.437927663734115,53.763440860215056,151.51515151515153,102.63929618768329,97.75171065493646,0.0,210.16617790811338
229.7165200391007,9.775171065493646,92.86412512218965,34.21309872922776,14.662756598240469,263.92961876832845,53.763440860215056
219.94134897360706,0.0,4.887585532746823,9.775171065493646,0.0,171.0654936461388,4.887585532746823
14.662756598240469,63.53861192570871,0.0,0.0,87.97653958944282,9.775171065493646,9.775171065493646
0.0,166.17790811339196,117.30205278592375,102.63929618768329,107.52688172043011,4.887585532746823,83.08895405669598
112.41446725317694,14.662756598240469,141.73998044965788,107.52688172043011,19.550342130987293,48.87585532746823,249.26686217008796
268.81720430107526,4.887585532746823,24.437927663734115,14.662756598240469,0.0,254.15444770283483,14.662756598240469
53.763440860215056,4.887585532746823,9.775171065493646,0.0,0.0,58.651026392961874,4.887585532746823
9.775171065493646,151.51515151515153,9.775171065493646,4.887585532746823,127.07722385141741,4.887585532746823,68.42619745845552
14.662756598240469,122.18963831867057,131.96480938416423,117.30205278592375,131.96480938416423,0.0,215.05376344086022
234.6041055718475,9.775171065493646,141.73998044965788,102.63929618768329,19.550342130987293,234.6041055718475,68.42619745845552
210.16617790811338,0.0,9.775171065493646,9.775171065493646,9.775171065493646,166.17790811339196,9.775171065493646
9.775171065493646,4.887585532746823,4.887585532746823,9.775171065493646,4.887585532746823,19.550342130987293,19.550342130987293
4.887585532746823,190.6158357771261,73.31378299120234,53.763440860215056,175.95307917888564,0.0,73.31378299120234
112.41446725317694,63.53861192570871,146.6275659824047,112.41446725317694,122.18963831867057,73.31378299120234,219.94134897360706
278.5923753665689,0.0,34.21309872922776,39.100684261974585,9.775171065493646,283.47996089931576,14.662756598240469
58.651026392961874,0.0,4.887585532746823,9.775171065493646,4.887585532746823,39.100684261974585,0.0
4.887585532746823,53.763440860215056,0.0,9.775171065493646,53.763440860215056,4.887585532746823,78.20136852394917
24.437927663734115,156.40273704789834,92.86412512218965,131.96480938416423,146.6275659824047,4.887585532746823,185.7282502443793
244.37927663734115,14.662756598240469,87.97653958944282,102.63929618768329,29.325513196480937,151.51515151515153,73.31378299120234
229.7165200391007,0.0,9.775171065493646,14.662756598240469,9.775171065493646,219.94134897360706,0.0
4.887585532746823,9.775171065493646,9.775171065493646,0.0,4.887585532746823,34.21309872922776,29.325513196480937
0.0,127.07722385141741,0.0,14.662756598240469,141.73998044965788,0.0,68.42619745845552
112.41446725317694,127.07722385141741,141.73998044965788,141.73998044965788,117.30205278592375,9.775171065493646,229.7165200391007
278.5923753665689,9.775171065493646,112.41446725317694,107.52688172043011,14.662756598240469,273.7047898338221,14.662756598240469
48.87585532746823,4.887585532746823,4.887585532746823,9.775171065493646,9.775171065493646,171.0654936461388,0.0
0.0,9.775171065493646,9.775171065493646,9.775171065493646,14.662756598240469,14.662756598240469,87.97653958944282
14.662756598240469,195.50342130987292,4.887585532746823,53.763440860215056,166.17790811339196,9.775171065493646,210.16617790811338
249.26686217008796,63.53861192570871,166.17790811339196,107.52688172043011,83.08895405669598,48.87585532746823,68.42619745845552
205.27859237536657,4.887585532746823,87.97653958944282,39.100684261974585,4.887585532746823,268.81720430107526,0.0
9.775171065493646,4.887585532746823,9.775171065493646,9.775171065493646,0.0,63.53861192570871,29.325513196480937
4.887585532746823,53.763440860215056,9.775171065493646,0.0,78.20136852394917,9.775171065493646,58.651026392961874
97.75171065493646,161.29032258064515,83.08895405669598,107.52688172043011,127.07722385141741,4.887585532746823,224.82893450635387
283.47996089931576,14.662756598240469,107.52688172043011,102.63929618768329,48.87585532746823,244.37927663734115,14.662756598240469
63.53861192570871,4.887585532746823,24.437927663734115,24.437927663734115,9.775171065493646,185.7282502443793,4.887585532746823
0.0,0.0,4.887585532746823,0.0,14.662756598240469,9.775171065493646,68.42619745845552
19.550342130987293,131.96480938416423,0.0,4.887585532746823,190.6158357771261,0.0,185.7282502443793
239.49169110459434,136.85239491691104,200.39100684261973,141.73998044965788,112.41446725317694,58.651026392961874,73.31378299120234
195.50342130987292,14.662756598240469,127.07722385141741,97.75171065493646,9.775171065493646,268.81720430107526,0.0
9.775171065493646,4.887585532746823,24.437927663734115,14.662756598240469,4.887585532746823,63.53861192570871,14.662756598240469
9.775171065493646,4.887585532746823,4.887585532746823,9.775171065493646,58.651026392961874,9.775171065493646,68.42619745845552
127.07722385141741,190.6158357771261,14.662756598240469,39.100684261974585,151.51515151515153,9.775171065493646,234.6041055718475
259.04203323558164,68.42619745845552,117.30205278592375,131.96480938416423,43.98826979472141,244.37927663734115,14.662756598240469
48.87585532746823,0.0,141.73998044965788,73.31378299120234,4.887585532746823,190.6158357771261,9.775171065493646
4.887585532746823,0.0,14.662756598240469,0.0,9.775171065493646,19.550342130987293,83.08895405669598
4.887585532746823,39.100684261974585,0.0,4.887585532746823,112.41446725317694,9.775171065493646,190.6158357771261
527.8592375366569,210.16617790811338,87.97653958944282,92.86412512218965,107.52688172043011,48.87585532746823,63.53861192570871
215.05376344086022,34.21309872922776,117.30205278592375,102.63929618768329,24.437927663734115,239.49169110459434,9.775171065493646
14.662756598240469,0.0,24.437927663734115,19.550342130987293,4.887585532746823,58.651026392961874,9.775171065493646
4.887585532746823,9.775171065493646,4.887585532746823,4.887585532746823,9.775171065493646,4.887585532746823,83.08895405669598
175.95307917888564,39.100684261974585,4.887585532746823,4.887585532746823,151.51515151515153,9.775171065493646,244.37927663734115
244.37927663734115,215.05376344086022,136.85239491691104,122.18963831867057,107.52688172043011,229.7165200391007,14.662756598240469
24.437927663734115,34.21309872922776,87.97653958944282,87.97653958944282,4.887585532746823,180.84066471163246,0.0
4.887585532746823,14.662756598240469,9.775171065493646,19.550342130987293,4.887585532746823,14.662756598240469,68.42619745845552
9.775171065493646,4.887585532746823,4.887585532746823,0.0,53.763440860215056,4.887585532746823,161.29032258064515
146.6275659824047,34.21309872922776,29.325513196480937,43.98826979472141,141.73998044965788,43.98826979472141,78.20136852394917
224.82893450635387,200.39100684261973,127.07722385141741,117.30205278592375,34.21309872922776,293.2551319648094,0.0
14.662756598240469,39.100684261974585,92.86412512218965,63.53861192570871,4.887585532746823,131.96480938416423,24.437927663734115
4.887585532746823,14.662756598240469,4.887585532746823,0.0,9.775171065493646,4.887585532746823,83.08895405669598
92.86412512218965,4.887585532746823,4.887585532746823,4.887585532746823,112.41446725317694,0.0,229.7165200391007
244.37927663734115,34.21309872922776,107.52688172043011,102.63929618768329,185.7282502443793,136.85239491691104,19.550342130987293
63.53861192570871,210.16617790811338,180.84066471163246,97.75171065493646,19.550342130987293,259.04203323558164,0.0
4.887585532746823,29.325513196480937,19.550342130987293,29.325513196480937,9.775171065493646,39.100684261974585,107.52688172043011
9.775171065493646,9.775171065493646,9.775171065493646,9.775171065493646,9.775171065493646,4.887585532746823,175.95307917888564
215.05376344086022,9.775171065493646,9.775171065493646,78.20136852394917,151.51515151515153,4.887585532746823,73.31378299120234
200.39100684261973,43.98826979472141,136.85239491691104,254.15444770283483,102.63929618768329,234.6041055718475,9.775171065493646
19.550342130987293,195.50342130987292,229.7165200391007,151.51515151515153,4.887585532746823,200.39100684261973,9.775171065493646
9.775171065493646,29.325513196480937,34.21309872922776,9.775171065493646,4.887585532746823,14.662756598240469,78.20136852394917
63.53861192570871,4.887585532746823,4.887585532746823,58.651026392961874,53.763440860215056,0.0,151.51515151515153
249.26686217008796,4.887585532746823,4.887585532746823,58.651026392961874,102.63929618768329,43.98826979472141,14.662756598240469
58.651026392961874,39.100684261974585,156.40273704789834,78.20136852394917,29.325513196480937,293.2551319648094,4.887585532746823
14.662756598240469,205.27859237536657,112.41446725317694,14.662756598240469,4.887585532746823,102.63929618768329,73.31378299120234
39.100684261974585,24.437927663734115,9.775171065493646,4.887585532746823,0.0,9.775171065493646,161.29032258064515
239.49169110459434,9.775171065493646,0.0,29.325513196480937,122.18963831867057,9.775171065493646,97.75171065493646
224.82893450635387,9.775171065493646,83.08895405669598,190.6158357771261,136.85239491691104,127.07722385141741,9.775171065493646
19.550342130987293,34.21309872922776,136.85239491691104,63.53861192570871,9.775171065493646,224.82893450635387,0.0
0.0,195.50342130987292,34.21309872922776,141.73998044965788,4.887585532746823,29.325513196480937,19.550342130987293
83.08895405669598,39.100684261974585,9.775171065493646,4.887585532746823,4.887585532746823,9.775171065493646,303.03030303030306
239.49169110459434,9.775171065493646,0.0,219.94134897360706,161.29032258064515,0.0,43.98826979472141
63.53861192570871,0.0,131.96480938416423,288.36754643206257,112.41446725317694,239.49169110459434,4.887585532746823
9.775171065493646,34.21309872922776,131.96480938416423,34.21309872922776,14.662756598240469,185.7282502443793,14.662756598240469
4.887585532746823,195.50342130987292,19.550342130987293,4.887585532746823,9.775171065493646,19.550342130987293,83.08895405669598
215.05376344086022,34.21309872922776,4.887585532746823,68.42619745845552,48.87585532746823,9.775171065493646,219.94134897360706
229.7165200391007,4.887585532746823,14.662756598240469,190.6158357771261,127.07722385141741,43.98826979472141,9.775171065493646
19.550342130987293,9.775171065493646,205.27859237536657,122.18963831867057,48.87585532746823,259.04203323558164,4.887585532746823
4.887585532746823,29.325513196480937,146.6275659824047,9.775171065493646,4.887585532746823,122.18963831867057,78.20136852394917
68.42619745845552,200.39100684261973,14.662756598240469,53.763440860215056,9.775171065493646,9.775171065493646,156.40273704789834
249.26686217008796,34.21309872922776,4.887585532746823,180.84066471163246,180.84066471163246,0.0,107.52688172043011
68.42619745845552,9.775171065493646,73.31378299120234,53.763440860215056,102.63929618768329,131.96480938416423,0.0
9.775171065493646,4.887585532746823,107.52688172043011,161.29032258064515,4.887585532746823,210.16617790811338,9.775171065493646
4.887585532746823,29.325513196480937,19.550342130987293,4.887585532746823,0.0,29.325513196480937,78.20136852394917
205.27859237536657,200.39100684261973,9.775171065493646,87.97653958944282,58.651026392961874,9.775171065493646,249.26686217008796
205.27859237536657,39.100684261974585,0.0,97.75171065493646,136.85239491691104,9.775171065493646,19.550342130987293
14.662756598240469,14.662756598240469,146.6275659824047,9.775171065493646,34.21309872922776,244.37927663734115,4.887585532746823
4.887585532746823,0.0,87.97653958944282,4.887585532746823,4.887585532746823,175.95307917888564,63.53861192570871
48.87585532746823,34.21309872922776,19.550342130987293,68.42619745845552,9.775171065493646,14.662756598240469,151.51515151515153
229.7165200391007,215.05376344086022,4.887585532746823,180.84066471163246,117.30205278592375,4.887585532746823,87.97653958944282
63.53861192570871,39.100684261974585,19.550342130987293,107.52688172043011,117.30205278592375,39.100684261974585,0.0
9.775171065493646,0.0,180.84066471163246,29.325513196480937,19.550342130987293,273.7047898338221,4.887585532746823
24.437927663734115,0.0,87.97653958944282,9.775171065493646,9.775171065493646,131.96480938416423,68.42619745845552
224.82893450635387,34.21309872922776,4.887585532746823,83.08895405669598,14.662756598240469,4.887585532746823,254.15444770283483
234.6041055718475,200.39100684261973,0.0,92.86412512218965,171.0654936461388,4.887585532746823,19.550342130987293
19.550342130987293,39.100684261974585,63.53861192570871,9.775171065493646,78.20136852394917,141.73998044965788,4.887585532746823
0.0,14.662756598240469,141.73998044965788,63.53861192570871,4.887585532746823,224.82893450635387,63.53861192570871
58.651026392961874,4.887585532746823,39.100684261974585,92.86412512218965,4.887585532746823,29.325513196480937,141.73998044965788
239.49169110459434,29.325513196480937,4.887585532746823,68.42619745845552,83.08895405669598,9.775171065493646,83.08895405669598
73.31378299120234,210.16617790811338,9.775171065493646,19.550342130987293,117.30205278592375,4.887585532746823,4.887585532746823
4.887585532746823,34.21309872922776,141.73998044965788,0.0,29.325513196480937,234.6041055718475,9.775171065493646
9.775171065493646,0.0,131.96480938416423,4.887585532746823,9.775171065493646,229.7165200391007,43.98826979472141
215.05376344086022,4.887585532746823,14.662756598240469,122.18963831867057,0.0,14.662756598240469,278.5923753665689
234.6041055718475,29.325513196480937,4.887585532746823,97.75171065493646,131.96480938416423,0.0,43.98826979472141
19.550342130987293,210.16617790811338,39.100684261974585,4.887585532746823,122.18963831867057,14.662756598240469,9.775171065493646
4.887585532746823,39.100684261974585,171.0654936461388,4.887585532746823,19.550342130987293,273.7047898338221,9.775171065493646
58.651026392961874,9.775171065493646,112.41446725317694,14.662756598240469,9.775171065493646,122.18963831867057,48.87585532746823
239.49169110459434,0.0,4.887585532746823,117.30205278592375,0.0,4.887585532746823,268.81720430107526
92.86412512218965,34.21309872922776,0.0,87.97653958944282,175.95307917888564,0.0,19.550342130987293
0.0,190.6158357771261,83.08895405669598,9.775171065493646,136.85239491691104,141.73998044965788,9.775171065493646
4.887585532746823,39.100684261974585,156.40273704789834,4.887585532746823,14.662756598240469,263.92961876832845,53.763440860215056
210.16617790811338,0.0,24.437927663734115,122.18963831867057,4.887585532746823,34.21309872922776,156.40273704789834
234.6041055718475,0.0,4.887585532746823,615.8357771260997,63.53861192570871,4.887585532746823,92.86412512218965
19.550342130987293,39.100684261974585,0.0,14.662756598240469,141.73998044965788,9.775171065493646,9.775171065493646
9.775171065493646,195.50342130987292,151.51515151515153,4.887585532746823,34.21309872922776,239.49169110459434,4.887585532746823
48.87585532746823,29.325513196480937,200.39100684261973,78.20136852394917,4.887585532746823,180.84066471163246,53.763440860215056
239.49169110459434,4.887585532746823,29.325513196480937,87.97653958944282,4.887585532746823,9.775171065493646,283.47996089931576
83.08895405669598,9.775171065493646,9.775171065493646,34.21309872922776,112.41446725317694,0.0,24.437927663734115
0.0,29.325513196480937,9.775171065493646,4.887585532746823,112.41446725317694,39.100684261974585,4.887585532746823
4.887585532746823,205.27859237536657,156.40273704789834,19.550342130987293,19.550342130987293,283.47996089931576,48.87585532746823
205.27859237536657,34.21309872922776,131.96480938416423,596.2854349951125,4.887585532746823,146.6275659824047,146.6275659824047
244.37927663734115,9.775171065493646,9.775171065493646,24.437927663734115,4.887585532746823,4.887585532746823,112.41446725317694
24.437927663734115,9.775171065493646,4.887585532746823,14.662756598240469,161.29032258064515,4.887585532746823,9.775171065493646
9.775171065493646,24.437927663734115,48.87585532746823,4.887585532746823,112.41446725317694,131.96480938416423,4.887585532746823
48.87585532746823,215.05376344086022,127.07722385141741,9.775171065493646,4.887585532746823,215.05376344086022,34.21309872922776
259.04203323558164,39.100684261974585,48.87585532746823,127.07722385141741,0.0,39.100684261974585,175.95307917888564
92.86412512218965,4.887585532746823,4.887585532746823,161.29032258064515,83.08895405669598,4.887585532746823,48.87585532746823
4.887585532746823,4.887585532746823,29.325513196480937,24.437927663734115,127.07722385141741,0.0,0.0
0.0,24.437927663734115,180.84066471163246,4.887585532746823,43.98826979472141,224.82893450635387,19.550342130987293
219.94134897360706,210.16617790811338,117.30205278592375,87.97653958944282,9.775171065493646,200.39100684261973,112.41446725317694
263.92961876832845,43.98826979472141,9.775171065493646,83.08895405669598,9.775171065493646,24.437927663734115,283.47996089931576
29.325513196480937,4.887585532746823,4.887585532746823,967.741935483871,73.31378299120234,0.0,4.887585532746823
0.0,4.887585532746823,107.52688172043011,19.550342130987293,151.51515151515153,43.98826979472141,0.0
53.763440860215056,24.437927663734115,141.73998044965788,141.73998044965788,24.437927663734115,288.36754643206257,112.41446725317694
239.49169110459434,205.27859237536657,34.21309872922776,48.87585532746823,0.0,151.51515151515153,219.94134897360706
97.75171065493646,39.100684261974585,4.887585532746823,9.775171065493646,4.887585532746823,9.775171065493646,53.763440860215056
4.887585532746823,4.887585532746823,9.775171065493646,0.0,171.0654936461388,4.887585532746823,0.0
4.887585532746823,4.887585532746823,102.63929618768329,58.651026392961874,102.63929618768329,122.18963831867057,34.21309872922776
215.05376344086022,24.437927663734115,171.0654936461388,127.07722385141741,4.887585532746823,249.26686217008796,83.08895405669598
229.7165200391007,200.39100684261973,39.100684261974585,537.6344086021505,4.887585532746823,43.98826979472141,254.15444770283483
19.550342130987293,43.98826979472141,4.887585532746823,73.31378299120234,34.21309872922776,0.0,14.662756598240469
0.0,9.775171065493646,19.550342130987293,19.550342130987293,161.29032258064515,0.0,0.0
39.100684261974585,0.0,156.40273704789834,68.42619745845552,83.08895405669598,215.05376344086022,78.20136852394917
219.94134897360706,24.437927663734115,107.52688172043011,83.08895405669598,0.0,190.6158357771261,229.7165200391007
195.50342130987292,195.50342130987292,14.662756598240469,131.96480938416423,9.775171065493646,14.662756598240469,58.651026392961874
9.775171065493646,34.21309872922776,4.887585532746823,9.775171065493646,97.75171065493646,0.0,4.887585532746823
0.0,9.775171065493646,43.98826979472141,757.5757575757576,102.63929618768329,24.437927663734115,43.98826979472141
156.40273704789834,0.0,151.51515151515153,58.651026392961874,14.662756598240469,278.5923753665689,73.31378299120234
254.15444770283483,34.21309872922776,48.87585532746823,317.6930596285435,9.775171065493646,112.41446725317694,263.92961876832845
43.98826979472141,205.27859237536657,0.0,43.98826979472141,9.775171065493646,9.775171065493646,9.775171065493646
0.0,48.87585532746823,9.775171065493646,19.550342130987293,190.6158357771261,4.887585532746823,4.887585532746823
9.775171065493646,9.775171065493646,112.41446725317694,78.20136852394917,87.97653958944282,107.52688172043011,87.97653958944282
234.6041055718475,4.887585532746823,102.63929618768329,215.05376344086022,9.775171065493646,244.37927663734115,219.94134897360706
244.37927663734115,92.86412512218965,14.662756598240469,9.775171065493646,9.775171065493646,34.21309872922776,68.42619745845552
19.550342130987293,151.51515151515153,4.887585532746823,899.3157380254155,83.08895405669598,4.887585532746823,9.775171065493646
9.775171065493646,9.775171065493646,14.662756598240469,24.437927663734115,117.30205278592375,0.0,39.100684261974585
39.100684261974585,4.887585532746823,180.84066471163246,1446.7253176930597,39.100684261974585,210.16617790811338,63.53861192570871
219.94134897360706,4.887585532746823,83.08895405669598,43.98826979472141,4.887585532746823,175.95307917888564,259.04203323558164
190.6158357771261,171.0654936461388,9.775171065493646,337.2434017595308,4.887585532746823,19.550342130987293,9.775171065493646
4.887585532746823,87.97653958944282,0.0,63.53861192570871,107.52688172043011,9.775171065493646,0.0
4.887585532746823,14.662756598240469,9.775171065493646,293.2551319648094,127.07722385141741,39.100684261974585,58.651026392961874
136.85239491691104,4.887585532746823,97.75171065493646,43.98826979472141,14.662756598240469,278.5923753665689,210.16617790811338
259.04203323558164,19.550342130987293,43.98826979472141,9.775171065493646,4.887585532746823,151.51515151515153,58.651026392961874
43.98826979472141,195.50342130987292,4.887585532746823,58.651026392961874,9.775171065493646,9.775171065493646,9.775171065493646
0.0,34.21309872922776,0.0,102.63929618768329,166.17790811339196,0.0,58.651026392961874
9.775171065493646,9.775171065493646,34.21309872922776,24.437927663734115,102.63929618768329,166.17790811339196,151.51515151515153
200.39100684261973,4.887585532746823,131.96480938416423,4.887585532746823,9.775171065493646,224.82893450635387,146.6275659824047
249.26686217008796,19.550342130987293,73.31378299120234,9.775171065493646,4.887585532746823,34.21309872922776,9.775171065493646
19.550342130987293,190.6158357771261,4.887585532746823,131.96480938416423,63.53861192570871,9.775171065493646,0.0
0.0,39.100684261974585,0.0,102.63929618768329,127.07722385141741,9.775171065493646,53.763440860215056
39.100684261974585,9.775171065493646,131.96480938416423,9.775171065493646,48.87585532746823,224.82893450635387,254.15444770283483
239.49169110459434,4.887585532746823,112.41446725317694,9.775171065493646,0.0,200.39100684261973,24.437927663734115
190.6158357771261,24.437927663734115,14.662756598240469,14.662756598240469,9.775171065493646,24.437927663734115,0.0
4.887585532746823,205.27859237536657,4.887585532746823,127.07722385141741,156.40273704789834,9.775171065493646,53.763440860215056
4.887585532746823,43.98826979472141,9.775171065493646,83.08895405669598,102.63929618768329,29.325513196480937,127.07722385141741
127.07722385141741,9.775171065493646,102.63929618768329,9.775171065493646,9.775171065493646,307.91788856304987,141.73998044965788
254.15444770283483,0.0,151.51515151515153,200.39100684261973,4.887585532746823,122.18963831867057,9.775171065493646
48.87585532746823,9.775171065493646,19.550342130987293,92.86412512218965,24.437927663734115,4.887585532746823,4.887585532746823
4.887585532746823,200.39100684261973,0.0,78.20136852394917,136.85239491691104,0.0,53.763440860215056
39.100684261974585,53.763440860215056,24.437927663734115,4.887585532746823,63.53861192570871,131.96480938416423,259.04203323558164
244.37927663734115,4.887585532746823,117.30205278592375,0.0,0.0,239.49169110459434,19.550342130987293
200.39100684261973,4.887585532746823,107.52688172043011,175.95307917888564,9.775171065493646,43.98826979472141,0.0
14.662756598240469,87.97653958944282,9.775171065493646,351.9061583577713,117.30205278592375,4.887585532746823,14.662756598240469
0.0,156.40273704789834,0.0,24.437927663734115,127.07722385141741,4.887585532746823,78.20136852394917
122.18963831867057,9.775171065493646,171.0654936461388,63.53861192570871,14.662756598240469,224.82893450635387,298.14271749755625
263.92961876832845,9.775171065493646,92.86412512218965,9.775171065493646,4.887585532746823,195.50342130987292,24.437927663734115
39.100684261974585,0.0,14.662756598240469,92.86412512218965,0.0,19.550342130987293,9.775171065493646
4.887585532746823,161.29032258064515,4.887585532746823,78.20136852394917,156.40273704789834,9.775171065493646,97.75171065493646
4.887585532746823,107.52688172043011,4.887585532746823,9.775171065493646,97.75171065493646,39.100684261974585,229.7165200391007
224.82893450635387,4.887585532746823,141.73998044965788,234.6041055718475,4.887585532746823,278.5923753665689,63.53861192570871
254.15444770283483,4.887585532746823,131.96480938416423,24.437927663734115,4.887585532746823,131.96480938416423,0.0
19.550342130987293,14.662756598240469,14.662756598240469,68.42619745845552,43.98826979472141,9.775171065493646,48.87585532746823
0.0,200.39100684261973,0.0,34.21309872922776,141.73998044965788,0.0,107.52688172043011
34.21309872922776,43.98826979472141,39.100684261974585,4.887585532746823,83.08895405669598,127.07722385141741,161.29032258064515
249.26686217008796,9.775171065493646,136.85239491691104,9.775171065493646,9.775171065493646,224.82893450635387,9.775171065493646
200.39100684261973,9.775171065493646,102.63929618768329,63.53861192570871,0.0,24.437927663734115,0.0
9.775171065493646,19.550342130987293,4.887585532746823,92.86412512218965,92.86412512218965,0.0,43.98826979472141
0.0,175.95307917888564,0.0,19.550342130987293,117.30205278592375,4.887585532746823,180.84066471163246
127.07722385141741,39.100684261974585,146.6275659824047,4.887585532746823,19.550342130987293,229.7165200391007,73.31378299120234
278.5923753665689,4.887585532746823,156.40273704789834,4.887585532746823,4.887585532746823,171.0654936461388,9.775171065493646
48.87585532746823,0.0,24.437927663734115,127.07722385141741,4.887585532746823,14.662756598240469,29.325513196480937
0.0,19.550342130987293,4.887585532746823,102.63929618768329,156.40273704789834,9.775171065493646,58.651026392961874
19.550342130987293,175.95307917888564,9.775171065493646,9.775171065493646,107.52688172043011,29.325513196480937,234.6041055718475
239.49169110459434,39.100684261974585,151.51515151515153,0.0,14.662756598240469,249.26686217008796,9.775171065493646
219.94134897360706,9.775171065493646,117.30205278592375,43.98826979472141,9.775171065493646,146.6275659824047,4.887585532746823
14.662756598240469,0.0,14.662756598240469,97.75171065493646,24.437927663734115,4.887585532746823,97.75171065493646
4.887585532746823,4.887585532746823,4.887585532746823,43.98826979472141,171.0654936461388,4.887585532746823,200.39100684261973
127.07722385141741,205.27859237536657,73.31378299120234,14.662756598240469,68.42619745845552,97.75171065493646,68.42619745845552
254.15444770283483,43.98826979472141,151.51515151515153,0.0,4.887585532746823,239.49169110459434,0.0
53.763440860215056,4.887585532746823,34.21309872922776,4.887585532746823,4.887585532746823,48.87585532746823,14.662756598240469
0.0,4.887585532746823,9.775171065493646,141.73998044965788,87.97653958944282,0.0,87.97653958944282
34.21309872922776,14.662756598240469,4.887585532746823,58.651026392961874,92.86412512218965,9.775171065493646,249.26686217008796
249.26686217008796,195.50342130987292,141.73998044965788,4.887585532746823,14.662756598240469,263.92961876832845,19.550342130987293
200.39100684261973,53.763440860215056,83.08895405669598,0.0,0.0,141.73998044965788,0.0
14.662756598240469,14.662756598240469,4.887585532746823,58.651026392961874,4.887585532746823,9.775171065493646,63.53861192570871
9.775171065493646,4.887585532746823,4.887585532746823,97.75171065493646,136.85239491691104,0.0,210.16617790811338
112.41446725317694,73.31378299120234,9.775171065493646,24.437927663734115,112.41446725317694,107.52688172043011,78.20136852394917
259.04203323558164,156.40273704789834,210.16617790811338,4.887585532746823,14.662756598240469,249.26686217008796,0.0
53.763440860215056,14.662756598240469,92.86412512218965,0.0,4.887585532746823,34.21309872922776,19.550342130987293
0.0,0.0,0.0,127.07722385141741,19.550342130987293,0.0,68.42619745845552
19.550342130987293,9.775171065493646,9.775171065493646,97.75171065493646,136.85239491691104,9.775171065493646,229.7165200391007
224.82893450635387,151.51515151515153,48.87585532746823,9.775171065493646,107.52688172043011,190.6158357771261,14.662756598240469
210.16617790811338,97.75171065493646,146.6275659824047,9.775171065493646,4.887585532746823,180.84066471163246,4.887585532746823
9.775171065493646,4.887585532746823,39.100684261974585,14.662756598240469,0.0,14.662756598240469,78.20136852394917
0.0,9.775171065493646,4.887585532746823,127.07722385141741,83.08895405669598,9.775171065493646,185.7282502443793
112.41446725317694,14.662756598240469,0.0,83.08895405669598,146.6275659824047,24.437927663734115,58.651026392961874
263.92961876832845,200.39100684261973,161.29032258064515,4.887585532746823,19.550342130987293,268.81720430107526,4.887585532746823
53.763440860215056,39.100684261974585,127.07722385141741,19.550342130987293,9.775171065493646,151.51515151515153,29.325513196480937
4.887585532746823,4.887585532746823,24.437927663734115,43.98826979472141,9.775171065493646,9.775171065493646,92.86412512218965
19.550342130987293,4.887585532746823,0.0,107.52688172043011,146.6275659824047,9.775171065493646,234.6041055718475
229.7165200391007,4.887585532746823,9.775171065493646,53.763440860215056,97.75171065493646,87.97653958944282,9.775171065493646
215.05376344086022,190.6158357771261,122.18963831867057,0.0,4.887585532746823,249.26686217008796,9.775171065493646
14.662756598240469,43.98826979472141,141.73998044965788,0.0,9.775171065493646,39.100684261974585,83.08895405669598
4.887585532746823,0.0,9.775171065493646,127.07722385141741,34.21309872922776,4.887585532746823,210.16617790811338
92.86412512218965,9.775171065493646,4.887585532746823,83.08895405669598,161.29032258064515,9.775171065493646,78.20136852394917
249.26686217008796,9.775171065493646,63.53861192570871,14.662756598240469,78.20136852394917,229.7165200391007,4.887585532746823
58.651026392961874,190.6158357771261,141.73998044965788,9.775171065493646,9.775171065493646,205.27859237536657,14.662756598240469
0.0,43.98826979472141,39.100684261974585,9.775171065493646,9.775171065493646,24.437927663734115,58.651026392961874
19.550342130987293,0.0,4.887585532746823,161.29032258064515,87.97653958944282,4.887585532746823,259.04203323558164
219.94134897360706,4.887585532746823,4.887585532746823,63.53861192570871,112.41446725317694,39.100684261974585,19.550342130987293
219.94134897360706,9.775171065493646,156.40273704789834,0.0,19.550342130987293,273.7047898338221,0.0
14.662756598240469,205.27859237536657,112.41446725317694,4.887585532746823,4.887585532746823,156.40273704789834,73.31378299120234
0.0,43.98826979472141,14.662756598240469,63.53861192570871,9.775171065493646,4.887585532746823,175.95307917888564
97.75171065493646,9.775171065493646,4.887585532746823,97.75171065493646,161.29032258064515,0.0,78.20136852394917
254.15444770283483,9.775171065493646,19.550342130987293,24.437927663734115,131.96480938416423,117.30205278592375,9.775171065493646
53.763440860215056,0.0,141.73998044965788,9.775171065493646,9.775171065493646,249.26686217008796,19.550342130987293
0.0,195.50342130987292,117.30205278592375,4.887585532746823,0.0,34.21309872922776,78.20136852394917
19.550342130987293,48.87585532746823,9.775171065493646,117.30205278592375,24.437927663734115,0.0,215.05376344086022
229.7165200391007,4.887585532746823,0.0,102.63929618768329,166.17790811339196,9.775171065493646,14.662756598240469
210.16617790811338,0.0,43.98826979472141,14.662756598240469,107.52688172043011,200.39100684261973,0.0
4.887585532746823,83.08895405669598,171.0654936461388,0.0,14.662756598240469,166.17790811339196,78.20136852394917
0.0,156.40273704789834,58.651026392961874,14.662756598240469,4.887585532746823,19.550342130987293,190.6158357771261
92.86412512218965,14.662756598240469,9.775171065493646,131.96480938416423,112.41446725317694,0.0,78.20136852394917
254.15444770283483,4.887585532746823,9.775171065493646,102.63929618768329,117.30205278592375,24.437927663734115,4.887585532746823
53.763440860215056,0.0,97.75171065493646,4.887585532746823,19.550342130987293,283.47996089931576,9.775171065493646
4.887585532746823,141.73998044965788,151.51515151515153,9.775171065493646,9.775171065493646,151.51515151515153,58.651026392961874
4.887585532746823,97.75171065493646,24.437927663734115,63.53861192570871,0.0,4.887585532746823,254.15444770283483
205.27859237536657,9.775171065493646,0.0,107.52688172043011,175.95307917888564,4.887585532746823,29.325513196480937
239.49169110459434,0.0,9.775171065493646,29.325513196480937,102.63929618768329,87.97653958944282,9.775171065493646
9.775171065493646,9.775171065493646,180.84066471163246,4.887585532746823,4.887585532746823,229.7165200391007,68.42619745845552
4.887585532746823,190.6158357771261,112.41446725317694,9.775171065493646,4.887585532746823,34.21309872922776,185.7282502443793
78.20136852394917,58.651026392961874,14.662756598240469,112.41446725317694,43.98826979472141,4.887585532746823,102.63929618768329
259.04203323558164,4.887585532746823,0.0,97.75171065493646,151.51515151515153,0.0,0.0
68.42619745845552,4.887585532746823,39.100684261974585,14.662756598240469,78.20136852394917,190.6158357771261,19.550342130987293
0.0,63.53861192570871,127.07722385141741,0.0,4.887585532746823,195.50342130987292,39.100684261974585
4.887585532746823,146.6275659824047,78.20136852394917,14.662756598240469,9.775171065493646,24.437927663734115,29.325513196480937
229.7165200391007,14.662756598240469,4.887585532746823,136.85239491691104,87.97653958944282,0.0,63.53861192570871
219.94134897360706,4.887585532746823,4.887585532746823,87.97653958944282,141.73998044965788,24.437927663734115,0.0
14.662756598240469,0.0,205.27859237536657,4.887585532746823,19.550342130987293,312.8054740957967,156.40273704789834
0.0,141.73998044965788,141.73998044965788,9.775171065493646,9.775171065493646,136.85239491691104,171.0654936461388
83.08895405669598,97.75171065493646,19.550342130987293,53.763440860215056,4.887585532746823,9.775171065493646,234.6041055718475
249.26686217008796,9.775171065493646,4.887585532746823,122.18963831867057,146.6275659824047,0.0,9.775171065493646
68.42619745845552,4.887585532746823,9.775171065493646,24.437927663734115,122.18963831867057,87.97653958944282,4.887585532746823
4.887585532746823,14.662756598240469,171.0654936461388,0.0,14.662756598240469,263.92961876832845,39.100684261974585
9.775171065493646,175.95307917888564,127.07722385141741,0.0,4.887585532746823,48.87585532746823,185.7282502443793
219.94134897360706,53.763440860215056,4.887585532746823,122.18963831867057,14.662756598240469,0.0,87.97653958944282
234.6041055718475,0.0,4.887585532746823,112.41446725317694,151.51515151515153,24.437927663734115,9.775171065493646
14.662756598240469,0.0,29.325513196480937,4.887585532746823,92.86412512218965,268.81720430107526,34.21309872922776
4.887585532746823,83.08895405669598,166.17790811339196,4.887585532746823,14.662756598240469,166.17790811339196,58.651026392961874
83.08895405669598,161.29032258064515,102.63929618768329,9.775171065493646,4.887585532746823,9.775171065493646,268.81720430107526
249.26686217008796,19.550342130987293,4.887585532746823,122.18963831867057,83.08895405669598,9.775171065493646,19.550342130987293
73.31378299120234,4.887585532746823,4.887585532746823,97.75171065493646,112.41446725317694,83.08895405669598,0.0
0.0,4.887585532746823,112.41446725317694,14.662756598240469,14.662756598240469,215.05376344086022,53.763440860215056
9.775171065493646,136.85239491691104,146.6275659824047,4.887585532746823,4.887585532746823,48.87585532746823,166.17790811339196
215.05376344086022,117.30205278592375,29.325513196480937,63.53861192570871,9.775171065493646,9.775171065493646,83.08895405669598
219.94134897360706,0.0,0.0,122.18963831867057,151.51515151515153,29.325513196480937,0.0
14.662756598240469,0.0,4.887585532746823,24.437927663734115,131.96480938416423,259.04203323558164,9.775171065493646
4.887585532746823,9.775171065493646,171.0654936461388,4.887585532746823,19.550342130987293,136.85239491691104,97.75171065493646
73.31378299120234,195.50342130987292,68.42619745845552,9.775171065493646,9.775171065493646,9.775171065493646,200.39100684261973
249.26686217008796,58.651026392961874,19.550342130987293,92.86412512218965,39.100684261974585,4.887585532746823,14.662756598240469
73.31378299120234,0.0,0.0,117.30205278592375,185.7282502443793,97.75171065493646,9.775171065493646
9.775171065493646,0.0,43.98826979472141,9.775171065493646,92.86412512218965,215.05376344086022,78.20136852394917
14.662756598240469,63.53861192570871,127.07722385141741,0.0,4.887585532746823,34.21309872922776,156.40273704789834
234.6041055718475,156.40273704789834,107.52688172043011,14.662756598240469,4.887585532746823,9.775171065493646,97.75171065493646
219.94134897360706,4.887585532746823,4.887585532746823,146.6275659824047,83.08895405669598,0.0,9.775171065493646
14.662756598240469,4.887585532746823,4.887585532746823,48.87585532746823,141.73998044965788,224.82893450635387,14.662756598240469
4.887585532746823,0.0,141.73998044965788,24.437927663734115,14.662756598240469,224.82893450635387,83.08895405669598
63.53861192570871,136.85239491691104,112.41446725317694,0.0,0.0,24.437927663734115,234.6041055718475
239.49169110459434,112.41446725317694,24.437927663734115,224.82893450635387,9.775171065493646,4.887585532746823,24.437927663734115
92.86412512218965,4.887585532746823,4.887585532746823,53.763440860215056,166.17790811339196,14.662756598240469,4.887585532746823
4.887585532746823,9.775171065493646,9.775171065493646,24.437927663734115,136.85239491691104,288.36754643206257,43.98826979472141
4.887585532746823,4.887585532746823,180.84066471163246,9.775171065493646,14.662756598240469,161.29032258064515,107.52688172043011
210.16617790811338,190.6158357771261,97.75171065493646,9.775171065493646,9.775171065493646,14.662756598240469,224.82893450635387
229.7165200391007,63.53861192570871,4.887585532746823,107.52688172043011,29.325513196480937,0.0,9.775171065493646
19.550342130987293,4.887585532746823,0.0,73.31378299120234,151.51515151515153,78.20136852394917,9.775171065493646
4.887585532746823,9.775171065493646,19.550342130987293,9.775171065493646,92.86412512218965,229.7165200391007,83.08895405669598
73.31378299120234,58.651026392961874,97.75171065493646,0.0,9.775171065493646,43.98826979472141,234.6041055718475
239.49169110459434,146.6275659824047,127.07722385141741,9.775171065493646,0.0,9.775171065493646,43.98826979472141
68.42619745845552,14.662756598240469,9.775171065493646,136.85239491691104,97.75171065493646,9.775171065493646,0.0
9.775171065493646,4.887585532746823,4.887585532746823,136.85239491691104,112.41446725317694,200.39100684261973,9.775171065493646
4.887585532746823,9.775171065493646,78.20136852394917,29.325513196480937,24.437927663734115,190.6158357771261,73.31378299120234
234.6041055718475,141.73998044965788,87.97653958944282,4.887585532746823,9.775171065493646,19.550342130987293,273.7047898338221
244.37927663734115,122.18963831867057,19.550342130987293,87.97653958944282,4.887585532746823,4.887585532746823,29.325513196480937
9.775171065493646,14.662756598240469,0.0,63.53861192570871,175.95307917888564,14.662756598240469,4.887585532746823
9.775171065493646,4.887585532746823,0.0,73.31378299120234,107.52688172043011,303.03030303030306,83.08895405669598
73.31378299120234,4.887585532746823,190.6158357771261,4.887585532746823,9.775171065493646,146.6275659824047,136.85239491691104
254.15444770283483,190.6158357771261,117.30205278592375,102.63929618768329,4.887585532746823,9.775171065493646,102.63929618768329
78.20136852394917,63.53861192570871,9.775171065493646,151.51515151515153,29.325513196480937,4.887585532746823,4.887585532746823
9.775171065493646,0.0,4.887585532746823,136.85239491691104,200.39100684261973,87.97653958944282,4.887585532746823
4.887585532746823,0.0,48.87585532746823,14.662756598240469,53.763440860215056,254.15444770283483,78.20136852394917
239.49169110459434,53.763440860215056,127.07722385141741,9.775171065493646,0.0,48.87585532746823,161.29032258064515
219.94134897360706,161.29032258064515,43.98826979472141,127.07722385141741,4.887585532746823,4.887585532746823,19.550342130987293
19.550342130987293,9.775171065493646,4.887585532746823,43.98826979472141,83.08895405669598,9.775171065493646,0.0
4.887585532746823,4.887585532746823,0.0,14.662756598240469,141.73998044965788,298.14271749755625,73.31378299120234
63.53861192570871,0.0,107.52688172043011,9.775171065493646,24.437927663734115,146.6275659824047,219.94134897360706
249.26686217008796,136.85239491691104,122.18963831867057,0.0,0.0,9.775171065493646,146.6275659824047
73.31378299120234,131.96480938416423,19.550342130987293,175.95307917888564,9.775171065493646,9.775171065493646,4.887585532746823
4.887585532746823,4.887585532746823,9.775171065493646,34.21309872922776,146.6275659824047,63.53861192570871,0.0
4.887585532746823,4.887585532746823,9.775171065493646,19.550342130987293,97.75171065493646,210.16617790811338,39.100684261974585
215.05376344086022,0.0,146.6275659824047,19.550342130987293,9.775171065493646,43.98826979472141,229.7165200391007
239.49169110459434,190.6158357771261,112.41446725317694,4.887585532746823,0.0,9.775171065493646,53.763440860215056
19.550342130987293,63.53861192570871,19.550342130987293,146.6275659824047,24.437927663734115,0.0,4.887585532746823
4.887585532746823,9.775171065493646,9.775171065493646,63.53861192570871,166.17790811339196,166.17790811339196,78.20136852394917
73.31378299120234,4.887585532746823,24.437927663734115,19.550342130987293,92.86412512218965,200.39100684261973,146.6275659824047
244.37927663734115,48.87585532746823,136.85239491691104,9.775171065493646,0.0,24.437927663734115,112.41446725317694
78.20136852394917,175.95307917888564,97.75171065493646,53.763440860215056,4.887585532746823,0.0,4.887585532746823
4.887585532746823,19.550342130987293,4.887585532746823,78.20136852394917,83.08895405669598,9.775171065493646,0.0
9.775171065493646,0.0,9.775171065493646,43.98826979472141,127.07722385141741,263.92961876832845,43.98826979472141
229.7165200391007,0.0,112.41446725317694,4.887585532746823,19.550342130987293,161.29032258064515,229.7165200391007
249.26686217008796,146.6275659824047,127.07722385141741,29.325513196480937,9.775171065493646,14.662756598240469,43.98826979472141
19.550342130987293,141.73998044965788,29.325513196480937,24.437927663734115,4.887585532746823,0.0,0.0
9.775171065493646,9.775171065493646,9.775171065493646,259.04203323558164,166.17790811339196,97.75171065493646,4.887585532746823
68.42619745845552,14.662756598240469,4.887585532746823,43.98826979472141,97.75171065493646,200.39100684261973,34.21309872922776
254.15444770283483,4.887585532746823,190.6158357771261,4.887585532746823,9.775171065493646,43.98826979472141,224.82893450635387
73.31378299120234,185.7282502443793,87.97653958944282,0.0,9.775171065493646,4.887585532746823,34.21309872922776
4.887585532746823,68.42619745845552,9.775171065493646,39.100684261974585,29.325513196480937,9.775171065493646,9.775171065493646
4.887585532746823,4.887585532746823,9.775171065493646,102.63929618768329,171.0654936461388,185.7282502443793,9.775171065493646
229.7165200391007,9.775171065493646,58.651026392961874,58.651026392961874,127.07722385141741,205.27859237536657,53.763440860215056
229.7165200391007,43.98826979472141,122.18963831867057,4.887585532746823,9.775171065493646,19.550342130987293,293.2551319648094
24.437927663734115,219.94134897360706,48.87585532746823,151.51515151515153,4.887585532746823,9.775171065493646,29.325513196480937
9.775171065493646,39.100684261974585,4.887585532746823,34.21309872922776,92.86412512218965,4.887585532746823,4.887585532746823
68.42619745845552,4.887585532746823,14.662756598240469,171.0654936461388,107.52688172043011,278.5923753665689,39.100684261974585
249.26686217008796,0.0,166.17790811339196,39.100684261974585,29.325513196480937,156.40273704789834,107.52688172043011
78.20136852394917,39.100684261974585,117.30205278592375,9.775171065493646,9.775171065493646,4.887585532746823,244.37927663734115
4.887585532746823,224.82893450635387,9.775171065493646,87.97653958944282,0.0,4.887585532746823,9.775171065493646
4.887585532746823,34.21309872922776,4.887585532746823,136.85239491691104,131.96480938416423,78.20136852394917,9.775171065493646
224.82893450635387,0.0,29.325513196480937,29.325513196480937,107.52688172043011,229.7165200391007,68.42619745845552
234.6041055718475,0.0,146.6275659824047,9.775171065493646,19.550342130987293,39.100684261974585,224.82893450635387
19.550342130987293,39.100684261974585,161.29032258064515,14.662756598240469,4.887585532746823,4.887585532746823,73.31378299120234
4.887585532746823,200.39100684261973,9.775171065493646,63.53861192570871,24.437927663734115,9.775171065493646,4.887585532746823
63.53861192570871,24.437927663734115,4.887585532746823,63.53861192570871,185.7282502443793,200.39100684261973,43.98826979472141
259.04203323558164,0.0,87.97653958944282,68.42619745845552,92.86412512218965,219.94134897360706,78.20136852394917
83.08895405669598,0.0,102.63929618768329,24.437927663734115,4.887585532746823,19.550342130987293,239.49169110459434
4.887585532746823,48.87585532746823,24.437927663734115,151.51515151515153,0.0,4.887585532746823,14.662756598240469
0.0,166.17790811339196,9.775171065493646,68.42619745845552,92.86412512218965,9.775171065493646,0.0
215.05376344086022,14.662756598240469,4.887585532746823,200.39100684261973,131.96480938416423,298.14271749755625,34.21309872922776
249.26686217008796,0.0,166.17790811339196,48.87585532746823,19.550342130987293,156.40273704789834,171.0654936461388
14.662756598240469,4.887585532746823,156.40273704789834,4.887585532746823,0.0,4.887585532746823,175.95307917888564
9.775171065493646,127.07722385141741,9.775171065493646,112.41446725317694,4.887585532746823,4.887585532746823,4.887585532746823
48.87585532746823,131.96480938416423,0.0,166.17790811339196,112.41446725317694,83.08895405669598,4.887585532746823
263.92961876832845,9.775171065493646,39.100684261974585,68.42619745845552,156.40273704789834,234.6041055718475,78.20136852394917
92.86412512218965,0.0,122.18963831867057,24.437927663734115,19.550342130987293,39.100684261974585,268.81720430107526
9.775171065493646,9.775171065493646,73.31378299120234,200.39100684261973,4.887585532746823,4.887585532746823,34.21309872922776
0.0,180.84066471163246,4.887585532746823,19.550342130987293,19.550342130987293,0.0,4.887585532746823
215.05376344086022,63.53861192570871,0.0,83.08895405669598,180.84066471163246,171.0654936461388,48.87585532746823
244.37927663734115,9.775171065493646,131.96480938416423,9.775171065493646,97.75171065493646,205.27859237536657,146.6275659824047
19.550342130987293,0.0,185.7282502443793,0.0,4.887585532746823,24.437927663734115,127.07722385141741
0.0,53.763440860215056,19.550342130987293,112.41446725317694,9.775171065493646,9.775171065493646,4.887585532746823
48.87585532746823,156.40273704789834,4.887585532746823,83.08895405669598,73.31378299120234,14.662756598240469,9.775171065493646
249.26686217008796,14.662756598240469,4.887585532746823,34.21309872922776,127.07722385141741,263.92961876832845,43.98826979472141
102.63929618768329,4.887585532746823,195.50342130987292,34.21309872922776,24.437927663734115,151.51515151515153,224.82893450635387
9.775171065493646,4.887585532746823,92.86412512218965,29.325513196480937,0.0,9.775171065493646,39.100684261974585
9.775171065493646,117.30205278592375,9.775171065493646,263.92961876832845,9.775171065493646,4.887585532746823,0.0
219.94134897360706,141.73998044965788,4.887585532746823,175.95307917888564,136.85239491691104,78.20136852394917,0.0
249.26686217008796,9.775171065493646,78.20136852394917,14.662756598240469,117.30205278592375,244.37927663734115,53.763440860215056
14.662756598240469,0.0,131.96480938416423,14.662756598240469,14.662756598240469,43.98826979472141,259.04203323558164
4.887585532746823,4.887585532746823,34.21309872922776,78.20136852394917,4.887585532746823,0.0,29.325513196480937
43.98826979472141,180.84066471163246,4.887585532746823,312.8054740957967,19.550342130987293,9.775171065493646,14.662756598240469
239.49169110459434,68.42619745845552,4.887585532746823,14.662756598240469,175.95307917888564,166.17790811339196,58.651026392961874
195.50342130987292,4.887585532746823,156.40273704789834,9.775171065493646,97.75171065493646,210.16617790811338,156.40273704789834
4.887585532746823,0.0,146.6275659824047,4.887585532746823,4.887585532746823,24.437927663734115,156.40273704789834
0.0,39.100684261974585,24.437927663734115,371.4565004887586,9.775171065493646,0.0,9.775171065493646
146.6275659824047,205.27859237536657,4.887585532746823,34.21309872922776,43.98826979472141,4.887585532746823,4.887585532746823
268.81720430107526,34.21309872922776,4.887585532746823,4.887585532746823,92.86412512218965,254.15444770283483,53.763440860215056
43.98826979472141,9.775171065493646,205.27859237536657,14.662756598240469,83.08895405669598,151.51515151515153,283.47996089931576
9.775171065493646,4.887585532746823,102.63929618768329,4.887585532746823,9.775171065493646,4.887585532746823,24.437927663734115
0.0,48.87585532746823,24.437927663734115,141.73998044965788,4.887585532746823,4.887585532746823,9.775171065493646
215.05376344086022,190.6158357771261,9.775171065493646,83.08895405669598,156.40273704789834,122.18963831867057,43.98826979472141
244.37927663734115,19.550342130987293,29.325513196480937,24.437927663734115,122.18963831867057,229.7165200391007,63.53861192570871
24.437927663734115,0.0,156.40273704789834,34.21309872922776,19.550342130987293,39.100684261974585,200.39100684261973
4.887585532746823,4.887585532746823,43.98826979472141,24.437927663734115,0.0,9.775171065493646,9.775171065493646
43.98826979472141,97.75171065493646,4.887585532746823,97.75171065493646,29.325513196480937,0.0,9.775171065493646
219.94134897360706,141.73998044965788,0.0,171.0654936461388,151.51515151515153,195.50342130987292,146.6275659824047
175.95307917888564,9.775171065493646,19.550342130987293,9.775171065493646,97.75171065493646,215.05376344086022,263.92961876832845
9.775171065493646,0.0,185.7282502443793,0.0,4.887585532746823,19.550342130987293,78.20136852394917
4.887585532746823,4.887585532746823,83.08895405669598,151.51515151515153,0.0,0.0,4.887585532746823
117.30205278592375,180.84066471163246,9.775171065493646,117.30205278592375,73.31378299120234,9.775171065493646,39.100684261974585
249.26686217008796,83.08895405669598,4.887585532746823,9.775171065493646,92.86412512218965,263.92961876832845,24.437927663734115
48.87585532746823,4.887585532746823,102.63929618768329,9.775171065493646,29.325513196480937,146.6275659824047,239.49169110459434
0.0,0.0,122.18963831867057,239.49169110459434,9.775171065493646,14.662756598240469,48.87585532746823
34.21309872922776,48.87585532746823,24.437927663734115,53.763440860215056,9.775171065493646,0.0,9.775171065493646
229.7165200391007,171.0654936461388,4.887585532746823,48.87585532746823,151.51515151515153,87.97653958944282,83.08895405669598
185.7282502443793,14.662756598240469,0.0,9.775171065493646,127.07722385141741,210.16617790811338,171.0654936461388
4.887585532746823,4.887585532746823,210.16617790811338,9.775171065493646,14.662756598240469,43.98826979472141,78.20136852394917
0.0,9.775171065493646,131.96480938416423,371.4565004887586,9.775171065493646,4.887585532746823,4.887585532746823
131.96480938416423,107.52688172043011,14.662756598240469,39.100684261974585,9.775171065493646,4.887585532746823,58.651026392961874
254.15444770283483,141.73998044965788,0.0,14.662756598240469,171.0654936461388,141.73998044965788,136.85239491691104
53.763440860215056,9.775171065493646,29.325513196480937,0.0,102.63929618768329,190.6158357771261,166.17790811339196
9.775171065493646,4.887585532746823,156.40273704789834,0.0,14.662756598240469,24.437927663734115,4.887585532746823
24.437927663734115,9.775171065493646,112.41446725317694,97.75171065493646,4.887585532746823,4.887585532746823,4.887585532746823
229.7165200391007,175.95307917888564,14.662756598240469,205.27859237536657,58.651026392961874,9.775171065493646,107.52688172043011
195.50342130987292,53.763440860215056,0.0,9.775171065493646,107.52688172043011,263.92961876832845,210.16617790811338
9.775171065493646,0.0,73.31378299120234,4.887585532746823,29.325513196480937,156.40273704789834,29.325513196480937
9.775171065493646,4.887585532746823,92.86412512218965,4.887585532746823,9.775171065493646,4.887585532746823,14.662756598240469
122.18963831867057,39.100684261974585,24.437927663734115,136.85239491691104,4.887585532746823,4.887585532746823,24.437927663734115
263.92961876832845,205.27859237536657,4.887585532746823,263.92961876832845,122.18963831867057,68.42619745845552,53.763440860215056
53.763440860215056,34.21309872922776,4.887585532746823,14.662756598240469,127.07722385141741,234.6041055718475,268.81720430107526
0.0,4.887585532746823,210.16617790811338,4.887585532746823,14.662756598240469,53.763440860215056,14.662756598240469
34.21309872922776,4.887585532746823,146.6275659824047,39.100684261974585,0.0,9.775171065493646,9.775171065493646
224.82893450635387,29.325513196480937,14.662756598240469,78.20136852394917,9.775171065493646,9.775171065493646,43.98826979472141
200.39100684261973,219.94134897360706,9.775171065493646,283.47996089931576,200.39100684261973,268.81720430107526,127.07722385141741
9.775171065493646,39.100684261974585,29.325513196480937,14.662756598240469,112.41446725317694,175.95307917888564,200.39100684261973
4.887585532746823,14.662756598240469,131.96480938416423,0.0,9.775171065493646,14.662756598240469,4.887585532746823
117.30205278592375,4.887585532746823,73.31378299120234,141.73998044965788,9.775171065493646,0.0,0.0
263.92961876832845,29.325513196480937,9.775171065493646,92.86412512218965,107.52688172043011,58.651026392961874,24.437927663734115
53.763440860215056,200.39100684261973,9.775171065493646,9.775171065493646,97.75171065493646,244.37927663734115,219.94134897360706
4.887585532746823,34.21309872922776,131.96480938416423,9.775171065493646,19.550342130987293,48.87585532746823,83.08895405669598
14.662756598240469,4.887585532746823,131.96480938416423,0.0,4.887585532746823,9.775171065493646,9.775171065493646
229.7165200391007,4.887585532746823,19.550342130987293,117.30205278592375,4.887585532746823,14.662756598240469,14.662756598240469
210.16617790811338,24.437927663734115,9.775171065493646,210.16617790811338,127.07722385141741,283.47996089931576,73.31378299120234
14.662756598240469,205.27859237536657,9.775171065493646,19.550342130987293,127.07722385141741,151.51515151515153,288.36754643206257
4.887585532746823,39.100684261974585,205.27859237536657,19.550342130987293,19.550342130987293,9.775171065493646,19.550342130987293
122.18963831867057,9.775171065493646,195.50342130987292,4.887585532746823,4.887585532746823,4.887585532746823,4.887585532746823
254.15444770283483,0.0,24.437927663734115,39.100684261974585,0.0,68.42619745845552,78.20136852394917
53.763440860215056,29.325513196480937,4.887585532746823,53.763440860215056,146.6275659824047,249.26686217008796,175.95307917888564
0.0,200.39100684261973,29.325513196480937,14.662756598240469,97.75171065493646,53.763440860215056,73.31378299120234
24.437927663734115,29.325513196480937,141.73998044965788,4.887585532746823,9.775171065493646,0.0,4.887585532746823
229.7165200391007,4.887585532746823,97.75171065493646,68.42619745845552,4.887585532746823,14.662756598240469,4.887585532746823
205.27859237536657,0.0,9.775171065493646,102.63929618768329,68.42619745845552,288.36754643206257,87.97653958944282
19.550342130987293,53.763440860215056,4.887585532746823,141.73998044965788,117.30205278592375,171.0654936461388,259.04203323558164
4.887585532746823,185.7282502443793,78.20136852394917,14.662756598240469,34.21309872922776,4.887585532746823,29.325513196480937
127.07722385141741,24.437927663734115,146.6275659824047,19.550342130987293,4.887585532746823,4.887585532746823,0.0
259.04203323558164,0.0,24.437927663734115,185.7282502443793,4.887585532746823,68.42619745845552,92.86412512218965
48.87585532746823,9.775171065493646,4.887585532746823,97.75171065493646,131.96480938416423,234.6041055718475,185.7282502443793
9.775171065493646,102.63929618768329,9.775171065493646,4.887585532746823,131.96480938416423,48.87585532746823,73.31378299120234
14.662756598240469,141.73998044965788,151.51515151515153,4.887585532746823,9.775171065493646,4.887585532746823,0.0
224.82893450635387,9.775171065493646,166.17790811339196,19.550342130987293,9.775171065493646,14.662756598240469,19.550342130987293
239.49169110459434,0.0,9.775171065493646,117.30205278592375,4.887585532746823,263.92961876832845,107.52688172043011
14.662756598240469,4.887585532746823,9.775171065493646,73.31378299120234,200.39100684261973,175.95307917888564,259.04203323558164
0.0,161.29032258064515,39.100684261974585,9.775171065493646,112.41446725317694,9.775171065493646,19.550342130987293
107.52688172043011,97.75171065493646,141.73998044965788,0.0,4.887585532746823,0.0,9.775171065493646
254.15444770283483,4.887585532746823,78.20136852394917,112.41446725317694,0.0,43.98826979472141,63.53861192570871
58.651026392961874,0.0,9.775171065493646,73.31378299120234,63.53861192570871,249.26686217008796,175.95307917888564
9.775171065493646,19.550342130987293,0.0,63.53861192570871,112.41446725317694,141.73998044965788,83.08895405669598
19.550342130987293,190.6158357771261,78.20136852394917,9.775171065493646,29.325513196480937,9.775171065493646,9.775171065493646
229.7165200391007,48.87585532746823,141.73998044965788,24.437927663734115,9.775171065493646,0.0,34.21309872922776
219.94134897360706,4.887585532746823,48.87585532746823,146.6275659824047,4.887585532746823,175.95307917888564,39.100684261974585
14.662756598240469,9.775171065493646,9.775171065493646,53.763440860215056,122.18963831867057,180.84066471163246,244.37927663734115
4.887585532746823,92.86412512218965,14.662756598240469,9.775171065493646,112.41446725317694,19.550342130987293,43.98826979472141
112.41446725317694,151.51515151515153,175.95307917888564,4.887585532746823,4.887585532746823,4.887585532746823,9.775171065493646
259.04203323558164,9.775171065493646,161.29032258064515,112.41446725317694,4.887585532746823,4.887585532746823,14.662756598240469
58.651026392961874,4.887585532746823,14.662756598240469,73.31378299120234,4.887585532746823,278.5923753665689,43.98826979472141
4.887585532746823,4.887585532746823,0.0,43.98826979472141,175.95307917888564,156.40273704789834,249.26686217008796
14.662756598240469,161.29032258064515,87.97653958944282,9.775171065493646,83.08895405669598,4.887585532746823,48.87585532746823
219.94134897360706,87.97653958944282,175.95307917888564,4.887585532746823,14.662756598240469,9.775171065493646,4.887585532746823
219.94134897360706,14.662756598240469,34.21309872922776,185.7282502443793,4.887585532746823,58.651026392961874,73.31378299120234
14.662756598240469,0.0,4.887585532746823,58.651026392961874,63.53861192570871,259.04203323558164,156.40273704789834
0.0,29.325513196480937,0.0,4.887585532746823,127.07722385141741,58.651026392961874,83.08895405669598
112.41446725317694,215.05376344086022,205.27859237536657,4.887585532746823,29.325513196480937,0.0,9.775171065493646
254.15444770283483,53.763440860215056,131.96480938416423,43.98826979472141,4.887585532746823,4.887585532746823,19.550342130987293
58.651026392961874,4.887585532746823,24.437927663734115,117.30205278592375,0.0,249.26686217008796,68.42619745845552
14.662756598240469,0.0,0.0,117.30205278592375,156.40273704789834,166.17790811339196,239.49169110459434
24.437927663734115,87.97653958944282,24.437927663734115,4.887585532746823,92.86412512218965,14.662756598240469,24.437927663734115
229.7165200391007,161.29032258064515,190.6158357771261,0.0,4.887585532746823,4.887585532746823,9.775171065493646
215.05376344086022,4.887585532746823,102.63929618768329,87.97653958944282,0.0,63.53861192570871,73.31378299120234
9.775171065493646,4.887585532746823,4.887585532746823,68.42619745845552,9.775171065493646,234.6041055718475,171.0654936461388
0.0,4.887585532746823,0.0,4.887585532746823,185.7282502443793,48.87585532746823,87.97653958944282
107.52688172043011,146.6275659824047,117.30205278592375,4.887585532746823,107.52688172043011,4.887585532746823,4.887585532746823
268.81720430107526,102.63929618768329,117.30205278592375,43.98826979472141,9.775171065493646,0.0,0.0
58.651026392961874,4.887585532746823,29.325513196480937,107.52688172043011,0.0,259.04203323558164,39.100684261974585
4.887585532746823,4.887585532746823,0.0,97.75171065493646,43.98826979472141,205.27859237536657,268.81720430107526
9.775171065493646,9.775171065493646,9.775171065493646,14.662756598240469,141.73998044965788,19.550342130987293,43.98826979472141
229.7165200391007,190.6158357771261,185.7282502443793,4.887585532746823,73.31378299120234,9.775171065493646,9.775171065493646
200.39100684261973,48.87585532746823,215.05376344086022,4.887585532746823,9.775171065493646,63.53861192570871,29.325513196480937
4.887585532746823,4.887585532746823,29.325513196480937,107.52688172043011,4.887585532746823,263.92961876832845,43.98826979472141
4.887585532746823,0.0,9.775171065493646,97.75171065493646,97.75171065493646,34.21309872922776,249.26686217008796
107.52688172043011,87.97653958944282,29.325513196480937,4.887585532746823,136.85239491691104,4.887585532746823,43.98826979472141
263.92961876832845,151.51515151515153,102.63929618768329,0.0,19.550342130987293,9.775171065493646,9.775171065493646
63.53861192570871,9.775171065493646,117.30205278592375,78.20136852394917,9.775171065493646,141.73998044965788,4.887585532746823
9.775171065493646,4.887585532746823,9.775171065493646,161.29032258064515,14.662756598240469,195.50342130987292,48.87585532746823
14.662756598240469,4.887585532746823,0.0,19.550342130987293,131.96480938416423,24.437927663734115,249.26686217008796
234.6041055718475,151.51515151515153,166.17790811339196,9.775171065493646,83.08895405669598,9.775171065493646,24.437927663734115
219.94134897360706,87.97653958944282,210.16617790811338,9.775171065493646,4.887585532746823,4.887585532746823,4.887585532746823
14.662756598240469,14.662756598240469,29.325513196480937,175.95307917888564,9.775171065493646,254.15444770283483,34.21309872922776
9.775171065493646,4.887585532746823,4.887585532746823,68.42619745845552,48.87585532746823,151.51515151515153,92.86412512218965
92.86412512218965,19.550342130987293,4.887585532746823,4.887585532746823,131.96480938416423,14.662756598240469,229.7165200391007
254.15444770283483,205.27859237536657,146.6275659824047,0.0,29.325513196480937,4.887585532746823,14.662756598240469
63.53861192570871,48.87585532746823,107.52688172043011,24.437927663734115,4.887585532746823,73.31378299120234,9.775171065493646
9.775171065493646,0.0,14.662756598240469,239.49169110459434,4.887585532746823,234.6041055718475,68.42619745845552
4.887585532746823,0.0,9.775171065493646,39.100684261974585,136.85239491691104,43.98826979472141,224.82893450635387
229.7165200391007,83.08895405669598,29.325513196480937,4.887585532746823,97.75171065493646,4.887585532746823,19.550342130987293
229.7165200391007,146.6275659824047,185.7282502443793,9.775171065493646,19.550342130987293,0.0,4.887585532746823
14.662756598240469,9.775171065493646,122.18963831867057,19.550342130987293,4.887585532746823,180.84066471163246,14.662756598240469
0.0,4.887585532746823,9.775171065493646,131.96480938416423,4.887585532746823,229.7165200391007,48.87585532746823
83.08895405669598,0.0,0.0,78.20136852394917,156.40273704789834,24.437927663734115,268.81720430107526
273.7047898338221,156.40273704789834,112.41446725317694,83.08895405669598,117.30205278592375,4.887585532746823,29.325513196480937
63.53861192570871,107.52688172043011,131.96480938416423,9.775171065493646,9.775171065493646,4.887585532746823,9.775171065493646
9.775171065493646,4.887585532746823,39.100684261974585,117.30205278592375,4.887585532746823,234.6041055718475,87.97653958944282
4.887585532746823,9.775171065493646,4.887585532746823,68.42619745845552,34.21309872922776,185.7282502443793,141.73998044965788
229.7165200391007,9.775171065493646,4.887585532746823,4.887585532746823,141.73998044965788,14.662756598240469,112.41446725317694
229.7165200391007,210.16617790811338,102.63929618768329,0.0,73.31378299120234,0.0,9.775171065493646
14.662756598240469,58.651026392961874,112.41446725317694,19.550342130987293,4.887585532746823,53.763440860215056,4.887585532746823
0.0,0.0,9.775171065493646,136.85239491691104,4.887585532746823,249.26686217008796,53.763440860215056
78.20136852394917,9.775171065493646,0.0,63.53861192570871,131.96480938416423,48.87585532746823,263.92961876832845
249.26686217008796,83.08895405669598,39.100684261974585,9.775171065493646,141.73998044965788,0.0,19.550342130987293
68.42619745845552,146.6275659824047,190.6158357771261,4.887585532746823,14.662756598240469,4.887585532746823,4.887585532746823
9.775171065493646,4.887585532746823,151.51515151515153,78.20136852394917,4.887585532746823,268.81720430107526,78.20136852394917
14.662756598240469,0.0,14.662756598240469,92.86412512218965,9.775171065493646,190.6158357771261,127.07722385141741
219.94134897360706,14.662756598240469,4.887585532746823,53.763440860215056,171.0654936461388,14.662756598240469,112.41446725317694
229.7165200391007,151.51515151515153,78.20136852394917,9.775171065493646,107.52688172043011,0.0,4.887585532746823
19.550342130987293,87.97653958944282,97.75171065493646,19.550342130987293,14.662756598240469,58.651026392961874,0.0
4.887585532746823,9.775171065493646,29.325513196480937,117.30205278592375,9.775171065493646,254.15444770283483,58.651026392961874
63.53861192570871,0.0,4.887585532746823,127.07722385141741,48.87585532746823,53.763440860215056,254.15444770283483
259.04203323558164,4.887585532746823,9.775171065493646,14.662756598240469,122.18963831867057,4.887585532746823,29.325513196480937
63.53861192570871,195.50342130987292,107.52688172043011,0.0,48.87585532746823,0.0,4.887585532746823
9.775171065493646,53.763440860215056,141.73998044965788,78.20136852394917,9.775171065493646,254.15444770283483,48.87585532746823
14.662756598240469,9.775171065493646,34.21309872922776,102.63929618768329,4.887585532746823,171.0654936461388,171.0654936461388
229.7165200391007,4.887585532746823,4.887585532746823,107.52688172043011,166.17790811339196,9.775171065493646,117.30205278592375
239.49169110459434,83.08895405669598,39.100684261974585,19.550342130987293,92.86412512218965,9.775171065493646,14.662756598240469
24.437927663734115,146.6275659824047,156.40273704789834,34.21309872922776,0.0,68.42619745845552,4.887585532746823
0.0,14.662756598240469,78.20136852394917,102.63929618768329,4.887585532746823,224.82893450635387,48.87585532746823
63.53861192570871,4.887585532746823,9.775171065493646,112.41446725317694,68.42619745845552,43.98826979472141,278.5923753665689
273.7047898338221,9.775171065493646,0.0,9.775171065493646,141.73998044965788,4.887585532746823,24.437927663734115
87.97653958944282,161.29032258064515,58.651026392961874,4.887585532746823,24.437927663734115,0.0,0.0
9.775171065493646,97.75171065493646,127.07722385141741,92.86412512218965,4.887585532746823,180.84066471163246,63.53861192570871
9.775171065493646,4.887585532746823,83.08895405669598,78.20136852394917,0.0,244.37927663734115,156.40273704789834
210.16617790811338,4.887585532746823,9.775171065493646,14.662756598240469,117.30205278592375,34.21309872922776,112.41446725317694
224.82893450635387,9.775171065493646,53.763440860215056,24.437927663734115,107.52688172043011,9.775171065493646,9.775171065493646
14.662756598240469,200.39100684261973,92.86412512218965,9.775171065493646,24.437927663734115,0.0,0.0
4.887585532746823,48.87585532746823,48.87585532746823,107.52688172043011,4.887585532746823,263.92961876832845,39.100684261974585
68.42619745845552,9.775171065493646,9.775171065493646,107.52688172043011,4.887585532746823,273.7047898338221,229.7165200391007
254.15444770283483,0.0,0.0,9.775171065493646,180.84066471163246,14.662756598240469,58.651026392961874
68.42619745845552,58.651026392961874,136.85239491691104,0.0,107.52688172043011,0.0,9.775171065493646
9.775171065493646,151.51515151515153,131.96480938416423,9.775171065493646,9.775171065493646,63.53861192570871,29.325513196480937
4.887585532746823,9.775171065493646,24.437927663734115,122.18963831867057,0.0,254.15444770283483,131.96480938416423
210.16617790811338,0.0,0.0,210.16617790811338,58.651026392961874,43.98826979472141,239.49169110459434
234.6041055718475,0.0,24.437927663734115,4.887585532746823,127.07722385141741,4.887585532746823,14.662756598240469
14.662756598240469,151.51515151515153,205.27859237536657,0.0,39.100684261974585,0.0,4.887585532746823
4.887585532746823,97.75171065493646,92.86412512218965,68.42619745845552,0.0,175.95307917888564,102.63929618768329
78.20136852394917,4.887585532746823,4.887585532746823,195.50342130987292,4.887585532746823,224.82893450635387,273.7047898338221
254.15444770283483,0.0,0.0,9.775171065493646,102.63929618768329,29.325513196480937,48.87585532746823
78.20136852394917,4.887585532746823,68.42619745845552,9.775171065493646,117.30205278592375,9.775171065493646,0.0
9.775171065493646,195.50342130987292,166.17790811339196,9.775171065493646,19.550342130987293,0.0,43.98826979472141
4.887585532746823,53.763440860215056,43.98826979472141,107.52688172043011,0.0,273.7047898338221,87.97653958944282
224.82893450635387,0.0,9.775171065493646,78.20136852394917,4.887585532746823,215.05376344086022,254.15444770283483
244.37927663734115,0.0,0.0,9.775171065493646,195.50342130987292,14.662756598240469,9.775171065493646
19.550342130987293,58.651026392961874,39.100684261974585,4.887585532746823,107.52688172043011,9.775171065493646,4.887585532746823
4.887585532746823,161.29032258064515,19.550342130987293,9.775171065493646,4.887585532746823,68.42619745845552,48.87585532746823
53.763440860215056,14.662756598240469,83.08895405669598,117.30205278592375,4.887585532746823,249.26686217008796,219.94134897360706
249.26686217008796,9.775171065493646,14.662756598240469,107.52688172043011,53.763440860215056,87.97653958944282,63.53861192570871
73.31378299120234,4.887585532746823,102.63929618768329,19.550342130987293,117.30205278592375,9.775171065493646,14.662756598240469
9.775171065493646,156.40273704789834,146.6275659824047,4.887585532746823,39.100684261974585,24.437927663734115,43.98826979472141
4.887585532746823,117.30205278592375,83.08895405669598,14.662756598240469,9.775171065493646,239.49169110459434,78.20136852394917
219.94134897360706,9.775171065493646,14.662756598240469,63.53861192570871,0.0,210.16617790811338,239.49169110459434
249.26686217008796,0.0,14.662756598240469,131.96480938416423,127.07722385141741,14.662756598240469,9.775171065493646
19.550342130987293,14.662756598240469,449.65786901270775,4.887585532746823,127.07722385141741,0.0,0.0
9.775171065493646,185.7282502443793,131.96480938416423,4.887585532746823,24.437927663734115,131.96480938416423,92.86412512218965
63.53861192570871,43.98826979472141,131.96480938416423,171.0654936461388,0.0,288.36754643206257,229.7165200391007
254.15444770283483,4.887585532746823,0.0,83.08895405669598,4.887585532746823,43.98826979472141,53.763440860215056
78.20136852394917,0.0,58.651026392961874,19.550342130987293,141.73998044965788,9.775171065493646,9.775171065493646
4.887585532746823,9.775171065493646,43.98826979472141,9.775171065493646,112.41446725317694,0.0,34.21309872922776
9.775171065493646,210.16617790811338,97.75171065493646,29.325513196480937,9.775171065493646,73.31378299120234,48.87585532746823
224.82893450635387,48.87585532746823,175.95307917888564,127.07722385141741,4.887585532746823,307.91788856304987,244.37927663734115
249.26686217008796,4.887585532746823,9.775171065493646,92.86412512218965,24.437927663734115,58.651026392961874,14.662756598240469
24.437927663734115,4.887585532746823,102.63929618768329,4.887585532746823,127.07722385141741,0.0,0.0
9.775171065493646,58.651026392961874,312.8054740957967,9.775171065493646,63.53861192570871,112.41446725317694,102.63929618768329
53.763440860215056,156.40273704789834,92.86412512218965,48.87585532746823,4.887585532746823,180.84066471163246,229.7165200391007
249.26686217008796,14.662756598240469,1221.8963831867059,87.97653958944282,4.887585532746823,102.63929618768329,63.53861192570871
92.86412512218965,0.0,703.8123167155426,19.550342130987293,141.73998044965788,14.662756598240469,9.775171065493646
4.887585532746823,4.887585532746823,34.21309872922776,4.887585532746823,9.775171065493646,9.775171065493646,39.100684261974585
0.0,127.07722385141741,9.775171065493646,0.0,4.887585532746823,87.97653958944282,83.08895405669598
219.94134897360706,127.07722385141741,4.887585532746823,122.18963831867057,87.97653958944282,249.26686217008796,259.04203323558164
229.7165200391007,9.775171065493646,425.2199413489736,102.63929618768329,415.44477028347995,14.662756598240469,14.662756598240469
19.550342130987293,4.887585532746823,640.2737047898338,4.887585532746823,112.41446725317694,117.30205278592375,0.0
9.775171065493646,0.0,83.08895405669598,0.0,0.0,87.97653958944282,58.651026392961874
48.87585532746823,185.7282502443793,87.97653958944282,9.775171065493646,131.96480938416423,171.0654936461388,234.6041055718475
263.92961876832845,48.87585532746823,102.63929618768329,122.18963831867057,332.35581622678393,19.550342130987293,73.31378299120234
92.86412512218965,4.887585532746823,757.5757575757576,131.96480938416423,102.63929618768329,9.775171065493646,0.0
9.775171065493646,9.775171065493646,131.96480938416423,9.775171065493646,131.96480938416423,92.86412512218965,39.100684261974585
0.0,73.31378299120234,29.325513196480937,9.775171065493646,146.6275659824047,938.41642228739,58.651026392961874
239.49169110459434,166.17790811339196,205.27859237536657,58.651026392961874,4.887585532746823,78.20136852394917,249.26686217008796
254.15444770283483,14.662756598240469,43.98826979472141,102.63929618768329,78.20136852394917,19.550342130987293,24.437927663734115
24.437927663734115,0.0,87.97653958944282,24.437927663734115,430.10752688172045,14.662756598240469,4.887585532746823
4.887585532746823,4.887585532746823,303.03030303030306,9.775171065493646,249.26686217008796,92.86412512218965,68.42619745845552
53.763440860215056,166.17790811339196,141.73998044965788,4.887585532746823,127.07722385141741,195.50342130987292,200.39100684261973
239.49169110459434,117.30205278592375,29.325513196480937,127.07722385141741,87.97653958944282,83.08895405669598,73.31378299120234
87.97653958944282,9.775171065493646,131.96480938416423,83.08895405669598,219.94134897360706,87.97653958944282,0.0
4.887585532746823,4.887585532746823,19.550342130987293,14.662756598240469,9.775171065493646,4.887585532746823,34.21309872922776
0.0,4.887585532746823,278.5923753665689,9.775171065493646,4.887585532746823,347.0185728250244,87.97653958944282
210.16617790811338,195.50342130987292,806.4516129032257,29.325513196480937,161.29032258064515,337.2434017595308,259.04203323558164
239.49169110459434,58.651026392961874,87.97653958944282,136.85239491691104,342.1309872922776,24.437927663734115,14.662756598240469
14.662756598240469,4.887585532746823,9.775171065493646,83.08895405669598,83.08895405669598,29.325513196480937,9.775171065493646
0.0,4.887585532746823,9.775171065493646,9.775171065493646,303.03030303030306,312.8054740957967,68.42619745845552
48.87585532746823,53.763440860215056,24.437927663734115,9.775171065493646,58.651026392961874,136.85239491691104,195.50342130987292
259.04203323558164,161.29032258064515,48.87585532746823,83.08895405669598,117.30205278592375,14.662756598240469,63.53861192570871
92.86412512218965,24.437927663734115,601.1730205278593,83.08895405669598,483.8709677419355,63.53861192570871,9.775171065493646
9.775171065493646,4.887585532746823,43.98826979472141,24.437927663734115,63.53861192570871,303.03030303030306,34.21309872922776
9.775171065493646,4.887585532746823,522.9716520039101,4.887585532746823,19.550342130987293,454.54545454545456,68.42619745845552
215.05376344086022,127.07722385141741,97.75171065493646,9.775171065493646,53.763440860215056,48.87585532746823,239.49169110459434
249.26686217008796,122.18963831867057,273.7047898338221,151.51515151515153,185.7282502443793,24.437927663734115,14.662756598240469
19.550342130987293,9.775171065493646,210.16617790811338,117.30205278592375,24.437927663734115,268.81720430107526,0.0
0.0,9.775171065493646,215.05376344086022,14.662756598240469,9.775171065493646,327.4682306940371,78.20136852394917
43.98826979472141,4.887585532746823,826.0019550342131,9.775171065493646,43.98826979472141,48.87585532746823,210.16617790811338
224.82893450635387,244.37927663734115,29.325513196480937,4.887585532746823,327.4682306940371,0.0,73.31378299120234
190.6158357771261,73.31378299120234,68.42619745845552,117.30205278592375,97.75171065493646,698.9247311827957,0.0
9.775171065493646,4.887585532746823,97.75171065493646,73.31378299120234,29.325513196480937,703.8123167155426,29.325513196480937
0.0,0.0,703.8123167155426,9.775171065493646,4.887585532746823,19.550342130987293,53.763440860215056
131.96480938416423,48.87585532746823,14.662756598240469,9.775171065493646,185.7282502443793,9.775171065493646,239.49169110459434
254.15444770283483,166.17790811339196,4.887585532746823,68.42619745845552,376.3440860215054,14.662756598240469,14.662756598240469
53.763440860215056,9.775171065493646,78.20136852394917,122.18963831867057,24.437927663734115,596.2854349951125,4.887585532746823
9.775171065493646,9.775171065493646,620.7233626588466,39.100684261974585,190.6158357771261,215.05376344086022,83.08895405669598
39.100684261974585,0.0,337.2434017595308,4.887585532746823,34.21309872922776,83.08895405669598,195.50342130987292
219.94134897360706,156.40273704789834,53.763440860215056,0.0,141.73998044965788,298.14271749755625,68.42619745845552
190.6158357771261,122.18963831867057,34.21309872922776,107.52688172043011,83.08895405669598,161.29032258064515,4.887585532746823
9.775171065493646,9.775171065493646,180.84066471163246,43.98826979472141,4.887585532746823,234.6041055718475,24.437927663734115
0.0,9.775171065493646,117.30205278592375,19.550342130987293,29.325513196480937,92.86412512218965,68.42619745845552
131.96480938416423,4.887585532746823,244.37927663734115,4.887585532746823,351.9061583577713,972.6295210166178,254.15444770283483
254.15444770283483,151.51515151515153,215.05376344086022,4.887585532746823,166.17790811339196,449.65786901270775,19.550342130987293
48.87585532746823,63.53861192570871,332.35581622678393,141.73998044965788,131.96480938416423,39.100684261974585,4.887585532746823
0.0,4.887585532746823,53.763440860215056,97.75171065493646,39.100684261974585,68.42619745845552,102.63929618768329
34.21309872922776,9.775171065493646,161.29032258064515,9.775171065493646,151.51515151515153,420.33235581622677,195.50342130987292
219.94134897360706,4.887585532746823,24.437927663734115,4.887585532746823,190.6158357771261,835.7771260997067,87.97653958944282
190.6158357771261,166.17790811339196,97.75171065493646,9.775171065493646,180.84066471163246,34.21309872922776,4.887585532746823
9.775171065493646,425.2199413489736,322.5806451612903,146.6275659824047,14.662756598240469,24.437927663734115,19.550342130987293
0.0,19.550342130987293,381.2316715542522,58.651026392961874,4.887585532746823,9.775171065493646,73.31378299120234
112.41446725317694,4.887585532746823,53.763440860215056,9.775171065493646,4.887585532746823,904.2033235581623,288.36754643206257
268.81720430107526,102.63929618768329,224.82893450635387,0.0,273.7047898338221,73.31378299120234,24.437927663734115
53.763440860215056,58.651026392961874,87.97653958944282,48.87585532746823,474.0957966764418,146.6275659824047,9.775171065493646
4.887585532746823,9.775171065493646,161.29032258064515,229.7165200391007,738.0254154447704,78.20136852394917,78.20136852394917
4.887585532746823,4.887585532746823,63.53861192570871,63.53861192570871,195.50342130987292,303.03030303030306,259.04203323558164
4.887585532746823,0.0,293.2551319648094,4.887585532746823,24.437927663734115,39.100684261974585,78.20136852394917
259.04203323558164,4.887585532746823,29.325513196480937,0.0,4.887585532746823,78.20136852394917,0.0
400.78201368523946,171.0654936461388,195.50342130987292,127.07722385141741,4.887585532746823,29.325513196480937,29.325513196480937
14.662756598240469,9.775171065493646,43.98826979472141,4.887585532746823,278.5923753665689,127.07722385141741,73.31378299120234
0.0,34.21309872922776,112.41446725317694,0.0,307.91788856304987,767.3509286412512,273.7047898338221
679.3743890518084,777.1260997067449,215.05376344086022,972.6295210166178,547.4095796676442,78.20136852394917,19.550342130987293
566.9599217986315,92.86412512218965,234.6041055718475,122.18963831867057,9.775171065493646,4.887585532746823,4.887585532746823
869.9902248289345,92.86412512218965,19.550342130987293,68.42619745845552,9.775171065493646,434.99511241446726,92.86412512218965
391.00684261974584,4.887585532746823,347.0185728250244,0.0,317.6930596285435,356.7937438905181,210.16617790811338
102.63929618768329,9.775171065493646,83.08895405669598,0.0,249.26686217008796,127.07722385141741,87.97653958944282
19.550342130987293,180.84066471163246,244.37927663734115,650.0488758553274,19.550342130987293,185.7282502443793,4.887585532746823
9.775171065493646,146.6275659824047,219.94134897360706,615.8357771260997,9.775171065493646,395.89442815249265,9.775171065493646
298.14271749755625,58.651026392961874,122.18963831867057,112.41446725317694,0.0,146.6275659824047,58.651026392961874
122.18963831867057,694.0371456500488,200.39100684261973,14.662756598240469,249.26686217008796,53.763440860215056,273.7047898338221
14.662756598240469,107.52688172043011,322.5806451612903,14.662756598240469,83.08895405669598,171.0654936461388,24.437927663734115
0.0,14.662756598240469,122.18963831867057,34.21309872922776,4.887585532746823,29.325513196480937,4.887585532746823
0.0,24.437927663734115,4.887585532746823,14.662756598240469,83.08895405669598,425.2199413489736,87.97653958944282
224.82893450635387,4.887585532746823,439.8826979472141,4.887585532746823,293.2551319648094,19.550342130987293,210.16617790811338
215.05376344086022,244.37927663734115,268.81720430107526,4.887585532746823,131.96480938416423,9.775171065493646,83.08895405669598
4.887585532746823,175.95307917888564,14.662756598240469,151.51515151515153,14.662756598240469,0.0,4.887585532746823
4.887585532746823,9.775171065493646,136.85239491691104,107.52688172043011,0.0,0.0,0.0
312.8054740957967,0.0,229.7165200391007,43.98826979472141,591.3978494623656,376.3440860215054,63.53861192570871
283.47996089931576,171.0654936461388,488.7585532746823,0.0,87.97653958944282,640.2737047898338,278.5923753665689
43.98826979472141,1588.4652981427175,14.662756598240469,0.0,117.30205278592375,293.2551319648094,19.550342130987293
4.887585532746823,43.98826979472141,29.325513196480937,215.05376344086022,674.4868035190616,97.75171065493646,0.0
0.0,4.887585532746823,434.99511241446726,156.40273704789834,39.100684261974585,259.04203323558164,58.651026392961874
483.8709677419355,0.0,34.21309872922776,34.21309872922776,63.53861192570871,298.14271749755625,205.27859237536657
63.53861192570871,4.887585532746823,102.63929618768329,4.887585532746823,29.325513196480937,102.63929618768329,92.86412512218965
19.550342130987293,0.0,68.42619745845552,4.887585532746823,9.775171065493646,464.3206256109482,14.662756598240469
0.0,522.9716520039101,92.86412512218965,386.119257086999,4.887585532746823,146.6275659824047,14.662756598240469
195.50342130987292,615.8357771260997,151.51515151515153,97.75171065493646,58.651026392961874,112.41446725317694,58.651026392961874
19.550342130987293,73.31378299120234,185.7282502443793,0.0,122.18963831867057,171.0654936461388,254.15444770283483
200.39100684261973,4.887585532746823,4.887585532746823,4.887585532746823,4.887585532746823,244.37927663734115,14.662756598240469
14.662756598240469,161.29032258064515,122.18963831867057,1432.0625610948193,0.0,689.149560117302,4.887585532746823
19.550342130987293,53.763440860215056,151.51515151515153,63.53861192570871,58.651026392961874,58.651026392961874,68.42619745845552
122.18963831867057,19.550342130987293,400.78201368523946,39.100684261974585,263.92961876832845,9.775171065493646,161.29032258064515
14.662756598240469,278.5923753665689,53.763440860215056,4.887585532746823,146.6275659824047,620.7233626588466,73.31378299120234
200.39100684261973,4.887585532746823,14.662756598240469,210.16617790811338,9.775171065493646,195.50342130987292,9.775171065493646
224.82893450635387,1133.919843597263,386.119257086999,581.622678396872,9.775171065493646,175.95307917888564,4.887585532746823
14.662756598240469,53.763440860215056,234.6041055718475,34.21309872922776,400.78201368523946,195.50342130987292,58.651026392961874
112.41446725317694,215.05376344086022,39.100684261974585,4.887585532746823,107.52688172043011,87.97653958944282,273.7047898338221
146.6275659824047,102.63929618768329,4.887585532746823,127.07722385141741,9.775171065493646,78.20136852394917,24.437927663734115
39.100684261974585,9.775171065493646,195.50342130987292,772.238514173998,9.775171065493646,664.7116324535679,4.887585532746823
4.887585532746823,0.0,278.5923753665689,131.96480938416423,34.21309872922776,48.87585532746823,78.20136852394917
92.86412512218965,860.2150537634409,24.437927663734115,0.0,268.81720430107526,102.63929618768329,161.29032258064515
317.6930596285435,175.95307917888564,522.9716520039101,0.0,39.100684261974585,332.35581622678393,97.75171065493646
63.53861192570871,254.15444770283483,68.42619745845552,1114.3695014662756,29.325513196480937,131.96480938416423,9.775171065493646
0.0,53.763440860215056,141.73998044965788,249.26686217008796,4.887585532746823,9.775171065493646,14.662756598240469
4.887585532746823,483.8709677419355,24.437927663734115,14.662756598240469,92.86412512218965,312.8054740957967,43.98826979472141
234.6041055718475,58.651026392961874,4.887585532746823,0.0,73.31378299120234,298.14271749755625,268.81720430107526
200.39100684261973,9.775171065493646,141.73998044965788,107.52688172043011,9.775171065493646,19.550342130987293,48.87585532746823
39.100684261974585,92.86412512218965,161.29032258064515,1256.1094819159334,63.53861192570871,249.26686217008796,9.775171065493646
4.887585532746823,14.662756598240469,219.94134897360706,43.98826979472141,576.7350928641251,161.29032258064515,87.97653958944282
9.775171065493646,1256.1094819159334,24.437927663734115,63.53861192570871,434.99511241446726,19.550342130987293,151.51515151515153
151.51515151515153,58.651026392961874,43.98826979472141,19.550342130987293,542.5219941348973,68.42619745845552,102.63929618768329
195.50342130987292,107.52688172043011,102.63929618768329,53.763440860215056,19.550342130987293,141.73998044965788,0.0
73.31378299120234,19.550342130987293,298.14271749755625,175.95307917888564,14.662756598240469,664.7116324535679,9.775171065493646
0.0,708.6999022482894,92.86412512218965,322.5806451612903,136.85239491691104,244.37927663734115,58.651026392961874
190.6158357771261,29.325513196480937,34.21309872922776,307.91788856304987,29.325513196480937,112.41446725317694,268.81720430107526
215.05376344086022,117.30205278592375,151.51515151515153,19.550342130987293,4.887585532746823,9.775171065493646,19.550342130987293
9.775171065493646,337.2434017595308,195.50342130987292,9.775171065493646,9.775171065493646,73.31378299120234,9.775171065493646
4.887585532746823,127.07722385141741,483.8709677419355,136.85239491691104,68.42619745845552,312.8054740957967,39.100684261974585
131.96480938416423,171.0654936461388,43.98826979472141,317.6930596285435,146.6275659824047,122.18963831867057,83.08895405669598
254.15444770283483,9.775171065493646,78.20136852394917,146.6275659824047,39.100684261974585,24.437927663734115,244.37927663734115
97.75171065493646,9.775171065493646,112.41446725317694,151.51515151515153,4.887585532746823,205.27859237536657,14.662756598240469
4.887585532746823,29.325513196480937,9.775171065493646,19.550342130987293,4.887585532746823,288.36754643206257,4.887585532746823
4.887585532746823,141.73998044965788,92.86412512218965,87.97653958944282,97.75171065493646,83.08895405669598,83.08895405669598
166.17790811339196,68.42619745845552,4.887585532746823,146.6275659824047,273.7047898338221,43.98826979472141,239.49169110459434
307.91788856304987,190.6158357771261,498.5337243401759,645.1612903225806,34.21309872922776,107.52688172043011,48.87585532746823
48.87585532746823,53.763440860215056,73.31378299120234,151.51515151515153,0.0,293.2551319648094,4.887585532746823
0.0,53.763440860215056,19.550342130987293,273.7047898338221,4.887585532746823,146.6275659824047,43.98826979472141
58.651026392961874,9.775171065493646,43.98826979472141,635.386119257087,293.2551319648094,151.51515151515153,117.30205278592375
239.49169110459434,400.78201368523946,180.84066471163246,9.775171065493646,166.17790811339196,14.662756598240469,219.94134897360706
53.763440860215056,107.52688172043011,87.97653958944282,791.7888563049853,39.100684261974585,200.39100684261973,14.662756598240469
4.887585532746823,430.10752688172045,19.550342130987293,78.20136852394917,4.887585532746823,703.8123167155426,0.0
117.30205278592375,78.20136852394917,122.18963831867057,141.73998044965788,0.0,19.550342130987293,102.63929618768329
229.7165200391007,34.21309872922776,34.21309872922776,215.05376344086022,63.53861192570871,0.0,273.7047898338221
151.51515151515153,9.775171065493646,229.7165200391007,273.7047898338221,92.86412512218965,48.87585532746823,39.100684261974585
4.887585532746823,4.887585532746823,210.16617790811338,29.325513196480937,63.53861192570871,410.55718475073314,9.775171065493646
92.86412512218965,659.824046920821,78.20136852394917,180.84066471163246,14.662756598240469,156.40273704789834,9.775171065493646
234.6041055718475,200.39100684261973,4.887585532746823,562.0723362658846,322.5806451612903,131.96480938416423,24.437927663734115
87.97653958944282,39.100684261974585,146.6275659824047,53.763440860215056,122.18963831867057,151.51515151515153,171.0654936461388
39.100684261974585,19.550342130987293,141.73998044965788,224.82893450635387,9.775171065493646,92.86412512218965,48.87585532746823
0.0,410.55718475073314,122.18963831867057,444.77028347996094,0.0,215.05376344086022,0.0
234.6041055718475,43.98826979472141,24.437927663734115,425.2199413489736,131.96480938416423,19.550342130987293,39.100684261974585
239.49169110459434,166.17790811339196,78.20136852394917,420.33235581622677,146.6275659824047,34.21309872922776,102.63929618768329
24.437927663734115,43.98826979472141,493.6461388074291,19.550342130987293,9.775171065493646,342.1309872922776,254.15444770283483
4.887585532746823,200.39100684261973,161.29032258064515,107.52688172043011,14.662756598240469,127.07722385141741,14.662756598240469
9.775171065493646,171.0654936461388,34.21309872922776,601.1730205278593,0.0,58.651026392961874,0.0
97.75171065493646,14.662756598240469,14.662756598240469,298.14271749755625,34.21309872922776,219.94134897360706,58.651026392961874
425.2199413489736,0.0,107.52688172043011,29.325513196480937,747.800586510264,122.18963831867057,244.37927663734115
53.763440860215056,0.0,205.27859237536657,156.40273704789834,112.41446725317694,200.39100684261973,58.651026392961874
4.887585532746823,1089.9315738025416,478.9833822091887,102.63929618768329,9.775171065493646,4.887585532746823,9.775171065493646
185.7282502443793,200.39100684261973,87.97653958944282,117.30205278592375,29.325513196480937,4.887585532746823,24.437927663734115
215.05376344086022,29.325513196480937,166.17790811339196,9.775171065493646,444.77028347996094,219.94134897360706,151.51515151515153
78.20136852394917,0.0,24.437927663734115,332.35581622678393,92.86412512218965,87.97653958944282,224.82893450635387
4.887585532746823,0.0,4.887585532746823,288.36754643206257,14.662756598240469,268.81720430107526,4.887585532746823
58.651026392961874,356.7937438905181,9.775171065493646,190.6158357771261,0.0,14.662756598240469,4.887585532746823
117.30205278592375,449.65786901270775,68.42619745845552,586.5102639296188,117.30205278592375,39.100684261974585,78.20136852394917
239.49169110459434,58.651026392961874,376.3440860215054,4.887585532746823,53.763440860215056,107.52688172043011,219.94134897360706
14.662756598240469,9.775171065493646,112.41446725317694,953.0791788856305,63.53861192570871,332.35581622678393,58.651026392961874
0.0,522.9716520039101,9.775171065493646,386.119257086999,4.887585532746823,39.100684261974585,0.0
102.63929618768329,92.86412512218965,0.0,24.437927663734115,4.887585532746823,73.31378299120234,34.21309872922776
474.0957966764418,92.86412512218965,522.9716520039101,29.325513196480937,107.52688172043011,312.8054740957967,73.31378299120234
34.21309872922776,127.07722385141741,39.100684261974585,63.53861192570871,92.86412512218965,156.40273704789834,259.04203323558164
4.887585532746823,278.5923753665689,73.31378299120234,83.08895405669598,4.887585532746823,102.63929618768329,14.662756598240469
0.0,34.21309872922776,14.662756598240469,224.82893450635387,14.662756598240469,9.775171065493646,0.0
371.4565004887586,0.0,39.100684261974585,415.44477028347995,73.31378299120234,303.03030303030306,97.75171065493646
136.85239491691104,4.887585532746823,557.1847507331378,131.96480938416423,263.92961876832845,278.5923753665689,234.6041055718475
14.662756598240469,68.42619745845552,14.662756598240469,307.91788856304987,34.21309872922776,263.92961876832845,53.763440860215056
9.775171065493646,68.42619745845552,83.08895405669598,215.05376344086022,9.775171065493646,19.550342130987293,0.0
127.07722385141741,239.49169110459434,68.42619745845552,29.325513196480937,0.0,9.775171065493646,43.98826979472141
195.50342130987292,63.53861192570871,395.89442815249265,263.92961876832845,219.94134897360706,224.82893450635387,78.20136852394917
107.52688172043011,131.96480938416423,234.6041055718475,210.16617790811338,425.2199413489736,185.7282502443793,234.6041055718475
4.887585532746823,459.4330400782014,34.21309872922776,19.550342130987293,34.21309872922776,395.89442815249265,9.775171065493646
63.53861192570871,24.437927663734115,9.775171065493646,317.6930596285435,4.887585532746823,19.550342130987293,0.0
293.2551319648094,4.887585532746823,391.00684261974584,620.7233626588466,9.775171065493646,0.0,53.763440860215056
180.84066471163246,0.0,48.87585532746823,19.550342130987293,127.07722385141741,478.9833822091887,219.94134897360706
9.775171065493646,29.325513196480937,9.775171065493646,190.6158357771261,34.21309872922776,234.6041055718475,53.763440860215056
4.887585532746823,1647.1163245356793,14.662756598240469,307.91788856304987,9.775171065493646,14.662756598240469,0.0
58.651026392961874,263.92961876832845,14.662756598240469,425.2199413489736,0.0,4.887585532746823,14.662756598240469
332.35581622678393,14.662756598240469,361.6813294232649,175.95307917888564,53.763440860215056,239.49169110459434,83.08895405669598
34.21309872922776,102.63929618768329,351.9061583577713,78.20136852394917,122.18963831867057,215.05376344086022,239.49169110459434
14.662756598240469,127.07722385141741,53.763440860215056,9.775171065493646,24.437927663734115,24.437927663734115,14.662756598240469
53.763440860215056,4.887585532746823,9.775171065493646,601.1730205278593,14.662756598240469,9.775171065493646,9.775171065493646
141.73998044965788,87.97653958944282,122.18963831867057,97.75171065493646,9.775171065493646,117.30205278592375,122.18963831867057
195.50342130987292,87.97653958944282,454.54545454545456,53.763440860215056,425.2199413489736,410.55718475073314,234.6041055718475
4.887585532746823,229.7165200391007,527.8592375366569,1119.2570869990225,43.98826979472141,112.41446725317694,34.21309872922776
4.887585532746823,19.550342130987293,175.95307917888564,303.03030303030306,293.2551319648094,14.662756598240469,4.887585532746823
303.03030303030306,4.887585532746823,610.9481915933529,508.30889540566966,68.42619745845552,4.887585532746823,4.887585532746823
303.03030303030306,0.0,48.87585532746823,180.84066471163246,19.550342130987293,87.97653958944282,58.651026392961874
29.325513196480937,43.98826979472141,39.100684261974585,9.775171065493646,332.35581622678393,117.30205278592375,254.15444770283483
9.775171065493646,14.662756598240469,78.20136852394917,48.87585532746823,131.96480938416423,141.73998044965788,19.550342130987293
58.651026392961874,136.85239491691104,259.04203323558164,136.85239491691104,14.662756598240469,29.325513196480937,4.887585532746823
29.325513196480937,268.81720430107526,14.662756598240469,48.87585532746823,4.887585532746823,254.15444770283483,68.42619745845552
259.04203323558164,78.20136852394917,48.87585532746823,395.89442815249265,14.662756598240469,273.7047898338221,205.27859237536657
29.325513196480937,14.662756598240469,4.887585532746823,347.0185728250244,317.6930596285435,171.0654936461388,53.763440860215056
24.437927663734115,78.20136852394917,34.21309872922776,102.63929618768329,87.97653958944282,24.437927663734115,4.887585532746823
200.39100684261973,185.7282502443793,112.41446725317694,332.35581622678393,9.775171065493646,4.887585532746823,14.662756598240469
102.63929618768329,669.5992179863147,151.51515151515153,78.20136852394917,4.887585532746823,259.04203323558164,141.73998044965788
87.97653958944282,679.3743890518084,19.550342130987293,195.50342130987292,215.05376344086022,102.63929618768329,219.94134897360706
9.775171065493646,78.20136852394917,58.651026392961874,136.85239491691104,175.95307917888564,29.325513196480937,14.662756598240469
4.887585532746823,4.887585532746823,425.2199413489736,557.1847507331378,9.775171065493646,4.887585532746823,4.887585532746823
146.6275659824047,0.0,83.08895405669598,39.100684261974585,4.887585532746823,117.30205278592375,48.87585532746823
317.6930596285435,337.2434017595308,161.29032258064515,347.0185728250244,43.98826979472141,210.16617790811338,195.50342130987292
39.100684261974585,508.30889540566966,151.51515151515153,24.437927663734115,151.51515151515153,97.75171065493646,102.63929618768329
4.887585532746823,9.775171065493646,4.887585532746823,73.31378299120234,48.87585532746823,24.437927663734115,0.0
234.6041055718475,4.887585532746823,4.887585532746823,39.100684261974585,0.0,83.08895405669598,9.775171065493646
249.26686217008796,195.50342130987292,478.9833822091887,68.42619745845552,19.550342130987293,307.91788856304987,151.51515151515153
122.18963831867057,171.0654936461388,34.21309872922776,474.0957966764418,733.1378299120234,527.8592375366569,239.49169110459434
4.887585532746823,9.775171065493646,127.07722385141741,68.42619745845552,200.39100684261973,9.775171065493646,19.550342130987293
9.775171065493646,0.0,48.87585532746823,884.6529814271751,24.437927663734115,24.437927663734115,9.775171065493646
68.42619745845552,4.887585532746823,131.96480938416423,39.100684261974585,9.775171065493646,327.4682306940371,63.53861192570871
293.2551319648094,83.08895405669598,9.775171065493646,576.7350928641251,43.98826979472141,136.85239491691104,185.7282502443793
29.325513196480937,478.9833822091887,4.887585532746823,449.65786901270775,234.6041055718475,63.53861192570871,78.20136852394917
9.775171065493646,34.21309872922776,234.6041055718475,918.8660801564027,92.86412512218965,9.775171065493646,9.775171065493646
141.73998044965788,63.53861192570871,425.2199413489736,122.18963831867057,0.0,92.86412512218965,14.662756598240469
122.18963831867057,78.20136852394917,83.08895405669598,522.9716520039101,9.775171065493646,615.8357771260997,122.18963831867057
102.63929618768329,351.9061583577713,9.775171065493646,298.14271749755625,78.20136852394917,19.550342130987293,185.7282502443793
4.887585532746823,39.100684261974585,141.73998044965788,19.550342130987293,219.94134897360706,63.53861192570871,29.325513196480937
29.325513196480937,39.100684261974585,185.7282502443793,454.54545454545456,19.550342130987293,337.2434017595308,4.887585532746823
200.39100684261973,303.03030303030306,219.94134897360706,92.86412512218965,9.775171065493646,278.5923753665689,73.31378299120234
180.84066471163246,488.7585532746823,58.651026392961874,127.07722385141741,0.0,68.42619745845552,190.6158357771261
14.662756598240469,190.6158357771261,29.325513196480937,9.775171065493646,175.95307917888564,175.95307917888564,107.52688172043011
4.887585532746823,4.887585532746823,190.6158357771261,395.89442815249265,278.5923753665689,34.21309872922776,9.775171065493646
34.21309872922776,29.325513196480937,97.75171065493646,244.37927663734115,29.325513196480937,464.3206256109482,4.887585532746823
171.0654936461388,303.03030303030306,87.97653958944282,376.3440860215054,53.763440860215056,39.100684261974585,83.08895405669598
327.4682306940371,43.98826979472141,102.63929618768329,78.20136852394917,29.325513196480937,9.775171065493646,249.26686217008796
29.325513196480937,68.42619745845552,127.07722385141741,43.98826979472141,107.52688172043011,4.887585532746823,19.550342130987293
4.887585532746823,4.887585532746823,29.325513196480937,298.14271749755625,146.6275659824047,43.98826979472141,9.775171065493646
112.41446725317694,9.775171065493646,420.33235581622677,263.92961876832845,4.887585532746823,283.47996089931576,58.651026392961874
366.5689149560117,332.35581622678393,24.437927663734115,219.94134897360706,4.887585532746823,58.651026392961874,185.7282502443793
48.87585532746823,24.437927663734115,122.18963831867057,293.2551319648094,141.73998044965788,24.437927663734115,92.86412512218965
0.0,703.8123167155426,68.42619745845552,127.07722385141741,117.30205278592375,9.775171065493646,9.775171065493646
58.651026392961874,39.100684261974585,43.98826979472141,4.887585532746823,151.51515151515153,293.2551319648094,4.887585532746823
244.37927663734115,537.6344086021505,4.887585532746823,576.7350928641251,29.325513196480937,78.20136852394917,151.51515151515153
122.18963831867057,34.21309872922776,9.775171065493646,24.437927663734115,87.97653958944282,63.53861192570871,273.7047898338221
4.887585532746823,1749.7556207233629,151.51515151515153,244.37927663734115,146.6275659824047,34.21309872922776,19.550342130987293
9.775171065493646,122.18963831867057,312.8054740957967,131.96480938416423,14.662756598240469,73.31378299120234,4.887585532746823
219.94134897360706,48.87585532746823,43.98826979472141,43.98826979472141,4.887585532746823,244.37927663734115,24.437927663734115
322.5806451612903,14.662756598240469,4.887585532746823,146.6275659824047,4.887585532746823,92.86412512218965,127.07722385141741
29.325513196480937,14.662756598240469,141.73998044965788,19.550342130987293,146.6275659824047,34.21309872922776,180.84066471163246
4.887585532746823,0.0,58.651026392961874,273.7047898338221,112.41446725317694,73.31378299120234,9.775171065493646
68.42619745845552,9.775171065493646,288.36754643206257,14.662756598240469,29.325513196480937,92.86412512218965,4.887585532746823
239.49169110459434,273.7047898338221,24.437927663734115,698.9247311827957,4.887585532746823,43.98826979472141,146.6275659824047
83.08895405669598,151.51515151515153,4.887585532746823,391.00684261974584,4.887585532746823,9.775171065493646,244.37927663734115
4.887585532746823,4.887585532746823,24.437927663734115,34.21309872922776,381.2316715542522,14.662756598240469,34.21309872922776
0.0,0.0,210.16617790811338,488.7585532746823,190.6158357771261,395.89442815249265,9.775171065493646
175.95307917888564,645.1612903225806,122.18963831867057,19.550342130987293,9.775171065493646,43.98826979472141,4.887585532746823
312.8054740957967,161.29032258064515,131.96480938416423,14.662756598240469,14.662756598240469,63.53861192570871,136.85239491691104
29.325513196480937,161.29032258064515,9.775171065493646,386.119257086999,244.37927663734115,4.887585532746823,224.82893450635387
4.887585532746823,14.662756598240469,303.03030303030306,508.30889540566966,175.95307917888564,24.437927663734115,19.550342130987293
29.325513196480937,425.2199413489736,29.325513196480937,19.550342130987293,29.325513196480937,454.54545454545456,9.775171065493646
307.91788856304987,73.31378299120234,14.662756598240469,425.2199413489736,4.887585532746823,117.30205278592375,68.42619745845552
200.39100684261973,19.550342130987293,131.96480938416423,259.04203323558164,0.0,29.325513196480937,229.7165200391007
14.662756598240469,4.887585532746823,14.662756598240469,19.550342130987293,200.39100684261973,9.775171065493646,92.86412512218965
4.887585532746823,0.0,175.95307917888564,361.6813294232649,87.97653958944282,571.8475073313783,9.775171065493646
73.31378299120234,171.0654936461388,53.763440860215056,210.16617790811338,4.887585532746823,146.6275659824047,4.887585532746823
303.03030303030306,317.6930596285435,29.325513196480937,9.775171065493646,4.887585532746823,9.775171065493646,112.41446725317694
39.100684261974585,87.97653958944282,9.775171065493646,351.9061583577713,53.763440860215056,4.887585532746823,244.37927663734115
4.887585532746823,9.775171065493646,200.39100684261973,136.85239491691104,107.52688172043011,63.53861192570871,19.550342130987293
0.0,0.0,229.7165200391007,136.85239491691104,19.550342130987293,244.37927663734115,0.0
312.8054740957967,312.8054740957967,19.550342130987293,107.52688172043011,9.775171065493646,87.97653958944282,43.98826979472141
200.39100684261973,650.0488758553274,4.887585532746823,83.08895405669598,0.0,9.775171065493646,146.6275659824047
14.662756598240469,24.437927663734115,371.4565004887586,122.18963831867057,268.81720430107526,19.550342130987293,190.6158357771261
0.0,4.887585532746823,73.31378299120234,210.16617790811338,244.37927663734115,513.1964809384165,4.887585532746823
24.437927663734115,190.6158357771261,434.99511241446726,127.07722385141741,9.775171065493646,185.7282502443793,0.0
180.84066471163246,518.0840664711633,29.325513196480937,488.7585532746823,0.0,29.325513196480937,127.07722385141741
244.37927663734115,14.662756598240469,14.662756598240469,151.51515151515153,63.53861192570871,14.662756598240469,229.7165200391007
14.662756598240469,48.87585532746823,0.0,48.87585532746823,185.7282502443793,229.7165200391007,48.87585532746823
4.887585532746823,987.2922776148582,141.73998044965788,24.437927663734115,161.29032258064515,92.86412512218965,4.887585532746823
205.27859237536657,43.98826979472141,63.53861192570871,474.0957966764418,34.21309872922776,9.775171065493646,58.651026392961874
