HandOpen,HandClose,Wrist Flexion,Wrist Extension,Supination,Pronation,Rest
97.75171065493646,0.0,4.887585532746823,43.98826979472141,19.550342130987293,9.775171065493646,9.775171065493646
68.42619745845552,9.775171065493646,24.437927663734115,19.550342130987293,9.775171065493646,24.437927663734115,4.887585532746823
43.98826979472141,9.775171065493646,39.100684261974585,4.887585532746823,4.887585532746823,14.662756598240469,4.887585532746823
19.550342130987293,19.550342130987293,39.100684261974585,4.887585532746823,9.775171065493646,19.550342130987293,0.0
9.775171065493646,63.53861192570871,24.437927663734115,9.775171065493646,4.887585532746823,14.662756598240469,4.887585532746823
9.775171065493646,83.08895405669598,24.437927663734115,19.550342130987293,9.775171065493646,19.550342130987293,4.887585532746823
4.887585532746823,97.75171065493646,9.775171065493646,29.325513196480937,9.775171065493646,4.887585532746823,9.775171065493646
9.775171065493646,58.651026392961874,9.775171065493646,39.100684261974585,24.437927663734115,0.0,4.887585532746823
4.887585532746823,24.437927663734115,9.775171065493646,53.763440860215056,78.20136852394917,9.775171065493646,4.887585532746823
4.887585532746823,14.662756598240469,9.775171065493646,58.651026392961874,151.51515151515153,9.775171065493646,0.0
4.887585532746823,9.775171065493646,4.887585532746823,63.53861192570871,151.51515151515153,0.0,0.0
9.775171065493646,9.775171065493646,4.887585532746823,53.763440860215056,102.63929618768329,0.0,0.0
0.0,4.887585532746823,4.887585532746823,24.437927663734115,58.651026392961874,4.887585532746823,9.775171065493646
39.100684261974585,9.775171065493646,4.887585532746823,14.662756598240469,34.21309872922776,0.0,4.887585532746823
73.31378299120234,9.775171065493646,34.21309872922776,14.662756598240469,4.887585532746823,9.775171065493646,39.100684261974585
83.08895405669598,0.0,58.651026392961874,0.0,14.662756598240469,14.662756598240469,58.651026392961874
83.08895405669598,0.0,53.763440860215056,4.887585532746823,4.887585532746823,9.775171065493646,78.20136852394917
68.42619745845552,4.887585532746823,53.763440860215056,9.775171065493646,0.0,29.325513196480937,73.31378299120234
39.100684261974585,9.775171065493646,34.21309872922776,9.775171065493646,0.0,14.662756598240469,58.651026392961874
19.550342130987293,24.437927663734115,9.775171065493646,9.775171065493646,9.775171065493646,9.775171065493646,43.98826979472141
9.775171065493646,34.21309872922776,9.775171065493646,9.775171065493646,4.887585532746823,9.775171065493646,63.53861192570871
9.775171065493646,34.21309872922776,4.887585532746823,9.775171065493646,9.775171065493646,9.775171065493646,68.42619745845552
0.0,19.550342130987293,9.775171065493646,29.325513196480937,19.550342130987293,0.0,24.437927663734115
9.775171065493646,14.662756598240469,4.887585532746823,39.100684261974585,73.31378299120234,4.887585532746823,19.550342130987293
4.887585532746823,4.887585532746823,4.887585532746823,39.100684261974585,117.30205278592375,9.775171065493646,14.662756598240469
4.887585532746823,0.0,4.887585532746823,24.437927663734115,122.18963831867057,9.775171065493646,4.887585532746823
9.775171065493646,4.887585532746823,9.775171065493646,4.887585532746823,92.86412512218965,4.887585532746823,4.887585532746823
24.437927663734115,9.775171065493646,4.887585532746823,9.775171065493646,48.87585532746823,4.887585532746823,4.887585532746823
34.21309872922776,4.887585532746823,43.98826979472141,4.887585532746823,19.550342130987293,4.887585532746823,9.775171065493646
24.437927663734115,0.0,53.763440860215056,9.775171065493646,14.662756598240469,4.887585532746823,4.887585532746823
19.550342130987293,0.0,43.98826979472141,4.887585532746823,0.0,19.550342130987293,9.775171065493646
19.550342130987293,0.0,19.550342130987293,4.887585532746823,9.775171065493646,24.437927663734115,14.662756598240469
9.775171065493646,9.775171065493646,9.775171065493646,4.887585532746823,63.53861192570871,14.662756598240469,19.550342130987293
9.775171065493646,24.437927663734115,4.887585532746823,9.775171065493646,19.550342130987293,9.775171065493646,53.763440860215056
4.887585532746823,9.775171065493646,9.775171065493646,4.887585532746823,4.887585532746823,9.775171065493646,4.887585532746823
19.550342130987293,4.887585532746823,9.775171065493646,9.775171065493646,4.887585532746823,4.887585532746823,4.887585532746823
63.53861192570871,4.887585532746823,24.437927663734115,0.0,24.437927663734115,4.887585532746823,4.887585532746823
14.662756598240469,9.775171065493646,63.53861192570871,4.887585532746823,117.30205278592375,4.887585532746823,14.662756598240469
4.887585532746823,68.42619745845552,4.887585532746823,9.775171065493646,87.97653958944282,29.325513196480937,53.763440860215056
9.775171065493646,9.775171065493646,9.775171065493646,53.763440860215056,0.0,4.887585532746823,9.775171065493646
9.775171065493646,0.0,73.31378299120234,34.21309872922776,9.775171065493646,4.887585532746823,9.775171065493646
58.651026392961874,0.0,14.662756598240469,0.0,43.98826979472141,4.887585532746823,9.775171065493646
4.887585532746823,4.887585532746823,24.437927663734115,0.0,73.31378299120234,4.887585532746823,9.775171065493646
9.775171065493646,24.437927663734115,9.775171065493646,4.887585532746823,14.662756598240469,4.887585532746823,102.63929618768329
4.887585532746823,24.437927663734115,9.775171065493646,58.651026392961874,9.775171065493646,24.437927663734115,19.550342130987293
29.325513196480937,9.775171065493646,4.887585532746823,83.08895405669598,4.887585532746823,4.887585532746823,9.775171065493646
48.87585532746823,4.887585532746823,4.887585532746823,9.775171065493646,19.550342130987293,0.0,9.775171065493646
9.775171065493646,9.775171065493646,24.437927663734115,4.887585532746823,161.29032258064515,9.775171065493646,24.437927663734115
4.887585532746823,87.97653958944282,4.887585532746823,24.437927663734115,34.21309872922776,4.887585532746823,83.08895405669598
0.0,78.20136852394917,4.887585532746823,87.97653958944282,4.887585532746823,24.437927663734115,9.775171065493646
29.325513196480937,4.887585532746823,14.662756598240469,43.98826979472141,4.887585532746823,19.550342130987293,9.775171065493646
97.75171065493646,4.887585532746823,9.775171065493646,9.775171065493646,29.325513196480937,9.775171065493646,4.887585532746823
19.550342130987293,4.887585532746823,43.98826979472141,0.0,117.30205278592375,4.887585532746823,43.98826979472141
9.775171065493646,68.42619745845552,9.775171065493646,0.0,9.775171065493646,9.775171065493646,58.651026392961874
0.0,19.550342130987293,9.775171065493646,43.98826979472141,4.887585532746823,4.887585532746823,4.887585532746823
29.325513196480937,9.775171065493646,4.887585532746823,39.100684261974585,9.775171065493646,14.662756598240469,0.0
39.100684261974585,0.0,9.775171065493646,9.775171065493646,9.775171065493646,0.0,0.0
9.775171065493646,4.887585532746823,58.651026392961874,0.0,48.87585532746823,9.775171065493646,9.775171065493646
14.662756598240469,68.42619745845552,9.775171065493646,4.887585532746823,83.08895405669598,4.887585532746823,58.651026392961874
4.887585532746823,39.100684261974585,4.887585532746823,29.325513196480937,4.887585532746823,14.662756598240469,9.775171065493646
19.550342130987293,4.887585532746823,0.0,78.20136852394917,0.0,24.437927663734115,4.887585532746823
53.763440860215056,9.775171065493646,4.887585532746823,9.775171065493646,24.437927663734115,4.887585532746823,14.662756598240469
4.887585532746823,4.887585532746823,4.887585532746823,0.0,117.30205278592375,4.887585532746823,19.550342130987293
4.887585532746823,29.325513196480937,9.775171065493646,4.887585532746823,34.21309872922776,4.887585532746823,58.651026392961874
4.887585532746823,4.887585532746823,19.550342130987293,53.763440860215056,4.887585532746823,4.887585532746823,24.437927663734115
0.0,4.887585532746823,9.775171065493646,39.100684261974585,24.437927663734115,9.775171065493646,4.887585532746823
39.100684261974585,9.775171065493646,4.887585532746823,9.775171065493646,19.550342130987293,9.775171065493646,0.0
14.662756598240469,24.437927663734115,29.325513196480937,4.887585532746823,39.100684261974585,4.887585532746823,4.887585532746823
0.0,68.42619745845552,9.775171065493646,0.0,14.662756598240469,4.887585532746823,29.325513196480937
4.887585532746823,24.437927663734115,14.662756598240469,68.42619745845552,4.887585532746823,9.775171065493646,24.437927663734115
4.887585532746823,9.775171065493646,0.0,43.98826979472141,43.98826979472141,24.437927663734115,4.887585532746823
34.21309872922776,0.0,39.100684261974585,9.775171065493646,58.651026392961874,19.550342130987293,4.887585532746823
43.98826979472141,9.775171065493646,87.97653958944282,4.887585532746823,9.775171065493646,9.775171065493646,9.775171065493646
4.887585532746823,24.437927663734115,34.21309872922776,4.887585532746823,9.775171065493646,4.887585532746823,34.21309872922776
4.887585532746823,34.21309872922776,14.662756598240469,24.437927663734115,4.887585532746823,9.775171065493646,29.325513196480937
0.0,9.775171065493646,9.775171065493646,0.0,0.0,9.775171065493646,9.775171065493646
4.887585532746823,0.0,4.887585532746823,4.887585532746823,43.98826979472141,34.21309872922776,4.887585532746823
48.87585532746823,19.550342130987293,14.662756598240469,4.887585532746823,73.31378299120234,9.775171065493646,9.775171065493646
34.21309872922776,92.86412512218965,34.21309872922776,9.775171065493646,24.437927663734115,4.887585532746823,14.662756598240469
9.775171065493646,58.651026392961874,29.325513196480937,4.887585532746823,9.775171065493646,9.775171065493646,48.87585532746823
0.0,9.775171065493646,0.0,24.437927663734115,9.775171065493646,9.775171065493646,4.887585532746823
4.887585532746823,9.775171065493646,0.0,9.775171065493646,19.550342130987293,39.100684261974585,4.887585532746823
34.21309872922776,4.887585532746823,24.437927663734115,4.887585532746823,63.53861192570871,4.887585532746823,4.887585532746823
4.887585532746823,97.75171065493646,58.651026392961874,4.887585532746823,4.887585532746823,0.0,34.21309872922776
0.0,24.437927663734115,29.325513196480937,4.887585532746823,4.887585532746823,4.887585532746823,68.42619745845552
0.0,4.887585532746823,4.887585532746823,53.763440860215056,4.887585532746823,4.887585532746823,0.0
4.887585532746823,4.887585532746823,0.0,34.21309872922776,73.31378299120234,24.437927663734115,9.775171065493646
53.763440860215056,4.887585532746823,0.0,9.775171065493646,73.31378299120234,19.550342130987293,4.887585532746823
14.662756598240469,9.775171065493646,34.21309872922776,14.662756598240469,9.775171065493646,4.887585532746823,73.31378299120234
9.775171065493646,68.42619745845552,58.651026392961874,0.0,4.887585532746823,4.887585532746823,78.20136852394917
0.0,24.437927663734115,4.887585532746823,14.662756598240469,48.87585532746823,0.0,4.887585532746823
4.887585532746823,4.887585532746823,4.887585532746823,14.662756598240469,87.97653958944282,4.887585532746823,9.775171065493646
29.325513196480937,9.775171065493646,14.662756598240469,9.775171065493646,19.550342130987293,39.100684261974585,0.0
24.437927663734115,53.763440860215056,58.651026392961874,4.887585532746823,4.887585532746823,4.887585532746823,48.87585532746823
0.0,68.42619745845552,14.662756598240469,9.775171065493646,4.887585532746823,9.775171065493646,14.662756598240469
4.887585532746823,4.887585532746823,4.887585532746823,34.21309872922776,4.887585532746823,9.775171065493646,4.887585532746823
14.662756598240469,0.0,4.887585532746823,161.29032258064515,122.18963831867057,4.887585532746823,9.775171065493646
58.651026392961874,24.437927663734115,14.662756598240469,73.31378299120234,112.41446725317694,9.775171065493646,9.775171065493646
19.550342130987293,14.662756598240469,9.775171065493646,9.775171065493646,14.662756598240469,4.887585532746823,43.98826979472141
4.887585532746823,4.887585532746823,4.887585532746823,9.775171065493646,4.887585532746823,0.0,102.63929618768329
4.887585532746823,4.887585532746823,39.100684261974585,4.887585532746823,29.325513196480937,4.887585532746823,9.775171065493646
9.775171065493646,29.325513196480937,14.662756598240469,9.775171065493646,117.30205278592375,4.887585532746823,0.0
63.53861192570871,19.550342130987293,9.775171065493646,0.0,39.100684261974585,9.775171065493646,0.0
14.662756598240469,4.887585532746823,19.550342130987293,9.775171065493646,9.775171065493646,24.437927663734115,4.887585532746823
0.0,34.21309872922776,78.20136852394917,4.887585532746823,9.775171065493646,4.887585532746823,58.651026392961874
4.887585532746823,4.887585532746823,9.775171065493646,24.437927663734115,19.550342130987293,0.0,29.325513196480937
9.775171065493646,4.887585532746823,0.0,9.775171065493646,107.52688172043011,0.0,4.887585532746823
53.763440860215056,0.0,83.08895405669598,4.887585532746823,14.662756598240469,4.887585532746823,4.887585532746823
14.662756598240469,24.437927663734115,24.437927663734115,0.0,0.0,9.775171065493646,24.437927663734115
0.0,78.20136852394917,24.437927663734115,4.887585532746823,29.325513196480937,4.887585532746823,14.662756598240469
4.887585532746823,14.662756598240469,9.775171065493646,24.437927663734115,9.775171065493646,4.887585532746823,0.0
0.0,0.0,0.0,29.325513196480937,14.662756598240469,4.887585532746823,4.887585532746823
68.42619745845552,4.887585532746823,0.0,14.662756598240469,0.0,4.887585532746823,4.887585532746823
34.21309872922776,4.887585532746823,4.887585532746823,0.0,0.0,9.775171065493646,19.550342130987293
4.887585532746823,9.775171065493646,24.437927663734115,9.775171065493646,29.325513196480937,9.775171065493646,73.31378299120234
0.0,9.775171065493646,9.775171065493646,0.0,58.651026392961874,4.887585532746823,9.775171065493646
4.887585532746823,4.887585532746823,4.887585532746823,58.651026392961874,19.550342130987293,14.662756598240469,0.0
48.87585532746823,4.887585532746823,4.887585532746823,53.763440860215056,24.437927663734115,4.887585532746823,4.887585532746823
14.662756598240469,4.887585532746823,4.887585532746823,4.887585532746823,68.42619745845552,14.662756598240469,14.662756598240469
0.0,19.550342130987293,58.651026392961874,9.775171065493646,14.662756598240469,29.325513196480937,39.100684261974585
9.775171065493646,43.98826979472141,19.550342130987293,78.20136852394917,4.887585532746823,9.775171065493646,9.775171065493646
0.0,19.550342130987293,0.0,92.86412512218965,34.21309872922776,4.887585532746823,9.775171065493646
43.98826979472141,4.887585532746823,9.775171065493646,24.437927663734115,102.63929618768329,4.887585532746823,0.0
14.662756598240469,4.887585532746823,39.100684261974585,4.887585532746823,14.662756598240469,4.887585532746823,9.775171065493646
4.887585532746823,0.0,117.30205278592375,9.775171065493646,0.0,29.325513196480937,9.775171065493646
4.887585532746823,39.100684261974585,24.437927663734115,4.887585532746823,0.0,9.775171065493646,4.887585532746823
14.662756598240469,14.662756598240469,9.775171065493646,14.662756598240469,146.6275659824047,9.775171065493646,4.887585532746823
39.100684261974585,4.887585532746823,0.0,14.662756598240469,14.662756598240469,4.887585532746823,9.775171065493646
43.98826979472141,4.887585532746823,9.775171065493646,9.775171065493646,14.662756598240469,14.662756598240469,9.775171065493646
9.775171065493646,19.550342130987293,39.100684261974585,4.887585532746823,9.775171065493646,48.87585532746823,39.100684261974585
4.887585532746823,63.53861192570871,34.21309872922776,29.325513196480937,78.20136852394917,4.887585532746823,34.21309872922776
0.0,19.550342130987293,9.775171065493646,43.98826979472141,34.21309872922776,9.775171065493646,4.887585532746823
9.775171065493646,4.887585532746823,4.887585532746823,4.887585532746823,4.887585532746823,4.887585532746823,9.775171065493646
39.100684261974585,9.775171065493646,73.31378299120234,9.775171065493646,0.0,4.887585532746823,9.775171065493646
29.325513196480937,0.0,58.651026392961874,0.0,9.775171065493646,14.662756598240469,14.662756598240469
4.887585532746823,87.97653958944282,0.0,34.21309872922776,29.325513196480937,4.887585532746823,53.763440860215056
4.887585532746823,29.325513196480937,0.0,34.21309872922776,166.17790811339196,0.0,14.662756598240469
9.775171065493646,0.0,4.887585532746823,9.775171065493646,53.763440860215056,4.887585532746823,4.887585532746823
43.98826979472141,9.775171065493646,0.0,0.0,4.887585532746823,0.0,4.887585532746823
48.87585532746823,9.775171065493646,53.763440860215056,9.775171065493646,0.0,14.662756598240469,43.98826979472141
4.887585532746823,34.21309872922776,63.53861192570871,9.775171065493646,73.31378299120234,9.775171065493646,63.53861192570871
4.887585532746823,24.437927663734115,9.775171065493646,4.887585532746823,131.96480938416423,9.775171065493646,9.775171065493646
4.887585532746823,9.775171065493646,0.0,107.52688172043011,14.662756598240469,9.775171065493646,4.887585532746823
48.87585532746823,14.662756598240469,39.100684261974585,24.437927663734115,9.775171065493646,4.887585532746823,9.775171065493646
73.31378299120234,0.0,68.42619745845552,4.887585532746823,9.775171065493646,14.662756598240469,14.662756598240469
9.775171065493646,43.98826979472141,14.662756598240469,0.0,68.42619745845552,24.437927663734115,83.08895405669598
0.0,39.100684261974585,0.0,29.325513196480937,73.31378299120234,4.887585532746823,14.662756598240469
0.0,9.775171065493646,4.887585532746823,53.763440860215056,4.887585532746823,9.775171065493646,4.887585532746823
48.87585532746823,4.887585532746823,29.325513196480937,9.775171065493646,4.887585532746823,4.887585532746823,0.0
9.775171065493646,4.887585532746823,4.887585532746823,4.887585532746823,43.98826979472141,4.887585532746823,29.325513196480937
0.0,39.100684261974585,0.0,0.0,24.437927663734115,24.437927663734115,58.651026392961874
4.887585532746823,63.53861192570871,0.0,4.887585532746823,0.0,19.550342130987293,9.775171065493646
0.0,14.662756598240469,14.662756598240469,39.100684261974585,9.775171065493646,9.775171065493646,9.775171065493646
43.98826979472141,9.775171065493646,39.100684261974585,24.437927663734115,4.887585532746823,4.887585532746823,4.887585532746823
19.550342130987293,9.775171065493646,39.100684261974585,14.662756598240469,4.887585532746823,9.775171065493646,19.550342130987293
9.775171065493646,24.437927663734115,48.87585532746823,4.887585532746823,87.97653958944282,34.21309872922776,4.887585532746823
9.775171065493646,68.42619745845552,9.775171065493646,4.887585532746823,97.75171065493646,34.21309872922776,4.887585532746823
4.887585532746823,9.775171065493646,4.887585532746823,29.325513196480937,14.662756598240469,9.775171065493646,9.775171065493646
29.325513196480937,0.0,9.775171065493646,24.437927663734115,4.887585532746823,9.775171065493646,9.775171065493646
14.662756598240469,9.775171065493646,58.651026392961874,4.887585532746823,48.87585532746823,9.775171065493646,14.662756598240469
0.0,63.53861192570871,34.21309872922776,0.0,136.85239491691104,14.662756598240469,131.96480938416423
9.775171065493646,58.651026392961874,4.887585532746823,0.0,9.775171065493646,29.325513196480937,58.651026392961874
4.887585532746823,4.887585532746823,4.887585532746823,29.325513196480937,9.775171065493646,9.775171065493646,4.887585532746823
9.775171065493646,0.0,48.87585532746823,48.87585532746823,0.0,9.775171065493646,0.0
19.550342130987293,0.0,39.100684261974585,14.662756598240469,19.550342130987293,4.887585532746823,14.662756598240469
9.775171065493646,48.87585532746823,9.775171065493646,0.0,4.887585532746823,0.0,53.763440860215056
9.775171065493646,4.887585532746823,14.662756598240469,29.325513196480937,19.550342130987293,19.550342130987293,9.775171065493646
0.0,9.775171065493646,4.887585532746823,78.20136852394917,4.887585532746823,19.550342130987293,4.887585532746823
19.550342130987293,4.887585532746823,0.0,19.550342130987293,53.763440860215056,4.887585532746823,0.0
39.100684261974585,9.775171065493646,24.437927663734115,4.887585532746823,190.6158357771261,0.0,4.887585532746823
14.662756598240469,29.325513196480937,83.08895405669598,0.0,19.550342130987293,4.887585532746823,68.42619745845552
4.887585532746823,24.437927663734115,9.775171065493646,0.0,4.887585532746823,14.662756598240469,29.325513196480937
9.775171065493646,4.887585532746823,4.887585532746823,4.887585532746823,0.0,14.662756598240469,9.775171065493646
9.775171065493646,0.0,4.887585532746823,53.763440860215056,4.887585532746823,9.775171065493646,0.0
39.100684261974585,0.0,0.0,34.21309872922776,83.08895405669598,4.887585532746823,29.325513196480937
24.437927663734115,63.53861192570871,9.775171065493646,4.887585532746823,73.31378299120234,4.887585532746823,73.31378299120234
14.662756598240469,73.31378299120234,0.0,9.775171065493646,4.887585532746823,24.437927663734115,14.662756598240469
9.775171065493646,9.775171065493646,29.325513196480937,4.887585532746823,4.887585532746823,39.100684261974585,0.0
9.775171065493646,9.775171065493646,4.887585532746823,43.98826979472141,4.887585532746823,4.887585532746823,0.0
39.100684261974585,14.662756598240469,24.437927663734115,14.662756598240469,92.86412512218965,9.775171065493646,14.662756598240469
83.08895405669598,83.08895405669598,29.325513196480937,4.887585532746823,73.31378299120234,4.887585532746823,48.87585532746823
19.550342130987293,83.08895405669598,0.0,0.0,0.0,4.887585532746823,24.437927663734115
4.887585532746823,14.662756598240469,0.0,19.550342130987293,4.887585532746823,9.775171065493646,19.550342130987293
4.887585532746823,0.0,4.887585532746823,14.662756598240469,24.437927663734115,0.0,14.662756598240469
9.775171065493646,4.887585532746823,48.87585532746823,0.0,87.97653958944282,4.887585532746823,9.775171065493646
53.763440860215056,73.31378299120234,19.550342130987293,4.887585532746823,107.52688172043011,0.0,14.662756598240469
14.662756598240469,24.437927663734115,4.887585532746823,9.775171065493646,9.775171065493646,4.887585532746823,9.775171065493646
0.0,9.775171065493646,4.887585532746823,9.775171065493646,4.887585532746823,9.775171065493646,0.0
0.0,4.887585532746823,34.21309872922776,29.325513196480937,29.325513196480937,34.21309872922776,4.887585532746823
14.662756598240469,14.662756598240469,78.20136852394917,34.21309872922776,58.651026392961874,4.887585532746823,24.437927663734115
39.100684261974585,87.97653958944282,48.87585532746823,9.775171065493646,4.887585532746823,4.887585532746823,29.325513196480937
14.662756598240469,4.887585532746823,4.887585532746823,4.887585532746823,9.775171065493646,4.887585532746823,14.662756598240469
4.887585532746823,4.887585532746823,4.887585532746823,4.887585532746823,0.0,0.0,9.775171065493646
4.887585532746823,0.0,4.887585532746823,39.100684261974585,43.98826979472141,19.550342130987293,0.0
14.662756598240469,4.887585532746823,58.651026392961874,19.550342130987293,112.41446725317694,4.887585532746823,43.98826979472141
87.97653958944282,34.21309872922776,53.763440860215056,4.887585532746823,19.550342130987293,4.887585532746823,97.75171065493646
14.662756598240469,39.100684261974585,4.887585532746823,0.0,4.887585532746823,4.887585532746823,29.325513196480937
4.887585532746823,4.887585532746823,9.775171065493646,39.100684261974585,43.98826979472141,4.887585532746823,9.775171065493646
4.887585532746823,0.0,4.887585532746823,39.100684261974585,127.07722385141741,29.325513196480937,4.887585532746823
0.0,9.775171065493646,68.42619745845552,68.42619745845552,29.325513196480937,24.437927663734115,4.887585532746823
24.437927663734115,43.98826979472141,29.325513196480937,14.662756598240469,4.887585532746823,0.0,0.0
24.437927663734115,53.763440860215056,4.887585532746823,4.887585532746823,4.887585532746823,9.775171065493646,39.100684261974585
4.887585532746823,9.775171065493646,4.887585532746823,0.0,4.887585532746823,9.775171065493646,9.775171065493646
9.775171065493646,0.0,14.662756598240469,4.887585532746823,4.887585532746823,4.887585532746823,4.887585532746823
4.887585532746823,4.887585532746823,9.775171065493646,4.887585532746823,87.97653958944282,9.775171065493646,0.0
43.98826979472141,24.437927663734115,34.21309872922776,9.775171065493646,34.21309872922776,9.775171065493646,4.887585532746823
112.41446725317694,9.775171065493646,14.662756598240469,4.887585532746823,4.887585532746823,14.662756598240469,48.87585532746823
14.662756598240469,4.887585532746823,4.887585532746823,29.325513196480937,4.887585532746823,4.887585532746823,0.0
4.887585532746823,4.887585532746823,9.775171065493646,29.325513196480937,39.100684261974585,4.887585532746823,4.887585532746823
19.550342130987293,9.775171065493646,4.887585532746823,24.437927663734115,146.6275659824047,24.437927663734115,4.887585532746823
107.52688172043011,9.775171065493646,68.42619745845552,4.887585532746823,39.100684261974585,14.662756598240469,63.53861192570871
24.437927663734115,43.98826979472141,4.887585532746823,0.0,4.887585532746823,9.775171065493646,117.30205278592375
4.887585532746823,14.662756598240469,14.662756598240469,9.775171065493646,4.887585532746823,9.775171065493646,9.775171065493646
4.887585532746823,4.887585532746823,4.887585532746823,9.775171065493646,78.20136852394917,14.662756598240469,14.662756598240469
4.887585532746823,0.0,34.21309872922776,53.763440860215056,73.31378299120234,39.100684261974585,4.887585532746823
63.53861192570871,24.437927663734115,48.87585532746823,19.550342130987293,14.662756598240469,4.887585532746823,9.775171065493646
63.53861192570871,58.651026392961874,4.887585532746823,0.0,9.775171065493646,9.775171065493646,29.325513196480937
14.662756598240469,14.662756598240469,9.775171065493646,9.775171065493646,0.0,0.0,4.887585532746823
9.775171065493646,4.887585532746823,24.437927663734115,14.662756598240469,34.21309872922776,0.0,9.775171065493646
0.0,14.662756598240469,9.775171065493646,53.763440860215056,48.87585532746823,9.775171065493646,4.887585532746823
39.100684261974585,29.325513196480937,4.887585532746823,39.100684261974585,19.550342130987293,4.887585532746823,9.775171065493646
34.21309872922776,78.20136852394917,4.887585532746823,9.775171065493646,0.0,0.0,29.325513196480937
4.887585532746823,29.325513196480937,29.325513196480937,14.662756598240469,24.437927663734115,4.887585532746823,14.662756598240469
9.775171065493646,14.662756598240469,9.775171065493646,4.887585532746823,102.63929618768329,4.887585532746823,4.887585532746823
9.775171065493646,9.775171065493646,43.98826979472141,0.0,24.437927663734115,24.437927663734115,4.887585532746823
24.437927663734115,0.0,68.42619745845552,9.775171065493646,4.887585532746823,14.662756598240469,4.887585532746823
14.662756598240469,87.97653958944282,4.887585532746823,4.887585532746823,0.0,4.887585532746823,78.20136852394917
4.887585532746823,24.437927663734115,4.887585532746823,4.887585532746823,9.775171065493646,0.0,87.97653958944282
14.662756598240469,19.550342130987293,19.550342130987293,4.887585532746823,141.73998044965788,9.775171065493646,14.662756598240469
9.775171065493646,4.887585532746823,39.100684261974585,0.0,24.437927663734115,9.775171065493646,4.887585532746823
19.550342130987293,4.887585532746823,4.887585532746823,24.437927663734115,9.775171065493646,24.437927663734115,9.775171065493646
63.53861192570871,14.662756598240469,9.775171065493646,29.325513196480937,9.775171065493646,4.887585532746823,63.53861192570871
9.775171065493646,4.887585532746823,0.0,0.0,9.775171065493646,4.887585532746823,19.550342130987293
9.775171065493646,19.550342130987293,0.0,9.775171065493646,102.63929618768329,4.887585532746823,4.887585532746823
4.887585532746823,29.325513196480937,43.98826979472141,9.775171065493646,83.08895405669598,9.775171065493646,39.100684261974585
9.775171065493646,14.662756598240469,24.437927663734115,68.42619745845552,9.775171065493646,19.550342130987293,24.437927663734115
34.21309872922776,9.775171065493646,4.887585532746823,29.325513196480937,4.887585532746823,43.98826979472141,39.100684261974585
9.775171065493646,24.437927663734115,4.887585532746823,0.0,19.550342130987293,4.887585532746823,4.887585532746823
4.887585532746823,9.775171065493646,9.775171065493646,4.887585532746823,146.6275659824047,4.887585532746823,4.887585532746823
0.0,4.887585532746823,19.550342130987293,4.887585532746823,87.97653958944282,9.775171065493646,4.887585532746823
29.325513196480937,9.775171065493646,58.651026392961874,4.887585532746823,14.662756598240469,9.775171065493646,4.887585532746823
102.63929618768329,73.31378299120234,39.100684261974585,4.887585532746823,9.775171065493646,19.550342130987293,43.98826979472141
29.325513196480937,146.6275659824047,9.775171065493646,0.0,19.550342130987293,9.775171065493646,73.31378299120234
9.775171065493646,24.437927663734115,4.887585532746823,9.775171065493646,117.30205278592375,9.775171065493646,19.550342130987293
0.0,102.63929618768329,4.887585532746823,24.437927663734115,19.550342130987293,9.775171065493646,9.775171065493646
0.0,9.775171065493646,24.437927663734115,78.20136852394917,0.0,4.887585532746823,14.662756598240469
29.325513196480937,9.775171065493646,58.651026392961874,14.662756598240469,0.0,29.325513196480937,43.98826979472141
29.325513196480937,112.41446725317694,9.775171065493646,14.662756598240469,63.53861192570871,9.775171065493646,19.550342130987293
9.775171065493646,34.21309872922776,4.887585532746823,4.887585532746823,63.53861192570871,4.887585532746823,4.887585532746823
0.0,43.98826979472141,9.775171065493646,0.0,14.662756598240469,4.887585532746823,9.775171065493646
4.887585532746823,14.662756598240469,19.550342130987293,19.550342130987293,4.887585532746823,4.887585532746823,4.887585532746823
43.98826979472141,9.775171065493646,24.437927663734115,107.52688172043011,4.887585532746823,19.550342130987293,34.21309872922776
43.98826979472141,43.98826979472141,9.775171065493646,14.662756598240469,4.887585532746823,24.437927663734115,19.550342130987293
4.887585532746823,14.662756598240469,4.887585532746823,9.775171065493646,97.75171065493646,14.662756598240469,4.887585532746823
4.887585532746823,9.775171065493646,34.21309872922776,9.775171065493646,19.550342130987293,9.775171065493646,9.775171065493646
9.775171065493646,0.0,48.87585532746823,19.550342130987293,9.775171065493646,9.775171065493646,0.0
4.887585532746823,9.775171065493646,24.437927663734115,4.887585532746823,9.775171065493646,4.887585532746823,19.550342130987293
43.98826979472141,48.87585532746823,9.775171065493646,4.887585532746823,48.87585532746823,14.662756598240469,43.98826979472141
14.662756598240469,4.887585532746823,9.775171065493646,9.775171065493646,107.52688172043011,4.887585532746823,19.550342130987293
0.0,4.887585532746823,4.887585532746823,0.0,9.775171065493646,9.775171065493646,4.887585532746823
0.0,63.53861192570871,9.775171065493646,53.763440860215056,9.775171065493646,9.775171065493646,4.887585532746823
14.662756598240469,19.550342130987293,19.550342130987293,29.325513196480937,24.437927663734115,9.775171065493646,0.0
34.21309872922776,4.887585532746823,4.887585532746823,9.775171065493646,83.08895405669598,34.21309872922776,58.651026392961874
9.775171065493646,4.887585532746823,4.887585532746823,9.775171065493646,68.42619745845552,14.662756598240469,19.550342130987293
4.887585532746823,0.0,48.87585532746823,9.775171065493646,4.887585532746823,0.0,4.887585532746823
4.887585532746823,4.887585532746823,14.662756598240469,53.763440860215056,4.887585532746823,9.775171065493646,0.0
0.0,58.651026392961874,24.437927663734115,43.98826979472141,73.31378299120234,9.775171065493646,19.550342130987293
29.325513196480937,83.08895405669598,9.775171065493646,9.775171065493646,102.63929618768329,24.437927663734115,92.86412512218965
53.763440860215056,4.887585532746823,4.887585532746823,0.0,9.775171065493646,39.100684261974585,29.325513196480937
9.775171065493646,4.887585532746823,4.887585532746823,4.887585532746823,0.0,4.887585532746823,4.887585532746823
9.775171065493646,19.550342130987293,9.775171065493646,0.0,14.662756598240469,9.775171065493646,4.887585532746823
0.0,78.20136852394917,14.662756598240469,4.887585532746823,4.887585532746823,0.0,0.0
39.100684261974585,4.887585532746823,34.21309872922776,39.100684261974585,19.550342130987293,0.0,4.887585532746823
39.100684261974585,4.887585532746823,4.887585532746823,29.325513196480937,43.98826979472141,24.437927663734115,39.100684261974585
9.775171065493646,4.887585532746823,0.0,14.662756598240469,4.887585532746823,29.325513196480937,14.662756598240469
0.0,4.887585532746823,4.887585532746823,4.887585532746823,9.775171065493646,4.887585532746823,4.887585532746823
0.0,39.100684261974585,39.100684261974585,34.21309872922776,78.20136852394917,4.887585532746823,4.887585532746823
24.437927663734115,78.20136852394917,14.662756598240469,19.550342130987293,175.95307917888564,4.887585532746823,19.550342130987293
43.98826979472141,4.887585532746823,4.887585532746823,9.775171065493646,78.20136852394917,14.662756598240469,19.550342130987293
14.662756598240469,0.0,0.0,9.775171065493646,4.887585532746823,9.775171065493646,9.775171065493646
0.0,0.0,9.775171065493646,9.775171065493646,9.775171065493646,9.775171065493646,0.0
0.0,24.437927663734115,4.887585532746823,19.550342130987293,83.08895405669598,0.0,0.0
4.887585532746823,63.53861192570871,29.325513196480937,24.437927663734115,63.53861192570871,4.887585532746823,39.100684261974585
39.100684261974585,14.662756598240469,0.0,4.887585532746823,4.887585532746823,19.550342130987293,87.97653958944282
29.325513196480937,4.887585532746823,9.775171065493646,0.0,4.887585532746823,4.887585532746823,19.550342130987293
4.887585532746823,14.662756598240469,14.662756598240469,4.887585532746823,63.53861192570871,9.775171065493646,4.887585532746823
4.887585532746823,14.662756598240469,4.887585532746823,4.887585532746823,122.18963831867057,4.887585532746823,4.887585532746823
0.0,9.775171065493646,43.98826979472141,48.87585532746823,19.550342130987293,4.887585532746823,9.775171065493646
24.437927663734115,9.775171065493646,48.87585532746823,9.775171065493646,9.775171065493646,19.550342130987293,43.98826979472141
24.437927663734115,9.775171065493646,4.887585532746823,4.887585532746823,14.662756598240469,24.437927663734115,19.550342130987293
4.887585532746823,0.0,4.887585532746823,4.887585532746823,24.437927663734115,4.887585532746823,4.887585532746823
4.887585532746823,48.87585532746823,0.0,9.775171065493646,58.651026392961874,9.775171065493646,0.0
0.0,14.662756598240469,4.887585532746823,68.42619745845552,4.887585532746823,4.887585532746823,24.437927663734115
4.887585532746823,9.775171065493646,63.53861192570871,14.662756598240469,0.0,9.775171065493646,102.63929618768329
4.887585532746823,0.0,9.775171065493646,9.775171065493646,9.775171065493646,19.550342130987293,24.437927663734115
0.0,24.437927663734115,4.887585532746823,9.775171065493646,112.41446725317694,14.662756598240469,9.775171065493646
9.775171065493646,68.42619745845552,4.887585532746823,4.887585532746823,58.651026392961874,9.775171065493646,9.775171065493646
0.0,39.100684261974585,14.662756598240469,14.662756598240469,14.662756598240469,4.887585532746823,4.887585532746823
4.887585532746823,4.887585532746823,24.437927663734115,4.887585532746823,4.887585532746823,9.775171065493646,19.550342130987293
29.325513196480937,4.887585532746823,4.887585532746823,0.0,4.887585532746823,9.775171065493646,19.550342130987293
29.325513196480937,4.887585532746823,4.887585532746823,4.887585532746823,131.96480938416423,24.437927663734115,9.775171065493646
9.775171065493646,24.437927663734115,53.763440860215056,58.651026392961874,48.87585532746823,4.887585532746823,0.0
9.775171065493646,73.31378299120234,97.75171065493646,141.73998044965788,0.0,4.887585532746823,0.0
14.662756598240469,4.887585532746823,24.437927663734115,29.325513196480937,4.887585532746823,4.887585532746823,9.775171065493646
29.325513196480937,4.887585532746823,4.887585532746823,4.887585532746823,48.87585532746823,9.775171065493646,29.325513196480937
43.98826979472141,9.775171065493646,9.775171065493646,0.0,156.40273704789834,43.98826979472141,9.775171065493646
14.662756598240469,48.87585532746823,14.662756598240469,0.0,29.325513196480937,9.775171065493646,4.887585532746823
0.0,78.20136852394917,29.325513196480937,9.775171065493646,4.887585532746823,4.887585532746823,0.0
0.0,4.887585532746823,4.887585532746823,9.775171065493646,4.887585532746823,0.0,0.0
9.775171065493646,0.0,4.887585532746823,9.775171065493646,87.97653958944282,9.775171065493646,29.325513196480937
68.42619745845552,4.887585532746823,4.887585532746823,4.887585532746823,43.98826979472141,9.775171065493646,9.775171065493646
14.662756598240469,0.0,9.775171065493646,9.775171065493646,14.662756598240469,34.21309872922776,9.775171065493646
9.775171065493646,39.100684261974585,9.775171065493646,19.550342130987293,0.0,9.775171065493646,24.437927663734115
4.887585532746823,9.775171065493646,73.31378299120234,14.662756598240469,9.775171065493646,4.887585532746823,43.98826979472141
4.887585532746823,9.775171065493646,29.325513196480937,14.662756598240469,68.42619745845552,4.887585532746823,39.100684261974585
53.763440860215056,4.887585532746823,4.887585532746823,4.887585532746823,39.100684261974585,43.98826979472141,14.662756598240469
4.887585532746823,9.775171065493646,4.887585532746823,9.775171065493646,19.550342130987293,43.98826979472141,4.887585532746823
0.0,4.887585532746823,14.662756598240469,9.775171065493646,0.0,9.775171065493646,4.887585532746823
4.887585532746823,0.0,68.42619745845552,19.550342130987293,4.887585532746823,4.887585532746823,14.662756598240469
34.21309872922776,9.775171065493646,9.775171065493646,4.887585532746823,0.0,14.662756598240469,97.75171065493646
92.86412512218965,24.437927663734115,9.775171065493646,4.887585532746823,34.21309872922776,14.662756598240469,53.763440860215056
19.550342130987293,78.20136852394917,9.775171065493646,9.775171065493646,14.662756598240469,34.21309872922776,4.887585532746823
9.775171065493646,14.662756598240469,29.325513196480937,14.662756598240469,9.775171065493646,9.775171065493646,0.0
4.887585532746823,4.887585532746823,39.100684261974585,63.53861192570871,9.775171065493646,4.887585532746823,4.887585532746823
4.887585532746823,0.0,4.887585532746823,14.662756598240469,58.651026392961874,9.775171065493646,19.550342130987293
53.763440860215056,9.775171065493646,9.775171065493646,4.887585532746823,117.30205278592375,0.0,53.763440860215056
14.662756598240469,4.887585532746823,9.775171065493646,9.775171065493646,14.662756598240469,24.437927663734115,4.887585532746823
0.0,29.325513196480937,14.662756598240469,29.325513196480937,0.0,24.437927663734115,14.662756598240469
9.775171065493646,14.662756598240469,68.42619745845552,146.6275659824047,4.887585532746823,9.775171065493646,48.87585532746823
34.21309872922776,4.887585532746823,19.550342130987293,24.437927663734115,53.763440860215056,0.0,39.100684261974585
63.53861192570871,4.887585532746823,0.0,9.775171065493646,117.30205278592375,0.0,14.662756598240469
14.662756598240469,0.0,4.887585532746823,4.887585532746823,4.887585532746823,14.662756598240469,4.887585532746823
9.775171065493646,34.21309872922776,19.550342130987293,9.775171065493646,4.887585532746823,34.21309872922776,4.887585532746823
9.775171065493646,14.662756598240469,58.651026392961874,19.550342130987293,24.437927663734115,4.887585532746823,0.0
19.550342130987293,4.887585532746823,14.662756598240469,19.550342130987293,83.08895405669598,4.887585532746823,63.53861192570871
63.53861192570871,4.887585532746823,0.0,9.775171065493646,9.775171065493646,4.887585532746823,58.651026392961874
9.775171065493646,4.887585532746823,19.550342130987293,4.887585532746823,4.887585532746823,24.437927663734115,4.887585532746823
4.887585532746823,9.775171065493646,19.550342130987293,4.887585532746823,9.775171065493646,58.651026392961874,0.0
4.887585532746823,97.75171065493646,29.325513196480937,43.98826979472141,117.30205278592375,9.775171065493646,4.887585532746823
4.887585532746823,14.662756598240469,14.662756598240469,9.775171065493646,195.50342130987292,4.887585532746823,19.550342130987293
58.651026392961874,9.775171065493646,4.887585532746823,4.887585532746823,24.437927663734115,9.775171065493646,4.887585532746823
48.87585532746823,4.887585532746823,0.0,29.325513196480937,9.775171065493646,4.887585532746823,0.0
4.887585532746823,0.0,4.887585532746823,19.550342130987293,9.775171065493646,14.662756598240469,14.662756598240469
9.775171065493646,53.763440860215056,24.437927663734115,0.0,53.763440860215056,9.775171065493646,4.887585532746823
24.437927663734115,9.775171065493646,97.75171065493646,14.662756598240469,87.97653958944282,0.0,29.325513196480937
43.98826979472141,4.887585532746823,24.437927663734115,9.775171065493646,9.775171065493646,0.0,34.21309872922776
4.887585532746823,0.0,9.775171065493646,0.0,4.887585532746823,9.775171065493646,9.775171065493646
0.0,48.87585532746823,29.325513196480937,4.887585532746823,19.550342130987293,29.325513196480937,4.887585532746823
0.0,83.08895405669598,43.98826979472141,9.775171065493646,97.75171065493646,14.662756598240469,9.775171065493646
0.0,14.662756598240469,4.887585532746823,14.662756598240469,24.437927663734115,4.887585532746823,4.887585532746823
48.87585532746823,0.0,4.887585532746823,4.887585532746823,4.887585532746823,9.775171065493646,29.325513196480937
14.662756598240469,4.887585532746823,4.887585532746823,0.0,0.0,4.887585532746823,19.550342130987293
4.887585532746823,68.42619745845552,0.0,4.887585532746823,19.550342130987293,14.662756598240469,4.887585532746823
4.887585532746823,14.662756598240469,29.325513196480937,29.325513196480937,117.30205278592375,9.775171065493646,4.887585532746823
43.98826979472141,0.0,78.20136852394917,63.53861192570871,63.53861192570871,4.887585532746823,9.775171065493646
53.763440860215056,4.887585532746823,9.775171065493646,9.775171065493646,9.775171065493646,4.887585532746823,4.887585532746823
9.775171065493646,4.887585532746823,4.887585532746823,0.0,0.0,29.325513196480937,9.775171065493646
0.0,48.87585532746823,9.775171065493646,9.775171065493646,29.325513196480937,24.437927663734115,9.775171065493646
9.775171065493646,73.31378299120234,53.763440860215056,14.662756598240469,190.6158357771261,4.887585532746823,9.775171065493646
4.887585532746823,9.775171065493646,48.87585532746823,9.775171065493646,122.18963831867057,9.775171065493646,4.887585532746823
58.651026392961874,4.887585532746823,4.887585532746823,4.887585532746823,9.775171065493646,9.775171065493646,4.887585532746823
9.775171065493646,4.887585532746823,4.887585532746823,14.662756598240469,0.0,0.0,68.42619745845552
4.887585532746823,4.887585532746823,9.775171065493646,4.887585532746823,9.775171065493646,9.775171065493646,19.550342130987293
14.662756598240469,4.887585532746823,48.87585532746823,4.887585532746823,9.775171065493646,4.887585532746823,9.775171065493646
9.775171065493646,4.887585532746823,48.87585532746823,34.21309872922776,83.08895405669598,19.550342130987293,0.0
39.100684261974585,9.775171065493646,4.887585532746823,68.42619745845552,24.437927663734115,4.887585532746823,97.75171065493646
14.662756598240469,4.887585532746823,0.0,9.775171065493646,4.887585532746823,4.887585532746823,58.651026392961874
4.887585532746823,97.75171065493646,4.887585532746823,9.775171065493646,48.87585532746823,9.775171065493646,9.775171065493646
4.887585532746823,58.651026392961874,63.53861192570871,4.887585532746823,127.07722385141741,14.662756598240469,4.887585532746823
14.662756598240469,4.887585532746823,24.437927663734115,9.775171065493646,19.550342130987293,0.0,14.662756598240469
102.63929618768329,4.887585532746823,0.0,19.550342130987293,9.775171065493646,0.0,63.53861192570871
34.21309872922776,4.887585532746823,9.775171065493646,9.775171065493646,4.887585532746823,0.0,9.775171065493646
9.775171065493646,58.651026392961874,53.763440860215056,4.887585532746823,97.75171065493646,9.775171065493646,9.775171065493646
4.887585532746823,29.325513196480937,102.63929618768329,19.550342130987293,122.18963831867057,4.887585532746823,4.887585532746823
4.887585532746823,4.887585532746823,19.550342130987293,14.662756598240469,14.662756598240469,4.887585532746823,4.887585532746823
39.100684261974585,4.887585532746823,9.775171065493646,14.662756598240469,0.0,9.775171065493646,53.763440860215056
43.98826979472141,0.0,9.775171065493646,9.775171065493646,4.887585532746823,4.887585532746823,9.775171065493646
9.775171065493646,53.763440860215056,0.0,4.887585532746823,107.52688172043011,9.775171065493646,9.775171065493646
14.662756598240469,14.662756598240469,24.437927663734115,4.887585532746823,19.550342130987293,4.887585532746823,29.325513196480937
9.775171065493646,0.0,9.775171065493646,43.98826979472141,9.775171065493646,34.21309872922776,53.763440860215056
24.437927663734115,9.775171065493646,9.775171065493646,9.775171065493646,0.0,14.662756598240469,34.21309872922776
24.437927663734115,4.887585532746823,4.887585532746823,29.325513196480937,29.325513196480937,0.0,9.775171065493646
4.887585532746823,4.887585532746823,0.0,14.662756598240469,63.53861192570871,9.775171065493646,0.0
9.775171065493646,4.887585532746823,4.887585532746823,4.887585532746823,68.42619745845552,9.775171065493646,4.887585532746823
9.775171065493646,4.887585532746823,4.887585532746823,4.887585532746823,4.887585532746823,19.550342130987293,9.775171065493646
4.887585532746823,34.21309872922776,4.887585532746823,43.98826979472141,4.887585532746823,19.550342130987293,63.53861192570871
58.651026392961874,4.887585532746823,24.437927663734115,39.100684261974585,4.887585532746823,4.887585532746823,24.437927663734115
4.887585532746823,9.775171065493646,19.550342130987293,4.887585532746823,63.53861192570871,4.887585532746823,4.887585532746823
4.887585532746823,4.887585532746823,53.763440860215056,4.887585532746823,107.52688172043011,4.887585532746823,4.887585532746823
9.775171065493646,0.0,19.550342130987293,9.775171065493646,4.887585532746823,19.550342130987293,9.775171065493646
0.0,4.887585532746823,4.887585532746823,34.21309872922776,19.550342130987293,43.98826979472141,0.0
34.21309872922776,53.763440860215056,9.775171065493646,58.651026392961874,53.763440860215056,4.887585532746823,14.662756598240469
4.887585532746823,4.887585532746823,39.100684261974585,14.662756598240469,83.08895405669598,9.775171065493646,19.550342130987293
9.775171065493646,4.887585532746823,63.53861192570871,9.775171065493646,4.887585532746823,4.887585532746823,9.775171065493646
9.775171065493646,4.887585532746823,4.887585532746823,4.887585532746823,0.0,0.0,0.0
4.887585532746823,29.325513196480937,9.775171065493646,4.887585532746823,34.21309872922776,9.775171065493646,58.651026392961874
24.437927663734115,4.887585532746823,24.437927663734115,9.775171065493646,117.30205278592375,4.887585532746823,53.763440860215056
34.21309872922776,39.100684261974585,102.63929618768329,9.775171065493646,24.437927663734115,9.775171065493646,9.775171065493646
4.887585532746823,34.21309872922776,34.21309872922776,4.887585532746823,9.775171065493646,0.0,0.0
0.0,19.550342130987293,14.662756598240469,4.887585532746823,4.887585532746823,4.887585532746823,4.887585532746823
0.0,9.775171065493646,9.775171065493646,4.887585532746823,34.21309872922776,9.775171065493646,34.21309872922776
34.21309872922776,4.887585532746823,4.887585532746823,29.325513196480937,180.84066471163246,29.325513196480937,24.437927663734115
58.651026392961874,4.887585532746823,9.775171065493646,19.550342130987293,141.73998044965788,14.662756598240469,0.0
4.887585532746823,43.98826979472141,9.775171065493646,9.775171065493646,9.775171065493646,9.775171065493646,4.887585532746823
4.887585532746823,24.437927663734115,39.100684261974585,9.775171065493646,9.775171065493646,4.887585532746823,9.775171065493646
0.0,9.775171065493646,14.662756598240469,0.0,9.775171065493646,9.775171065493646,4.887585532746823
63.53861192570871,4.887585532746823,4.887585532746823,24.437927663734115,29.325513196480937,29.325513196480937,4.887585532746823
68.42619745845552,4.887585532746823,4.887585532746823,63.53861192570871,9.775171065493646,19.550342130987293,9.775171065493646
9.775171065493646,68.42619745845552,9.775171065493646,9.775171065493646,4.887585532746823,9.775171065493646,9.775171065493646
0.0,19.550342130987293,58.651026392961874,4.887585532746823,4.887585532746823,4.887585532746823,4.887585532746823
0.0,14.662756598240469,4.887585532746823,29.325513196480937,43.98826979472141,0.0,4.887585532746823
29.325513196480937,0.0,0.0,39.100684261974585,151.51515151515153,29.325513196480937,34.21309872922776
9.775171065493646,9.775171065493646,9.775171065493646,14.662756598240469,63.53861192570871,9.775171065493646,4.887585532746823
9.775171065493646,39.100684261974585,34.21309872922776,9.775171065493646,9.775171065493646,4.887585532746823,0.0
4.887585532746823,34.21309872922776,43.98826979472141,0.0,4.887585532746823,4.887585532746823,9.775171065493646
4.887585532746823,4.887585532746823,4.887585532746823,4.887585532746823,0.0,0.0,9.775171065493646
34.21309872922776,4.887585532746823,9.775171065493646,43.98826979472141,87.97653958944282,0.0,4.887585532746823
48.87585532746823,9.775171065493646,4.887585532746823,83.08895405669598,43.98826979472141,19.550342130987293,9.775171065493646
14.662756598240469,9.775171065493646,9.775171065493646,14.662756598240469,19.550342130987293,9.775171065493646,4.887585532746823
4.887585532746823,53.763440860215056,0.0,4.887585532746823,9.775171065493646,4.887585532746823,14.662756598240469
4.887585532746823,9.775171065493646,14.662756598240469,4.887585532746823,48.87585532746823,4.887585532746823,24.437927663734115
14.662756598240469,4.887585532746823,9.775171065493646,0.0,14.662756598240469,0.0,53.763440860215056
9.775171065493646,4.887585532746823,14.662756598240469,43.98826979472141,4.887585532746823,4.887585532746823,19.550342130987293
9.775171065493646,14.662756598240469,63.53861192570871,24.437927663734115,9.775171065493646,4.887585532746823,14.662756598240469
0.0,4.887585532746823,19.550342130987293,9.775171065493646,4.887585532746823,4.887585532746823,4.887585532746823
4.887585532746823,29.325513196480937,24.437927663734115,4.887585532746823,19.550342130987293,4.887585532746823,9.775171065493646
9.775171065493646,19.550342130987293,14.662756598240469,43.98826979472141,83.08895405669598,0.0,19.550342130987293
29.325513196480937,9.775171065493646,9.775171065493646,97.75171065493646,19.550342130987293,14.662756598240469,73.31378299120234
4.887585532746823,4.887585532746823,4.887585532746823,19.550342130987293,4.887585532746823,39.100684261974585,19.550342130987293
4.887585532746823,4.887585532746823,19.550342130987293,4.887585532746823,0.0,4.887585532746823,9.775171065493646
9.775171065493646,9.775171065493646,14.662756598240469,0.0,24.437927663734115,0.0,4.887585532746823
4.887585532746823,4.887585532746823,4.887585532746823,9.775171065493646,219.94134897360706,9.775171065493646,24.437927663734115
39.100684261974585,0.0,0.0,63.53861192570871,24.437927663734115,4.887585532746823,14.662756598240469
34.21309872922776,9.775171065493646,4.887585532746823,53.763440860215056,4.887585532746823,43.98826979472141,4.887585532746823
4.887585532746823,24.437927663734115,24.437927663734115,4.887585532746823,29.325513196480937,4.887585532746823,14.662756598240469
9.775171065493646,53.763440860215056,34.21309872922776,4.887585532746823,73.31378299120234,4.887585532746823,4.887585532746823
0.0,9.775171065493646,9.775171065493646,4.887585532746823,53.763440860215056,4.887585532746823,9.775171065493646
14.662756598240469,4.887585532746823,0.0,4.887585532746823,14.662756598240469,4.887585532746823,43.98826979472141
53.763440860215056,4.887585532746823,24.437927663734115,14.662756598240469,0.0,19.550342130987293,34.21309872922776
4.887585532746823,29.325513196480937,43.98826979472141,4.887585532746823,19.550342130987293,9.775171065493646,4.887585532746823
4.887585532746823,58.651026392961874,43.98826979472141,4.887585532746823,83.08895405669598,0.0,9.775171065493646
0.0,14.662756598240469,24.437927663734115,48.87585532746823,78.20136852394917,4.887585532746823,0.0
14.662756598240469,4.887585532746823,9.775171065493646,39.100684261974585,9.775171065493646,0.0,9.775171065493646
63.53861192570871,9.775171065493646,14.662756598240469,4.887585532746823,4.887585532746823,48.87585532746823,4.887585532746823
14.662756598240469,19.550342130987293,0.0,4.887585532746823,43.98826979472141,4.887585532746823,4.887585532746823
9.775171065493646,68.42619745845552,4.887585532746823,0.0,161.29032258064515,4.887585532746823,0.0
4.887585532746823,9.775171065493646,48.87585532746823,0.0,68.42619745845552,4.887585532746823,19.550342130987293
19.550342130987293,4.887585532746823,4.887585532746823,53.763440860215056,14.662756598240469,4.887585532746823,19.550342130987293
58.651026392961874,4.887585532746823,0.0,4.887585532746823,4.887585532746823,9.775171065493646,29.325513196480937
4.887585532746823,19.550342130987293,14.662756598240469,4.887585532746823,9.775171065493646,14.662756598240469,4.887585532746823
0.0,58.651026392961874,4.887585532746823,24.437927663734115,131.96480938416423,4.887585532746823,0.0
14.662756598240469,9.775171065493646,4.887585532746823,19.550342130987293,29.325513196480937,4.887585532746823,0.0
43.98826979472141,4.887585532746823,0.0,78.20136852394917,9.775171065493646,9.775171065493646,0.0
78.20136852394917,14.662756598240469,9.775171065493646,39.100684261974585,9.775171065493646,9.775171065493646,9.775171065493646
14.662756598240469,0.0,9.775171065493646,14.662756598240469,39.100684261974585,24.437927663734115,39.100684261974585
4.887585532746823,78.20136852394917,24.437927663734115,4.887585532746823,112.41446725317694,9.775171065493646,24.437927663734115
9.775171065493646,9.775171065493646,24.437927663734115,19.550342130987293,29.325513196480937,9.775171065493646,4.887585532746823
34.21309872922776,4.887585532746823,4.887585532746823,39.100684261974585,0.0,0.0,4.887585532746823
78.20136852394917,19.550342130987293,9.775171065493646,19.550342130987293,0.0,4.887585532746823,29.325513196480937
9.775171065493646,14.662756598240469,9.775171065493646,4.887585532746823,97.75171065493646,39.100684261974585,14.662756598240469
4.887585532746823,9.775171065493646,4.887585532746823,9.775171065493646,161.29032258064515,19.550342130987293,0.0
0.0,4.887585532746823,24.437927663734115,9.775171065493646,29.325513196480937,9.775171065493646,9.775171065493646
14.662756598240469,4.887585532746823,9.775171065493646,9.775171065493646,4.887585532746823,9.775171065493646,4.887585532746823
43.98826979472141,4.887585532746823,9.775171065493646,14.662756598240469,4.887585532746823,9.775171065493646,24.437927663734115
9.775171065493646,4.887585532746823,14.662756598240469,9.775171065493646,24.437927663734115,14.662756598240469,4.887585532746823
4.887585532746823,92.86412512218965,29.325513196480937,4.887585532746823,117.30205278592375,29.325513196480937,4.887585532746823
9.775171065493646,14.662756598240469,29.325513196480937,0.0,43.98826979472141,0.0,4.887585532746823
0.0,4.887585532746823,58.651026392961874,19.550342130987293,4.887585532746823,4.887585532746823,4.887585532746823
53.763440860215056,4.887585532746823,14.662756598240469,24.437927663734115,0.0,0.0,24.437927663734115
4.887585532746823,29.325513196480937,4.887585532746823,19.550342130987293,58.651026392961874,4.887585532746823,78.20136852394917
9.775171065493646,83.08895405669598,0.0,4.887585532746823,34.21309872922776,4.887585532746823,14.662756598240469
0.0,14.662756598240469,68.42619745845552,9.775171065493646,9.775171065493646,9.775171065493646,0.0
4.887585532746823,0.0,29.325513196480937,4.887585532746823,4.887585532746823,0.0,9.775171065493646
34.21309872922776,4.887585532746823,9.775171065493646,29.325513196480937,9.775171065493646,0.0,34.21309872922776
9.775171065493646,19.550342130987293,14.662756598240469,9.775171065493646,4.887585532746823,0.0,151.51515151515153
9.775171065493646,83.08895405669598,19.550342130987293,0.0,107.52688172043011,19.550342130987293,39.100684261974585
9.775171065493646,9.775171065493646,53.763440860215056,9.775171065493646,9.775171065493646,14.662756598240469,4.887585532746823
43.98826979472141,0.0,9.775171065493646,58.651026392961874,0.0,0.0,4.887585532746823
87.97653958944282,4.887585532746823,4.887585532746823,112.41446725317694,4.887585532746823,0.0,14.662756598240469
19.550342130987293,9.775171065493646,24.437927663734115,19.550342130987293,58.651026392961874,4.887585532746823,78.20136852394917
4.887585532746823,9.775171065493646,39.100684261974585,4.887585532746823,190.6158357771261,14.662756598240469,9.775171065493646
9.775171065493646,43.98826979472141,48.87585532746823,4.887585532746823,43.98826979472141,19.550342130987293,4.887585532746823
4.887585532746823,4.887585532746823,14.662756598240469,19.550342130987293,4.887585532746823,4.887585532746823,19.550342130987293
48.87585532746823,4.887585532746823,4.887585532746823,9.775171065493646,4.887585532746823,4.887585532746823,58.651026392961874
19.550342130987293,14.662756598240469,4.887585532746823,14.662756598240469,78.20136852394917,9.775171065493646,34.21309872922776
4.887585532746823,131.96480938416423,4.887585532746823,4.887585532746823,78.20136852394917,0.0,0.0
0.0,43.98826979472141,14.662756598240469,4.887585532746823,14.662756598240469,24.437927663734115,0.0
4.887585532746823,9.775171065493646,63.53861192570871,9.775171065493646,24.437927663734115,4.887585532746823,4.887585532746823
14.662756598240469,9.775171065493646,9.775171065493646,63.53861192570871,48.87585532746823,9.775171065493646,43.98826979472141
19.550342130987293,0.0,4.887585532746823,39.100684261974585,78.20136852394917,0.0,141.73998044965788
4.887585532746823,48.87585532746823,4.887585532746823,4.887585532746823,9.775171065493646,4.887585532746823,19.550342130987293
9.775171065493646,14.662756598240469,68.42619745845552,0.0,4.887585532746823,9.775171065493646,4.887585532746823
9.775171065493646,4.887585532746823,43.98826979472141,24.437927663734115,4.887585532746823,19.550342130987293,4.887585532746823
4.887585532746823,0.0,9.775171065493646,63.53861192570871,156.40273704789834,9.775171065493646,4.887585532746823
34.21309872922776,63.53861192570871,9.775171065493646,14.662756598240469,87.97653958944282,4.887585532746823,39.100684261974585
9.775171065493646,166.17790811339196,9.775171065493646,9.775171065493646,4.887585532746823,4.887585532746823,9.775171065493646
0.0,14.662756598240469,9.775171065493646,0.0,9.775171065493646,19.550342130987293,0.0
0.0,9.775171065493646,19.550342130987293,4.887585532746823,4.887585532746823,19.550342130987293,4.887585532746823
0.0,4.887585532746823,29.325513196480937,0.0,97.75171065493646,14.662756598240469,9.775171065493646
34.21309872922776,34.21309872922776,9.775171065493646,4.887585532746823,122.18963831867057,9.775171065493646,48.87585532746823
19.550342130987293,29.325513196480937,9.775171065493646,0.0,9.775171065493646,4.887585532746823,43.98826979472141
4.887585532746823,14.662756598240469,19.550342130987293,4.887585532746823,4.887585532746823,4.887585532746823,9.775171065493646
9.775171065493646,4.887585532746823,9.775171065493646,19.550342130987293,34.21309872922776,4.887585532746823,4.887585532746823
0.0,4.887585532746823,4.887585532746823,14.662756598240469,14.662756598240469,9.775171065493646,4.887585532746823
43.98826979472141,0.0,4.887585532746823,39.100684261974585,63.53861192570871,9.775171065493646,24.437927663734115
9.775171065493646,48.87585532746823,4.887585532746823,19.550342130987293,9.775171065493646,4.887585532746823,14.662756598240469
0.0,53.763440860215056,63.53861192570871,4.887585532746823,24.437927663734115,19.550342130987293,4.887585532746823
0.0,14.662756598240469,117.30205278592375,4.887585532746823,19.550342130987293,14.662756598240469,0.0
19.550342130987293,4.887585532746823,19.550342130987293,9.775171065493646,97.75171065493646,9.775171065493646,0.0
58.651026392961874,4.887585532746823,9.775171065493646,29.325513196480937,29.325513196480937,4.887585532746823,14.662756598240469
39.100684261974585,4.887585532746823,9.775171065493646,19.550342130987293,4.887585532746823,0.0,29.325513196480937
9.775171065493646,0.0,14.662756598240469,4.887585532746823,0.0,9.775171065493646,4.887585532746823
9.775171065493646,9.775171065493646,24.437927663734115,4.887585532746823,4.887585532746823,19.550342130987293,4.887585532746823
9.775171065493646,9.775171065493646,4.887585532746823,4.887585532746823,117.30205278592375,9.775171065493646,4.887585532746823
19.550342130987293,9.775171065493646,9.775171065493646,39.100684261974585,43.98826979472141,0.0,4.887585532746823
24.437927663734115,29.325513196480937,9.775171065493646,92.86412512218965,4.887585532746823,4.887585532746823,24.437927663734115
4.887585532746823,63.53861192570871,9.775171065493646,14.662756598240469,4.887585532746823,4.887585532746823,14.662756598240469
4.887585532746823,4.887585532746823,9.775171065493646,9.775171065493646,53.763440860215056,14.662756598240469,4.887585532746823
0.0,4.887585532746823,48.87585532746823,4.887585532746823,112.41446725317694,19.550342130987293,0.0
29.325513196480937,4.887585532746823,4.887585532746823,24.437927663734115,9.775171065493646,4.887585532746823,9.775171065493646
58.651026392961874,87.97653958944282,0.0,48.87585532746823,4.887585532746823,4.887585532746823,4.887585532746823
9.775171065493646,53.763440860215056,14.662756598240469,9.775171065493646,0.0,9.775171065493646,34.21309872922776
4.887585532746823,4.887585532746823,53.763440860215056,4.887585532746823,19.550342130987293,4.887585532746823,14.662756598240469
9.775171065493646,4.887585532746823,14.662756598240469,4.887585532746823,58.651026392961874,24.437927663734115,4.887585532746823
0.0,19.550342130987293,4.887585532746823,0.0,34.21309872922776,4.887585532746823,0.0
53.763440860215056,78.20136852394917,4.887585532746823,4.887585532746823,4.887585532746823,4.887585532746823,34.21309872922776
14.662756598240469,4.887585532746823,19.550342130987293,0.0,4.887585532746823,9.775171065493646,83.08895405669598
4.887585532746823,0.0,58.651026392961874,9.775171065493646,92.86412512218965,14.662756598240469,9.775171065493646
0.0,4.887585532746823,9.775171065493646,9.775171065493646,97.75171065493646,14.662756598240469,4.887585532746823
0.0,63.53861192570871,4.887585532746823,58.651026392961874,9.775171065493646,24.437927663734115,4.887585532746823
29.325513196480937,53.763440860215056,0.0,83.08895405669598,0.0,4.887585532746823,24.437927663734115
9.775171065493646,4.887585532746823,4.887585532746823,14.662756598240469,146.6275659824047,4.887585532746823,24.437927663734115
4.887585532746823,4.887585532746823,24.437927663734115,0.0,268.81720430107526,4.887585532746823,14.662756598240469
9.775171065493646,4.887585532746823,68.42619745845552,4.887585532746823,43.98826979472141,9.775171065493646,0.0
0.0,9.775171065493646,4.887585532746823,39.100684261974585,0.0,34.21309872922776,4.887585532746823
58.651026392961874,102.63929618768329,19.550342130987293,34.21309872922776,9.775171065493646,19.550342130987293,39.100684261974585
4.887585532746823,19.550342130987293,19.550342130987293,0.0,34.21309872922776,0.0,68.42619745845552
4.887585532746823,0.0,34.21309872922776,0.0,97.75171065493646,43.98826979472141,14.662756598240469
4.887585532746823,9.775171065493646,24.437927663734115,19.550342130987293,14.662756598240469,127.07722385141741,4.887585532746823
9.775171065493646,14.662756598240469,4.887585532746823,29.325513196480937,4.887585532746823,43.98826979472141,9.775171065493646
9.775171065493646,29.325513196480937,9.775171065493646,58.651026392961874,0.0,9.775171065493646,9.775171065493646
43.98826979472141,4.887585532746823,4.887585532746823,14.662756598240469,29.325513196480937,9.775171065493646,29.325513196480937
14.662756598240469,4.887585532746823,92.86412512218965,9.775171065493646,122.18963831867057,4.887585532746823,14.662756598240469
4.887585532746823,4.887585532746823,68.42619745845552,0.0,29.325513196480937,14.662756598240469,0.0
4.887585532746823,92.86412512218965,14.662756598240469,4.887585532746823,9.775171065493646,34.21309872922776,4.887585532746823
19.550342130987293,58.651026392961874,4.887585532746823,29.325513196480937,0.0,19.550342130987293,9.775171065493646
53.763440860215056,9.775171065493646,19.550342130987293,68.42619745845552,68.42619745845552,4.887585532746823,63.53861192570871
9.775171065493646,0.0,39.100684261974585,4.887585532746823,337.2434017595308,4.887585532746823,29.325513196480937
4.887585532746823,0.0,4.887585532746823,9.775171065493646,175.95307917888564,4.887585532746823,4.887585532746823
4.887585532746823,19.550342130987293,4.887585532746823,14.662756598240469,29.325513196480937,19.550342130987293,4.887585532746823
4.887585532746823,29.325513196480937,4.887585532746823,29.325513196480937,9.775171065493646,24.437927663734115,4.887585532746823
39.100684261974585,4.887585532746823,0.0,48.87585532746823,156.40273704789834,0.0,0.0
9.775171065493646,4.887585532746823,4.887585532746823,4.887585532746823,205.27859237536657,4.887585532746823,19.550342130987293
4.887585532746823,9.775171065493646,43.98826979472141,4.887585532746823,24.437927663734115,4.887585532746823,24.437927663734115
4.887585532746823,19.550342130987293,19.550342130987293,9.775171065493646,4.887585532746823,0.0,39.100684261974585
24.437927663734115,63.53861192570871,0.0,29.325513196480937,4.887585532746823,4.887585532746823,14.662756598240469
92.86412512218965,43.98826979472141,4.887585532746823,4.887585532746823,43.98826979472141,14.662756598240469,9.775171065493646
19.550342130987293,4.887585532746823,34.21309872922776,4.887585532746823,151.51515151515153,9.775171065493646,19.550342130987293
4.887585532746823,14.662756598240469,43.98826979472141,0.0,19.550342130987293,4.887585532746823,9.775171065493646
4.887585532746823,39.100684261974585,34.21309872922776,4.887585532746823,4.887585532746823,0.0,4.887585532746823
0.0,78.20136852394917,9.775171065493646,0.0,14.662756598240469,29.325513196480937,0.0
58.651026392961874,9.775171065493646,9.775171065493646,9.775171065493646,141.73998044965788,9.775171065493646,9.775171065493646
19.550342130987293,0.0,9.775171065493646,4.887585532746823,97.75171065493646,4.887585532746823,19.550342130987293
4.887585532746823,4.887585532746823,48.87585532746823,14.662756598240469,0.0,4.887585532746823,0.0
0.0,43.98826979472141,19.550342130987293,39.100684261974585,0.0,4.887585532746823,0.0
24.437927663734115,102.63929618768329,9.775171065493646,29.325513196480937,78.20136852394917,14.662756598240469,19.550342130987293
63.53861192570871,14.662756598240469,0.0,4.887585532746823,29.325513196480937,14.662756598240469,78.20136852394917
0.0,4.887585532746823,0.0,4.887585532746823,4.887585532746823,4.887585532746823,63.53861192570871
9.775171065493646,14.662756598240469,9.775171065493646,0.0,0.0,0.0,19.550342130987293
4.887585532746823,14.662756598240469,43.98826979472141,9.775171065493646,14.662756598240469,0.0,4.887585532746823
4.887585532746823,34.21309872922776,19.550342130987293,9.775171065493646,4.887585532746823,0.0,0.0
58.651026392961874,24.437927663734115,4.887585532746823,9.775171065493646,97.75171065493646,48.87585532746823,9.775171065493646
9.775171065493646,4.887585532746823,4.887585532746823,9.775171065493646,9.775171065493646,9.775171065493646,39.100684261974585
4.887585532746823,4.887585532746823,29.325513196480937,4.887585532746823,4.887585532746823,4.887585532746823,19.550342130987293
4.887585532746823,87.97653958944282,73.31378299120234,4.887585532746823,9.775171065493646,4.887585532746823,4.887585532746823
9.775171065493646,19.550342130987293,14.662756598240469,14.662756598240469,39.100684261974585,9.775171065493646,4.887585532746823
43.98826979472141,0.0,9.775171065493646,34.21309872922776,136.85239491691104,19.550342130987293,4.887585532746823
29.325513196480937,9.775171065493646,4.887585532746823,9.775171065493646,68.42619745845552,9.775171065493646,9.775171065493646
4.887585532746823,9.775171065493646,0.0,0.0,4.887585532746823,4.887585532746823,34.21309872922776
0.0,4.887585532746823,48.87585532746823,9.775171065493646,4.887585532746823,0.0,9.775171065493646
14.662756598240469,58.651026392961874,14.662756598240469,4.887585532746823,122.18963831867057,9.775171065493646,4.887585532746823
39.100684261974585,29.325513196480937,9.775171065493646,9.775171065493646,29.325513196480937,14.662756598240469,4.887585532746823
29.325513196480937,0.0,24.437927663734115,14.662756598240469,4.887585532746823,19.550342130987293,29.325513196480937
4.887585532746823,4.887585532746823,83.08895405669598,4.887585532746823,0.0,4.887585532746823,34.21309872922776
4.887585532746823,9.775171065493646,24.437927663734115,9.775171065493646,9.775171065493646,9.775171065493646,9.775171065493646
0.0,24.437927663734115,9.775171065493646,0.0,53.763440860215056,0.0,4.887585532746823
39.100684261974585,29.325513196480937,9.775171065493646,9.775171065493646,97.75171065493646,4.887585532746823,9.775171065493646
83.08895405669598,14.662756598240469,14.662756598240469,14.662756598240469,9.775171065493646,48.87585532746823,19.550342130987293
29.325513196480937,9.775171065493646,0.0,9.775171065493646,9.775171065493646,9.775171065493646,58.651026392961874
4.887585532746823,9.775171065493646,0.0,9.775171065493646,9.775171065493646,0.0,4.887585532746823
4.887585532746823,43.98826979472141,4.887585532746823,9.775171065493646,83.08895405669598,0.0,0.0
4.887585532746823,83.08895405669598,14.662756598240469,9.775171065493646,112.41446725317694,14.662756598240469,24.437927663734115
39.100684261974585,9.775171065493646,9.775171065493646,48.87585532746823,14.662756598240469,14.662756598240469,78.20136852394917
19.550342130987293,4.887585532746823,14.662756598240469,29.325513196480937,0.0,4.887585532746823,29.325513196480937
0.0,4.887585532746823,24.437927663734115,9.775171065493646,24.437927663734115,4.887585532746823,9.775171065493646
4.887585532746823,4.887585532746823,9.775171065493646,9.775171065493646,48.87585532746823,9.775171065493646,9.775171065493646
4.887585532746823,39.100684261974585,4.887585532746823,4.887585532746823,9.775171065493646,19.550342130987293,4.887585532746823
68.42619745845552,19.550342130987293,0.0,9.775171065493646,4.887585532746823,58.651026392961874,0.0
19.550342130987293,0.0,9.775171065493646,9.775171065493646,0.0,14.662756598240469,24.437927663734115
4.887585532746823,0.0,39.100684261974585,9.775171065493646,68.42619745845552,0.0,43.98826979472141
9.775171065493646,4.887585532746823,9.775171065493646,4.887585532746823,117.30205278592375,4.887585532746823,14.662756598240469
9.775171065493646,43.98826979472141,4.887585532746823,9.775171065493646,14.662756598240469,39.100684261974585,9.775171065493646
39.100684261974585,14.662756598240469,14.662756598240469,9.775171065493646,4.887585532746823,9.775171065493646,9.775171065493646
14.662756598240469,4.887585532746823,9.775171065493646,19.550342130987293,24.437927663734115,4.887585532746823,34.21309872922776
9.775171065493646,9.775171065493646,68.42619745845552,9.775171065493646,190.6158357771261,0.0,43.98826979472141
4.887585532746823,4.887585532746823,19.550342130987293,4.887585532746823,48.87585532746823,4.887585532746823,9.775171065493646
9.775171065493646,34.21309872922776,4.887585532746823,0.0,4.887585532746823,9.775171065493646,4.887585532746823
29.325513196480937,87.97653958944282,0.0,14.662756598240469,4.887585532746823,24.437927663734115,4.887585532746823
53.763440860215056,4.887585532746823,4.887585532746823,39.100684261974585,14.662756598240469,29.325513196480937,4.887585532746823
9.775171065493646,9.775171065493646,4.887585532746823,9.775171065493646,48.87585532746823,9.775171065493646,34.21309872922776
4.887585532746823,4.887585532746823,53.763440860215056,4.887585532746823,24.437927663734115,4.887585532746823,9.775171065493646
4.887585532746823,0.0,9.775171065493646,9.775171065493646,9.775171065493646,4.887585532746823,4.887585532746823
39.100684261974585,112.41446725317694,9.775171065493646,4.887585532746823,0.0,14.662756598240469,4.887585532746823
29.325513196480937,19.550342130987293,29.325513196480937,4.887585532746823,53.763440860215056,29.325513196480937,19.550342130987293
4.887585532746823,4.887585532746823,68.42619745845552,24.437927663734115,107.52688172043011,19.550342130987293,43.98826979472141
0.0,0.0,14.662756598240469,48.87585532746823,14.662756598240469,4.887585532746823,19.550342130987293
14.662756598240469,78.20136852394917,4.887585532746823,9.775171065493646,4.887585532746823,4.887585532746823,0.0
63.53861192570871,29.325513196480937,0.0,0.0,4.887585532746823,4.887585532746823,9.775171065493646
48.87585532746823,0.0,0.0,9.775171065493646,14.662756598240469,14.662756598240469,4.887585532746823
4.887585532746823,4.887585532746823,9.775171065493646,4.887585532746823,48.87585532746823,9.775171065493646,34.21309872922776
4.887585532746823,9.775171065493646,102.63929618768329,9.775171065493646,34.21309872922776,4.887585532746823,58.651026392961874
0.0,24.437927663734115,83.08895405669598,9.775171065493646,9.775171065493646,4.887585532746823,9.775171065493646
29.325513196480937,48.87585532746823,4.887585532746823,19.550342130987293,4.887585532746823,0.0,4.887585532746823
48.87585532746823,4.887585532746823,9.775171065493646,14.662756598240469,34.21309872922776,4.887585532746823,29.325513196480937
9.775171065493646,9.775171065493646,4.887585532746823,14.662756598240469,146.6275659824047,14.662756598240469,68.42619745845552
9.775171065493646,4.887585532746823,9.775171065493646,4.887585532746823,53.763440860215056,9.775171065493646,39.100684261974585
9.775171065493646,9.775171065493646,9.775171065493646,9.775171065493646,4.887585532746823,4.887585532746823,9.775171065493646
29.325513196480937,68.42619745845552,9.775171065493646,4.887585532746823,4.887585532746823,4.887585532746823,4.887585532746823
43.98826979472141,9.775171065493646,24.437927663734115,29.325513196480937,73.31378299120234,4.887585532746823,0.0
4.887585532746823,0.0,48.87585532746823,48.87585532746823,117.30205278592375,9.775171065493646,39.100684261974585
9.775171065493646,14.662756598240469,24.437927663734115,9.775171065493646,4.887585532746823,19.550342130987293,58.651026392961874
4.887585532746823,9.775171065493646,9.775171065493646,0.0,4.887585532746823,4.887585532746823,4.887585532746823
43.98826979472141,34.21309872922776,4.887585532746823,9.775171065493646,34.21309872922776,4.887585532746823,9.775171065493646
68.42619745845552,4.887585532746823,14.662756598240469,29.325513196480937,68.42619745845552,0.0,9.775171065493646
9.775171065493646,4.887585532746823,19.550342130987293,68.42619745845552,29.325513196480937,34.21309872922776,14.662756598240469
4.887585532746823,4.887585532746823,43.98826979472141,4.887585532746823,9.775171065493646,9.775171065493646,19.550342130987293
4.887585532746823,14.662756598240469,9.775171065493646,4.887585532746823,0.0,0.0,4.887585532746823
0.0,43.98826979472141,9.775171065493646,4.887585532746823,0.0,0.0,9.775171065493646
39.100684261974585,19.550342130987293,14.662756598240469,14.662756598240469,87.97653958944282,4.887585532746823,9.775171065493646
9.775171065493646,4.887585532746823,4.887585532746823,83.08895405669598,29.325513196480937,4.887585532746823,14.662756598240469
0.0,4.887585532746823,4.887585532746823,19.550342130987293,4.887585532746823,4.887585532746823,43.98826979472141
4.887585532746823,9.775171065493646,0.0,4.887585532746823,0.0,9.775171065493646,19.550342130987293
4.887585532746823,9.775171065493646,9.775171065493646,9.775171065493646,63.53861192570871,4.887585532746823,4.887585532746823
53.763440860215056,39.100684261974585,4.887585532746823,43.98826979472141,92.86412512218965,9.775171065493646,4.887585532746823
19.550342130987293,29.325513196480937,68.42619745845552,34.21309872922776,24.437927663734115,4.887585532746823,0.0
4.887585532746823,0.0,53.763440860215056,24.437927663734115,4.887585532746823,0.0,48.87585532746823
9.775171065493646,4.887585532746823,9.775171065493646,9.775171065493646,4.887585532746823,34.21309872922776,9.775171065493646
29.325513196480937,4.887585532746823,0.0,0.0,9.775171065493646,278.5923753665689,4.887585532746823
92.86412512218965,19.550342130987293,48.87585532746823,9.775171065493646,19.550342130987293,283.47996089931576,9.775171065493646
14.662756598240469,39.100684261974585,24.437927663734115,4.887585532746823,73.31378299120234,234.6041055718475,24.437927663734115
0.0,9.775171065493646,29.325513196480937,9.775171065493646,9.775171065493646,53.763440860215056,43.98826979472141
9.775171065493646,9.775171065493646,9.775171065493646,9.775171065493646,43.98826979472141,19.550342130987293,58.651026392961874
0.0,0.0,4.887585532746823,4.887585532746823,48.87585532746823,9.775171065493646,9.775171065493646
68.42619745845552,0.0,4.887585532746823,0.0,112.41446725317694,9.775171065493646,0.0
29.325513196480937,14.662756598240469,0.0,39.100684261974585,19.550342130987293,29.325513196480937,4.887585532746823
4.887585532746823,9.775171065493646,39.100684261974585,39.100684261974585,0.0,9.775171065493646,39.100684261974585
0.0,19.550342130987293,29.325513196480937,4.887585532746823,9.775171065493646,9.775171065493646,43.98826979472141
4.887585532746823,14.662756598240469,9.775171065493646,0.0,102.63929618768329,4.887585532746823,9.775171065493646
68.42619745845552,29.325513196480937,0.0,0.0,58.651026392961874,0.0,4.887585532746823
24.437927663734115,9.775171065493646,0.0,29.325513196480937,14.662756598240469,29.325513196480937,4.887585532746823
9.775171065493646,9.775171065493646,9.775171065493646,4.887585532746823,14.662756598240469,34.21309872922776,53.763440860215056
0.0,9.775171065493646,19.550342130987293,9.775171065493646,92.86412512218965,4.887585532746823,63.53861192570871
4.887585532746823,4.887585532746823,9.775171065493646,4.887585532746823,68.42619745845552,0.0,4.887585532746823
68.42619745845552,34.21309872922776,43.98826979472141,0.0,29.325513196480937,0.0,9.775171065493646
29.325513196480937,92.86412512218965,14.662756598240469,29.325513196480937,4.887585532746823,4.887585532746823,43.98826979472141
4.887585532746823,9.775171065493646,4.887585532746823,102.63929618768329,4.887585532746823,43.98826979472141,73.31378299120234
4.887585532746823,9.775171065493646,78.20136852394917,48.87585532746823,78.20136852394917,19.550342130987293,4.887585532746823
4.887585532746823,0.0,24.437927663734115,9.775171065493646,146.6275659824047,4.887585532746823,4.887585532746823
39.100684261974585,34.21309872922776,9.775171065493646,4.887585532746823,24.437927663734115,0.0,14.662756598240469
19.550342130987293,43.98826979472141,9.775171065493646,9.775171065493646,0.0,19.550342130987293,39.100684261974585
9.775171065493646,4.887585532746823,9.775171065493646,63.53861192570871,4.887585532746823,24.437927663734115,39.100684261974585
4.887585532746823,0.0,43.98826979472141,24.437927663734115,97.75171065493646,19.550342130987293,9.775171065493646
4.887585532746823,9.775171065493646,34.21309872922776,9.775171065493646,117.30205278592375,9.775171065493646,9.775171065493646
39.100684261974585,4.887585532746823,4.887585532746823,9.775171065493646,9.775171065493646,9.775171065493646,0.0
58.651026392961874,4.887585532746823,4.887585532746823,9.775171065493646,63.53861192570871,0.0,0.0
9.775171065493646,9.775171065493646,9.775171065493646,48.87585532746823,136.85239491691104,14.662756598240469,4.887585532746823
4.887585532746823,9.775171065493646,43.98826979472141,9.775171065493646,34.21309872922776,29.325513196480937,48.87585532746823
9.775171065493646,4.887585532746823,43.98826979472141,0.0,14.662756598240469,0.0,9.775171065493646
29.325513196480937,39.100684261974585,9.775171065493646,9.775171065493646,4.887585532746823,4.887585532746823,9.775171065493646
24.437927663734115,53.763440860215056,9.775171065493646,9.775171065493646,48.87585532746823,4.887585532746823,4.887585532746823
14.662756598240469,29.325513196480937,166.17790811339196,48.87585532746823,83.08895405669598,29.325513196480937,39.100684261974585
9.775171065493646,9.775171065493646,53.763440860215056,9.775171065493646,268.81720430107526,14.662756598240469,63.53861192570871
9.775171065493646,4.887585532746823,14.662756598240469,9.775171065493646,34.21309872922776,4.887585532746823,14.662756598240469
39.100684261974585,4.887585532746823,63.53861192570871,0.0,19.550342130987293,53.763440860215056,9.775171065493646
63.53861192570871,53.763440860215056,9.775171065493646,9.775171065493646,112.41446725317694,43.98826979472141,4.887585532746823
9.775171065493646,43.98826979472141,4.887585532746823,58.651026392961874,4.887585532746823,0.0,14.662756598240469
4.887585532746823,14.662756598240469,171.0654936461388,4.887585532746823,4.887585532746823,4.887585532746823,43.98826979472141
4.887585532746823,9.775171065493646,83.08895405669598,4.887585532746823,58.651026392961874,24.437927663734115,9.775171065493646
9.775171065493646,0.0,87.97653958944282,4.887585532746823,171.0654936461388,19.550342130987293,4.887585532746823
73.31378299120234,34.21309872922776,34.21309872922776,0.0,87.97653958944282,9.775171065493646,4.887585532746823
14.662756598240469,24.437927663734115,68.42619745845552,63.53861192570871,14.662756598240469,4.887585532746823,19.550342130987293
9.775171065493646,9.775171065493646,34.21309872922776,24.437927663734115,43.98826979472141,63.53861192570871,24.437927663734115
4.887585532746823,4.887585532746823,48.87585532746823,9.775171065493646,43.98826979472141,19.550342130987293,9.775171065493646
4.887585532746823,9.775171065493646,4.887585532746823,0.0,29.325513196480937,4.887585532746823,4.887585532746823
68.42619745845552,63.53861192570871,29.325513196480937,9.775171065493646,136.85239491691104,4.887585532746823,43.98826979472141
19.550342130987293,19.550342130987293,9.775171065493646,29.325513196480937,224.82893450635387,4.887585532746823,34.21309872922776
0.0,4.887585532746823,200.39100684261973,14.662756598240469,4.887585532746823,73.31378299120234,34.21309872922776
4.887585532746823,4.887585532746823,601.1730205278593,0.0,136.85239491691104,122.18963831867057,14.662756598240469
14.662756598240469,0.0,29.325513196480937,4.887585532746823,259.04203323558164,205.27859237536657,9.775171065493646
43.98826979472141,4.887585532746823,332.35581622678393,9.775171065493646,337.2434017595308,19.550342130987293,9.775171065493646
9.775171065493646,73.31378299120234,102.63929618768329,14.662756598240469,24.437927663734115,0.0,4.887585532746823
4.887585532746823,9.775171065493646,14.662756598240469,39.100684261974585,4.887585532746823,87.97653958944282,19.550342130987293
9.775171065493646,9.775171065493646,68.42619745845552,24.437927663734115,4.887585532746823,24.437927663734115,19.550342130987293
14.662756598240469,9.775171065493646,63.53861192570871,9.775171065493646,24.437927663734115,43.98826979472141,0.0
48.87585532746823,107.52688172043011,9.775171065493646,9.775171065493646,381.2316715542522,239.49169110459434,0.0
19.550342130987293,43.98826979472141,19.550342130987293,9.775171065493646,24.437927663734115,39.100684261974585,34.21309872922776
4.887585532746823,9.775171065493646,9.775171065493646,4.887585532746823,263.92961876832845,73.31378299120234,53.763440860215056
0.0,4.887585532746823,371.4565004887586,9.775171065493646,39.100684261974585,34.21309872922776,48.87585532746823
4.887585532746823,19.550342130987293,127.07722385141741,9.775171065493646,161.29032258064515,9.775171065493646,0.0
48.87585532746823,48.87585532746823,9.775171065493646,68.42619745845552,171.0654936461388,4.887585532746823,4.887585532746823
19.550342130987293,4.887585532746823,9.775171065493646,83.08895405669598,14.662756598240469,342.1309872922776,4.887585532746823
0.0,9.775171065493646,254.15444770283483,43.98826979472141,78.20136852394917,786.9012707722385,48.87585532746823
0.0,4.887585532746823,259.04203323558164,14.662756598240469,146.6275659824047,107.52688172043011,58.651026392961874
24.437927663734115,4.887585532746823,24.437927663734115,4.887585532746823,19.550342130987293,19.550342130987293,9.775171065493646
87.97653958944282,63.53861192570871,34.21309872922776,0.0,141.73998044965788,459.4330400782014,9.775171065493646
14.662756598240469,34.21309872922776,268.81720430107526,14.662756598240469,14.662756598240469,78.20136852394917,4.887585532746823
4.887585532746823,9.775171065493646,136.85239491691104,9.775171065493646,195.50342130987292,4.887585532746823,39.100684261974585
4.887585532746823,4.887585532746823,14.662756598240469,19.550342130987293,161.29032258064515,689.149560117302,29.325513196480937
0.0,4.887585532746823,151.51515151515153,9.775171065493646,215.05376344086022,210.16617790811338,0.0
39.100684261974585,29.325513196480937,136.85239491691104,9.775171065493646,19.550342130987293,78.20136852394917,9.775171065493646
19.550342130987293,87.97653958944282,39.100684261974585,9.775171065493646,4.887585532746823,200.39100684261973,9.775171065493646
9.775171065493646,14.662756598240469,48.87585532746823,87.97653958944282,19.550342130987293,537.6344086021505,24.437927663734115
0.0,9.775171065493646,58.651026392961874,24.437927663734115,322.5806451612903,53.763440860215056,73.31378299120234
4.887585532746823,4.887585532746823,29.325513196480937,9.775171065493646,39.100684261974585,591.3978494623656,4.887585532746823
58.651026392961874,4.887585532746823,83.08895405669598,4.887585532746823,29.325513196480937,24.437927663734115,4.887585532746823
14.662756598240469,78.20136852394917,283.47996089931576,4.887585532746823,73.31378299120234,361.6813294232649,24.437927663734115
0.0,24.437927663734115,136.85239491691104,24.437927663734115,9.775171065493646,107.52688172043011,39.100684261974585
4.887585532746823,0.0,29.325513196480937,29.325513196480937,278.5923753665689,4.887585532746823,73.31378299120234
0.0,4.887585532746823,34.21309872922776,14.662756598240469,97.75171065493646,0.0,9.775171065493646
9.775171065493646,39.100684261974585,332.35581622678393,4.887585532746823,9.775171065493646,698.9247311827957,9.775171065493646
68.42619745845552,68.42619745845552,92.86412512218965,9.775171065493646,161.29032258064515,293.2551319648094,4.887585532746823
14.662756598240469,9.775171065493646,24.437927663734115,48.87585532746823,268.81720430107526,83.08895405669598,19.550342130987293
9.775171065493646,4.887585532746823,19.550342130987293,63.53861192570871,97.75171065493646,78.20136852394917,39.100684261974585
0.0,0.0,175.95307917888564,4.887585532746823,58.651026392961874,151.51515151515153,24.437927663734115
34.21309872922776,4.887585532746823,48.87585532746823,4.887585532746823,4.887585532746823,635.386119257087,4.887585532746823
43.98826979472141,107.52688172043011,24.437927663734115,0.0,268.81720430107526,73.31378299120234,4.887585532746823
4.887585532746823,68.42619745845552,97.75171065493646,4.887585532746823,34.21309872922776,4.887585532746823,14.662756598240469
14.662756598240469,4.887585532746823,288.36754643206257,0.0,4.887585532746823,166.17790811339196,4.887585532746823
0.0,0.0,24.437927663734115,9.775171065493646,0.0,39.100684261974585,14.662756598240469
19.550342130987293,34.21309872922776,356.7937438905181,24.437927663734115,161.29032258064515,327.4682306940371,9.775171065493646
48.87585532746823,24.437927663734115,503.42130987292273,43.98826979472141,175.95307917888564,273.7047898338221,0.0
19.550342130987293,4.887585532746823,97.75171065493646,29.325513196480937,14.662756598240469,171.0654936461388,9.775171065493646
4.887585532746823,4.887585532746823,24.437927663734115,9.775171065493646,117.30205278592375,34.21309872922776,58.651026392961874
14.662756598240469,9.775171065493646,694.0371456500488,9.775171065493646,53.763440860215056,9.775171065493646,53.763440860215056
14.662756598240469,53.763440860215056,34.21309872922776,0.0,102.63929618768329,29.325513196480937,9.775171065493646
58.651026392961874,92.86412512218965,14.662756598240469,39.100684261974585,185.7282502443793,58.651026392961874,9.775171065493646
19.550342130987293,9.775171065493646,166.17790811339196,166.17790811339196,24.437927663734115,112.41446725317694,4.887585532746823
0.0,0.0,34.21309872922776,14.662756598240469,19.550342130987293,366.5689149560117,68.42619745845552
9.775171065493646,24.437927663734115,92.86412512218965,9.775171065493646,4.887585532746823,278.5923753665689,14.662756598240469
19.550342130987293,63.53861192570871,342.1309872922776,9.775171065493646,175.95307917888564,39.100684261974585,9.775171065493646
78.20136852394917,29.325513196480937,29.325513196480937,102.63929618768329,53.763440860215056,39.100684261974585,4.887585532746823
4.887585532746823,9.775171065493646,9.775171065493646,131.96480938416423,4.887585532746823,386.119257086999,4.887585532746823
0.0,0.0,63.53861192570871,24.437927663734115,63.53861192570871,92.86412512218965,34.21309872922776
9.775171065493646,0.0,430.10752688172045,4.887585532746823,97.75171065493646,332.35581622678393,14.662756598240469
0.0,34.21309872922776,58.651026392961874,4.887585532746823,24.437927663734115,625.6109481915934,9.775171065493646
43.98826979472141,87.97653958944282,122.18963831867057,9.775171065493646,19.550342130987293,395.89442815249265,0.0
19.550342130987293,4.887585532746823,102.63929618768329,180.84066471163246,14.662756598240469,43.98826979472141,48.87585532746823
0.0,0.0,58.651026392961874,34.21309872922776,73.31378299120234,43.98826979472141,122.18963831867057
9.775171065493646,4.887585532746823,97.75171065493646,4.887585532746823,273.7047898338221,19.550342130987293,19.550342130987293
4.887585532746823,73.31378299120234,14.662756598240469,14.662756598240469,87.97653958944282,391.00684261974584,9.775171065493646
43.98826979472141,24.437927663734115,97.75171065493646,14.662756598240469,14.662756598240469,58.651026392961874,4.887585532746823
58.651026392961874,9.775171065493646,454.54545454545456,24.437927663734115,19.550342130987293,29.325513196480937,14.662756598240469
0.0,0.0,87.97653958944282,9.775171065493646,83.08895405669598,9.775171065493646,39.100684261974585
4.887585532746823,0.0,68.42619745845552,53.763440860215056,63.53861192570871,117.30205278592375,24.437927663734115
0.0,34.21309872922776,19.550342130987293,263.92961876832845,14.662756598240469,552.297165200391,4.887585532746823
43.98826979472141,73.31378299120234,0.0,39.100684261974585,0.0,229.7165200391007,0.0
14.662756598240469,19.550342130987293,190.6158357771261,9.775171065493646,48.87585532746823,224.82893450635387,4.887585532746823
4.887585532746823,4.887585532746823,278.5923753665689,102.63929618768329,239.49169110459434,356.7937438905181,78.20136852394917
9.775171065493646,4.887585532746823,29.325513196480937,14.662756598240469,48.87585532746823,146.6275659824047,34.21309872922776
39.100684261974585,43.98826979472141,34.21309872922776,4.887585532746823,9.775171065493646,29.325513196480937,4.887585532746823
68.42619745845552,78.20136852394917,97.75171065493646,63.53861192570871,48.87585532746823,102.63929618768329,0.0
24.437927663734115,9.775171065493646,180.84066471163246,185.7282502443793,210.16617790811338,24.437927663734115,14.662756598240469
9.775171065493646,0.0,283.47996089931576,469.208211143695,43.98826979472141,9.775171065493646,39.100684261974585
9.775171065493646,4.887585532746823,29.325513196480937,39.100684261974585,14.662756598240469,381.2316715542522,39.100684261974585
9.775171065493646,34.21309872922776,53.763440860215056,4.887585532746823,9.775171065493646,24.437927663734115,4.887585532746823
34.21309872922776,48.87585532746823,723.3626588465298,53.763440860215056,9.775171065493646,58.651026392961874,4.887585532746823
78.20136852394917,9.775171065493646,171.0654936461388,439.8826979472141,107.52688172043011,180.84066471163246,9.775171065493646
0.0,9.775171065493646,24.437927663734115,161.29032258064515,43.98826979472141,48.87585532746823,39.100684261974585
9.775171065493646,9.775171065493646,9.775171065493646,9.775171065493646,19.550342130987293,122.18963831867057,146.6275659824047
0.0,39.100684261974585,249.26686217008796,92.86412512218965,9.775171065493646,268.81720430107526,34.21309872922776
24.437927663734115,92.86412512218965,210.16617790811338,39.100684261974585,122.18963831867057,175.95307917888564,4.887585532746823
78.20136852394917,19.550342130987293,19.550342130987293,9.775171065493646,73.31378299120234,53.763440860215056,4.887585532746823
14.662756598240469,0.0,254.15444770283483,97.75171065493646,43.98826979472141,97.75171065493646,14.662756598240469
0.0,4.887585532746823,117.30205278592375,483.8709677419355,9.775171065493646,112.41446725317694,63.53861192570871
0.0,73.31378299120234,24.437927663734115,219.94134897360706,9.775171065493646,78.20136852394917,4.887585532746823
48.87585532746823,63.53861192570871,4.887585532746823,53.763440860215056,24.437927663734115,278.5923753665689,4.887585532746823
29.325513196480937,0.0,9.775171065493646,4.887585532746823,190.6158357771261,293.2551319648094,0.0
9.775171065493646,4.887585532746823,0.0,9.775171065493646,58.651026392961874,43.98826979472141,4.887585532746823
4.887585532746823,9.775171065493646,972.6295210166178,24.437927663734115,14.662756598240469,117.30205278592375,87.97653958944282
0.0,92.86412512218965,68.42619745845552,444.77028347996094,29.325513196480937,190.6158357771261,43.98826979472141
29.325513196480937,166.17790811339196,9.775171065493646,107.52688172043011,39.100684261974585,303.03030303030306,4.887585532746823
34.21309872922776,29.325513196480937,29.325513196480937,14.662756598240469,215.05376344086022,48.87585532746823,9.775171065493646
9.775171065493646,9.775171065493646,337.2434017595308,0.0,34.21309872922776,97.75171065493646,4.887585532746823
4.887585532746823,4.887585532746823,122.18963831867057,4.887585532746823,9.775171065493646,395.89442815249265,29.325513196480937
0.0,205.27859237536657,9.775171065493646,342.1309872922776,9.775171065493646,39.100684261974585,9.775171065493646
48.87585532746823,34.21309872922776,4.887585532746823,581.622678396872,43.98826979472141,39.100684261974585,0.0
73.31378299120234,58.651026392961874,488.7585532746823,283.47996089931576,180.84066471163246,48.87585532746823,14.662756598240469
4.887585532746823,14.662756598240469,43.98826979472141,180.84066471163246,19.550342130987293,39.100684261974585,0.0
4.887585532746823,4.887585532746823,24.437927663734115,4.887585532746823,4.887585532746823,39.100684261974585,9.775171065493646
4.887585532746823,73.31378299120234,63.53861192570871,527.8592375366569,63.53861192570871,278.5923753665689,53.763440860215056
19.550342130987293,425.2199413489736,107.52688172043011,166.17790811339196,205.27859237536657,73.31378299120234,0.0
19.550342130987293,78.20136852394917,175.95307917888564,347.0185728250244,34.21309872922776,58.651026392961874,4.887585532746823
4.887585532746823,9.775171065493646,39.100684261974585,923.7536656891496,4.887585532746823,48.87585532746823,0.0
4.887585532746823,4.887585532746823,9.775171065493646,53.763440860215056,9.775171065493646,254.15444770283483,9.775171065493646
9.775171065493646,4.887585532746823,4.887585532746823,0.0,48.87585532746823,92.86412512218965,4.887585532746823
43.98826979472141,175.95307917888564,43.98826979472141,131.96480938416423,166.17790811339196,200.39100684261973,4.887585532746823
73.31378299120234,405.6695992179863,48.87585532746823,909.0909090909091,43.98826979472141,14.662756598240469,9.775171065493646
9.775171065493646,127.07722385141741,513.1964809384165,127.07722385141741,19.550342130987293,205.27859237536657,0.0
4.887585532746823,4.887585532746823,53.763440860215056,175.95307917888564,0.0,356.7937438905181,0.0
9.775171065493646,4.887585532746823,0.0,92.86412512218965,97.75171065493646,24.437927663734115,43.98826979472141
4.887585532746823,141.73998044965788,161.29032258064515,171.0654936461388,127.07722385141741,141.73998044965788,9.775171065493646
43.98826979472141,342.1309872922776,307.91788856304987,957.9667644183774,14.662756598240469,141.73998044965788,4.887585532746823
14.662756598240469,29.325513196480937,43.98826979472141,48.87585532746823,4.887585532746823,83.08895405669598,4.887585532746823
4.887585532746823,9.775171065493646,131.96480938416423,566.9599217986315,14.662756598240469,43.98826979472141,9.775171065493646
4.887585532746823,43.98826979472141,107.52688172043011,24.437927663734115,34.21309872922776,288.36754643206257,29.325513196480937
9.775171065493646,29.325513196480937,102.63929618768329,811.3391984359725,107.52688172043011,244.37927663734115,4.887585532746823
68.42619745845552,14.662756598240469,48.87585532746823,180.84066471163246,24.437927663734115,141.73998044965788,9.775171065493646
29.325513196480937,234.6041055718475,14.662756598240469,229.7165200391007,9.775171065493646,29.325513196480937,4.887585532746823
4.887585532746823,83.08895405669598,127.07722385141741,518.0840664711633,73.31378299120234,39.100684261974585,34.21309872922776
9.775171065493646,9.775171065493646,195.50342130987292,239.49169110459434,200.39100684261973,9.775171065493646,127.07722385141741
4.887585532746823,87.97653958944282,97.75171065493646,117.30205278592375,9.775171065493646,107.52688172043011,29.325513196480937
29.325513196480937,102.63929618768329,9.775171065493646,777.1260997067449,9.775171065493646,185.7282502443793,4.887585532746823
43.98826979472141,127.07722385141741,117.30205278592375,87.97653958944282,9.775171065493646,29.325513196480937,9.775171065493646
4.887585532746823,34.21309872922776,430.10752688172045,522.9716520039101,68.42619745845552,107.52688172043011,4.887585532746823
4.887585532746823,14.662756598240469,43.98826979472141,24.437927663734115,175.95307917888564,190.6158357771261,68.42619745845552
9.775171065493646,43.98826979472141,4.887585532746823,537.6344086021505,58.651026392961874,102.63929618768329,14.662756598240469
24.437927663734115,4.887585532746823,73.31378299120234,14.662756598240469,9.775171065493646,78.20136852394917,4.887585532746823
63.53861192570871,0.0,136.85239491691104,205.27859237536657,4.887585532746823,73.31378299120234,0.0
4.887585532746823,156.40273704789834,175.95307917888564,175.95307917888564,185.7282502443793,268.81720430107526,9.775171065493646
4.887585532746823,342.1309872922776,24.437927663734115,239.49169110459434,83.08895405669598,219.94134897360706,39.100684261974585
0.0,29.325513196480937,9.775171065493646,156.40273704789834,4.887585532746823,19.550342130987293,9.775171065493646
39.100684261974585,9.775171065493646,180.84066471163246,127.07722385141741,4.887585532746823,48.87585532746823,4.887585532746823
73.31378299120234,4.887585532746823,464.3206256109482,410.55718475073314,58.651026392961874,58.651026392961874,4.887585532746823
4.887585532746823,9.775171065493646,83.08895405669598,395.89442815249265,87.97653958944282,73.31378299120234,14.662756598240469
9.775171065493646,127.07722385141741,4.887585532746823,68.42619745845552,53.763440860215056,337.2434017595308,24.437927663734115
9.775171065493646,131.96480938416423,0.0,48.87585532746823,9.775171065493646,58.651026392961874,19.550342130987293
43.98826979472141,14.662756598240469,268.81720430107526,175.95307917888564,19.550342130987293,136.85239491691104,0.0
83.08895405669598,0.0,234.6041055718475,19.550342130987293,171.0654936461388,102.63929618768329,4.887585532746823
9.775171065493646,34.21309872922776,19.550342130987293,674.4868035190616,58.651026392961874,83.08895405669598,24.437927663734115
0.0,219.94134897360706,34.21309872922776,63.53861192570871,4.887585532746823,127.07722385141741,78.20136852394917
4.887585532746823,244.37927663734115,78.20136852394917,53.763440860215056,4.887585532746823,161.29032258064515,29.325513196480937
0.0,48.87585532746823,24.437927663734115,229.7165200391007,9.775171065493646,34.21309872922776,9.775171065493646
24.437927663734115,190.6158357771261,156.40273704789834,48.87585532746823,141.73998044965788,151.51515151515153,0.0
9.775171065493646,29.325513196480937,224.82893450635387,420.33235581622677,97.75171065493646,14.662756598240469,0.0
4.887585532746823,92.86412512218965,29.325513196480937,112.41446725317694,9.775171065493646,63.53861192570871,19.550342130987293
4.887585532746823,322.5806451612903,58.651026392961874,249.26686217008796,9.775171065493646,29.325513196480937,43.98826979472141
4.887585532746823,185.7282502443793,24.437927663734115,53.763440860215056,83.08895405669598,239.49169110459434,14.662756598240469
43.98826979472141,29.325513196480937,83.08895405669598,293.2551319648094,24.437927663734115,24.437927663734115,0.0
19.550342130987293,9.775171065493646,14.662756598240469,171.0654936461388,4.887585532746823,219.94134897360706,9.775171065493646
9.775171065493646,117.30205278592375,566.9599217986315,303.03030303030306,9.775171065493646,43.98826979472141,0.0
0.0,117.30205278592375,48.87585532746823,161.29032258064515,53.763440860215056,332.35581622678393,73.31378299120234
19.550342130987293,9.775171065493646,9.775171065493646,498.5337243401759,117.30205278592375,53.763440860215056,102.63929618768329
112.41446725317694,156.40273704789834,29.325513196480937,43.98826979472141,48.87585532746823,146.6275659824047,14.662756598240469
136.85239491691104,351.9061583577713,29.325513196480937,200.39100684261973,4.887585532746823,273.7047898338221,4.887585532746823
14.662756598240469,43.98826979472141,141.73998044965788,518.0840664711633,14.662756598240469,24.437927663734115,4.887585532746823
4.887585532746823,9.775171065493646,239.49169110459434,29.325513196480937,73.31378299120234,0.0,14.662756598240469
39.100684261974585,151.51515151515153,53.763440860215056,39.100684261974585,63.53861192570871,210.16617790811338,9.775171065493646
58.651026392961874,606.0606060606061,4.887585532746823,596.2854349951125,19.550342130987293,259.04203323558164,9.775171065493646
9.775171065493646,34.21309872922776,293.2551319648094,29.325513196480937,4.887585532746823,39.100684261974585,4.887585532746823
4.887585532746823,9.775171065493646,161.29032258064515,48.87585532746823,9.775171065493646,39.100684261974585,0.0
9.775171065493646,219.94134897360706,48.87585532746823,752.6881720430108,24.437927663734115,29.325513196480937,53.763440860215056
58.651026392961874,39.100684261974585,9.775171065493646,73.31378299120234,131.96480938416423,127.07722385141741,14.662756598240469
259.04203323558164,83.08895405669598,307.91788856304987,136.85239491691104,34.21309872922776,107.52688172043011,9.775171065493646
48.87585532746823,361.6813294232649,141.73998044965788,78.20136852394917,4.887585532746823,78.20136852394917,0.0
4.887585532746823,102.63929618768329,19.550342130987293,478.9833822091887,0.0,97.75171065493646,4.887585532746823
4.887585532746823,4.887585532746823,19.550342130987293,141.73998044965788,151.51515151515153,83.08895405669598,53.763440860215056
0.0,581.622678396872,87.97653958944282,29.325513196480937,171.0654936461388,43.98826979472141,0.0
122.18963831867057,161.29032258064515,87.97653958944282,180.84066471163246,14.662756598240469,29.325513196480937,112.41446725317694
288.36754643206257,234.6041055718475,127.07722385141741,337.2434017595308,0.0,87.97653958944282,175.95307917888564
48.87585532746823,39.100684261974585,19.550342130987293,131.96480938416423,0.0,48.87585532746823,205.27859237536657
0.0,9.775171065493646,83.08895405669598,205.27859237536657,102.63929618768329,127.07722385141741,146.6275659824047
127.07722385141741,9.775171065493646,161.29032258064515,278.5923753665689,34.21309872922776,58.651026392961874,9.775171065493646
102.63929618768329,19.550342130987293,102.63929618768329,464.3206256109482,4.887585532746823,58.651026392961874,19.550342130987293
112.41446725317694,63.53861192570871,107.52688172043011,92.86412512218965,4.887585532746823,78.20136852394917,34.21309872922776
239.49169110459434,102.63929618768329,87.97653958944282,635.386119257087,14.662756598240469,24.437927663734115,78.20136852394917
439.8826979472141,34.21309872922776,58.651026392961874,43.98826979472141,107.52688172043011,141.73998044965788,19.550342130987293
278.5923753665689,83.08895405669598,24.437927663734115,283.47996089931576,73.31378299120234,210.16617790811338,14.662756598240469
19.550342130987293,469.208211143695,102.63929618768329,185.7282502443793,14.662756598240469,117.30205278592375,9.775171065493646
4.887585532746823,58.651026392961874,29.325513196480937,102.63929618768329,4.887585532746823,9.775171065493646,43.98826979472141
117.30205278592375,239.49169110459434,219.94134897360706,562.0723362658846,39.100684261974585,73.31378299120234,58.651026392961874
166.17790811339196,24.437927663734115,102.63929618768329,29.325513196480937,107.52688172043011,29.325513196480937,4.887585532746823
9.775171065493646,68.42619745845552,29.325513196480937,249.26686217008796,29.325513196480937,58.651026392961874,9.775171065493646
92.86412512218965,68.42619745845552,131.96480938416423,596.2854349951125,4.887585532746823,24.437927663734115,9.775171065493646
48.87585532746823,9.775171065493646,73.31378299120234,39.100684261974585,4.887585532746823,19.550342130987293,63.53861192570871
537.6344086021505,171.0654936461388,303.03030303030306,19.550342130987293,19.550342130987293,278.5923753665689,102.63929618768329
24.437927663734115,87.97653958944282,39.100684261974585,342.1309872922776,117.30205278592375,24.437927663734115,9.775171065493646
39.100684261974585,161.29032258064515,19.550342130987293,102.63929618768329,136.85239491691104,117.30205278592375,4.887585532746823
835.7771260997067,48.87585532746823,29.325513196480937,801.5640273704789,14.662756598240469,14.662756598240469,0.0
361.6813294232649,43.98826979472141,210.16617790811338,48.87585532746823,9.775171065493646,171.0654936461388,24.437927663734115
24.437927663734115,14.662756598240469,87.97653958944282,415.44477028347995,73.31378299120234,102.63929618768329,19.550342130987293
9.775171065493646,4.887585532746823,24.437927663734115,317.6930596285435,112.41446725317694,4.887585532746823,9.775171065493646
180.84066471163246,83.08895405669598,4.887585532746823,210.16617790811338,19.550342130987293,9.775171065493646,4.887585532746823
772.238514173998,58.651026392961874,141.73998044965788,136.85239491691104,0.0,4.887585532746823,4.887585532746823
263.92961876832845,166.17790811339196,156.40273704789834,161.29032258064515,0.0,141.73998044965788,0.0
29.325513196480937,78.20136852394917,14.662756598240469,219.94134897360706,87.97653958944282,107.52688172043011,19.550342130987293
4.887585532746823,4.887585532746823,19.550342130987293,107.52688172043011,73.31378299120234,43.98826979472141,4.887585532746823
493.6461388074291,9.775171065493646,107.52688172043011,122.18963831867057,4.887585532746823,34.21309872922776,9.775171065493646
615.8357771260997,127.07722385141741,14.662756598240469,263.92961876832845,4.887585532746823,244.37927663734115,4.887585532746823
29.325513196480937,430.10752688172045,0.0,263.92961876832845,9.775171065493646,34.21309872922776,9.775171065493646
9.775171065493646,29.325513196480937,337.2434017595308,210.16617790811338,156.40273704789834,29.325513196480937,78.20136852394917
303.03030303030306,4.887585532746823,161.29032258064515,224.82893450635387,58.651026392961874,117.30205278592375,78.20136852394917
762.4633431085044,4.887585532746823,19.550342130987293,215.05376344086022,9.775171065493646,83.08895405669598,4.887585532746823
53.763440860215056,53.763440860215056,215.05376344086022,405.6695992179863,4.887585532746823,14.662756598240469,4.887585532746823
87.97653958944282,200.39100684261973,39.100684261974585,400.78201368523946,122.18963831867057,97.75171065493646,9.775171065493646
195.50342130987292,175.95307917888564,146.6275659824047,283.47996089931576,78.20136852394917,92.86412512218965,58.651026392961874
83.08895405669598,14.662756598240469,117.30205278592375,112.41446725317694,9.775171065493646,19.550342130987293,9.775171065493646
400.78201368523946,83.08895405669598,48.87585532746823,518.0840664711633,9.775171065493646,78.20136852394917,4.887585532746823
24.437927663734115,141.73998044965788,215.05376344086022,24.437927663734115,4.887585532746823,102.63929618768329,0.0
9.775171065493646,9.775171065493646,83.08895405669598,454.54545454545456,24.437927663734115,24.437927663734115,0.0
43.98826979472141,9.775171065493646,97.75171065493646,190.6158357771261,39.100684261974585,234.6041055718475,58.651026392961874
53.763440860215056,73.31378299120234,268.81720430107526,83.08895405669598,43.98826979472141,102.63929618768329,24.437927663734115
83.08895405669598,185.7282502443793,136.85239491691104,1124.1446725317692,9.775171065493646,97.75171065493646,0.0
200.39100684261973,48.87585532746823,14.662756598240469,146.6275659824047,9.775171065493646,92.86412512218965,4.887585532746823
19.550342130987293,9.775171065493646,0.0,332.35581622678393,48.87585532746823,43.98826979472141,0.0
303.03030303030306,87.97653958944282,395.89442815249265,288.36754643206257,278.5923753665689,29.325513196480937,14.662756598240469
63.53861192570871,63.53861192570871,34.21309872922776,19.550342130987293,19.550342130987293,4.887585532746823,9.775171065493646
29.325513196480937,58.651026392961874,141.73998044965788,254.15444770283483,9.775171065493646,39.100684261974585,4.887585532746823
464.3206256109482,0.0,19.550342130987293,674.4868035190616,78.20136852394917,195.50342130987292,0.0
400.78201368523946,63.53861192570871,4.887585532746823,498.5337243401759,171.0654936461388,112.41446725317694,24.437927663734115
29.325513196480937,63.53861192570871,39.100684261974585,78.20136852394917,58.651026392961874,9.775171065493646,73.31378299120234
4.887585532746823,278.5923753665689,166.17790811339196,151.51515151515153,4.887585532746823,34.21309872922776,63.53861192570871
73.31378299120234,24.437927663734115,63.53861192570871,43.98826979472141,9.775171065493646,63.53861192570871,4.887585532746823
371.4565004887586,4.887585532746823,29.325513196480937,58.651026392961874,9.775171065493646,337.2434017595308,4.887585532746823
122.18963831867057,0.0,151.51515151515153,610.9481915933529,117.30205278592375,43.98826979472141,0.0
112.41446725317694,19.550342130987293,131.96480938416423,141.73998044965788,29.325513196480937,19.550342130987293,0.0
185.7282502443793,107.52688172043011,9.775171065493646,391.00684261974584,4.887585532746823,58.651026392961874,19.550342130987293
19.550342130987293,24.437927663734115,141.73998044965788,171.0654936461388,4.887585532746823,43.98826979472141,4.887585532746823
136.85239491691104,117.30205278592375,43.98826979472141,19.550342130987293,9.775171065493646,34.21309872922776,9.775171065493646
24.437927663734115,78.20136852394917,254.15444770283483,273.7047898338221,97.75171065493646,29.325513196480937,4.887585532746823
9.775171065493646,4.887585532746823,219.94134897360706,73.31378299120234,24.437927663734115,58.651026392961874,34.21309872922776
4.887585532746823,58.651026392961874,29.325513196480937,185.7282502443793,9.775171065493646,102.63929618768329,48.87585532746823
127.07722385141741,151.51515151515153,4.887585532746823,63.53861192570871,0.0,53.763440860215056,9.775171065493646
53.763440860215056,73.31378299120234,4.887585532746823,591.3978494623656,34.21309872922776,24.437927663734115,0.0
527.8592375366569,48.87585532746823,107.52688172043011,307.91788856304987,219.94134897360706,39.100684261974585,4.887585532746823
29.325513196480937,200.39100684261973,278.5923753665689,107.52688172043011,63.53861192570871,195.50342130987292,9.775171065493646
29.325513196480937,53.763440860215056,29.325513196480937,454.54545454545456,4.887585532746823,78.20136852394917,34.21309872922776
151.51515151515153,14.662756598240469,151.51515151515153,87.97653958944282,14.662756598240469,146.6275659824047,9.775171065493646
34.21309872922776,141.73998044965788,14.662756598240469,381.2316715542522,122.18963831867057,234.6041055718475,0.0
371.4565004887586,146.6275659824047,102.63929618768329,78.20136852394917,29.325513196480937,122.18963831867057,9.775171065493646
180.84066471163246,268.81720430107526,136.85239491691104,112.41446725317694,14.662756598240469,29.325513196480937,9.775171065493646
14.662756598240469,24.437927663734115,122.18963831867057,337.2434017595308,0.0,127.07722385141741,24.437927663734115
73.31378299120234,9.775171065493646,175.95307917888564,161.29032258064515,39.100684261974585,9.775171065493646,14.662756598240469
19.550342130987293,43.98826979472141,24.437927663734115,34.21309872922776,185.7282502443793,180.84066471163246,4.887585532746823
254.15444770283483,9.775171065493646,34.21309872922776,469.208211143695,78.20136852394917,24.437927663734115,0.0
459.4330400782014,24.437927663734115,29.325513196480937,34.21309872922776,9.775171065493646,180.84066471163246,4.887585532746823
34.21309872922776,78.20136852394917,19.550342130987293,566.9599217986315,4.887585532746823,63.53861192570871,19.550342130987293
9.775171065493646,439.8826979472141,307.91788856304987,185.7282502443793,43.98826979472141,63.53861192570871,34.21309872922776
43.98826979472141,83.08895405669598,244.37927663734115,156.40273704789834,117.30205278592375,9.775171065493646,4.887585532746823
219.94134897360706,14.662756598240469,14.662756598240469,180.84066471163246,48.87585532746823,53.763440860215056,0.0
146.6275659824047,0.0,29.325513196480937,244.37927663734115,4.887585532746823,24.437927663734115,4.887585532746823
9.775171065493646,53.763440860215056,29.325513196480937,43.98826979472141,4.887585532746823,205.27859237536657,53.763440860215056
14.662756598240469,53.763440860215056,303.03030303030306,156.40273704789834,53.763440860215056,29.325513196480937,131.96480938416423
4.887585532746823,107.52688172043011,224.82893450635387,58.651026392961874,146.6275659824047,29.325513196480937,9.775171065493646
151.51515151515153,39.100684261974585,107.52688172043011,307.91788856304987,39.100684261974585,4.887585532746823,4.887585532746823
151.51515151515153,9.775171065493646,4.887585532746823,34.21309872922776,4.887585532746823,171.0654936461388,9.775171065493646
24.437927663734115,63.53861192570871,87.97653958944282,180.84066471163246,14.662756598240469,97.75171065493646,9.775171065493646
14.662756598240469,48.87585532746823,395.89442815249265,190.6158357771261,68.42619745845552,122.18963831867057,24.437927663734115
14.662756598240469,43.98826979472141,78.20136852394917,239.49169110459434,87.97653958944282,97.75171065493646,4.887585532746823
112.41446725317694,141.73998044965788,107.52688172043011,650.0488758553274,4.887585532746823,53.763440860215056,4.887585532746823
259.04203323558164,39.100684261974585,19.550342130987293,219.94134897360706,4.887585532746823,259.04203323558164,9.775171065493646
68.42619745845552,14.662756598240469,34.21309872922776,234.6041055718475,19.550342130987293,58.651026392961874,48.87585532746823
175.95307917888564,78.20136852394917,224.82893450635387,122.18963831867057,259.04203323558164,185.7282502443793,73.31378299120234
327.4682306940371,293.2551319648094,122.18963831867057,58.651026392961874,48.87585532746823,24.437927663734115,9.775171065493646
29.325513196480937,29.325513196480937,19.550342130987293,303.03030303030306,9.775171065493646,19.550342130987293,4.887585532746823
92.86412512218965,24.437927663734115,171.0654936461388,185.7282502443793,4.887585532746823,53.763440860215056,4.887585532746823
9.775171065493646,102.63929618768329,39.100684261974585,156.40273704789834,43.98826979472141,0.0,39.100684261974585
166.17790811339196,347.0185728250244,63.53861192570871,73.31378299120234,175.95307917888564,161.29032258064515,53.763440860215056
195.50342130987292,24.437927663734115,24.437927663734115,718.475073313783,43.98826979472141,127.07722385141741,0.0
97.75171065493646,4.887585532746823,29.325513196480937,229.7165200391007,19.550342130987293,14.662756598240469,4.887585532746823
9.775171065493646,4.887585532746823,4.887585532746823,117.30205278592375,4.887585532746823,185.7282502443793,4.887585532746823
83.08895405669598,415.44477028347995,195.50342130987292,562.0723362658846,141.73998044965788,102.63929618768329,19.550342130987293
136.85239491691104,102.63929618768329,102.63929618768329,68.42619745845552,146.6275659824047,48.87585532746823,43.98826979472141
141.73998044965788,14.662756598240469,29.325513196480937,87.97653958944282,9.775171065493646,63.53861192570871,4.887585532746823
58.651026392961874,73.31378299120234,68.42619745845552,366.5689149560117,4.887585532746823,48.87585532746823,4.887585532746823
9.775171065493646,127.07722385141741,14.662756598240469,43.98826979472141,9.775171065493646,73.31378299120234,9.775171065493646
283.47996089931576,58.651026392961874,58.651026392961874,151.51515151515153,112.41446725317694,92.86412512218965,14.662756598240469
53.763440860215056,283.47996089931576,63.53861192570871,522.9716520039101,53.763440860215056,68.42619745845552,63.53861192570871
268.81720430107526,19.550342130987293,68.42619745845552,29.325513196480937,4.887585532746823,48.87585532746823,9.775171065493646
24.437927663734115,9.775171065493646,131.96480938416423,131.96480938416423,0.0,48.87585532746823,0.0
127.07722385141741,107.52688172043011,48.87585532746823,224.82893450635387,4.887585532746823,39.100684261974585,9.775171065493646
14.662756598240469,117.30205278592375,83.08895405669598,205.27859237536657,102.63929618768329,4.887585532746823,58.651026392961874
122.18963831867057,34.21309872922776,19.550342130987293,131.96480938416423,14.662756598240469,34.21309872922776,58.651026392961874
78.20136852394917,9.775171065493646,4.887585532746823,48.87585532746823,4.887585532746823,303.03030303030306,9.775171065493646
156.40273704789834,4.887585532746823,0.0,307.91788856304987,4.887585532746823,24.437927663734115,0.0
122.18963831867057,87.97653958944282,425.2199413489736,53.763440860215056,29.325513196480937,24.437927663734115,4.887585532746823
14.662756598240469,24.437927663734115,34.21309872922776,48.87585532746823,151.51515151515153,9.775171065493646,24.437927663734115
29.325513196480937,29.325513196480937,185.7282502443793,356.7937438905181,73.31378299120234,92.86412512218965,48.87585532746823
83.08895405669598,97.75171065493646,141.73998044965788,156.40273704789834,14.662756598240469,14.662756598240469,9.775171065493646
14.662756598240469,68.42619745845552,112.41446725317694,430.10752688172045,9.775171065493646,122.18963831867057,0.0
210.16617790811338,24.437927663734115,19.550342130987293,83.08895405669598,102.63929618768329,83.08895405669598,4.887585532746823
48.87585532746823,4.887585532746823,58.651026392961874,200.39100684261973,48.87585532746823,29.325513196480937,43.98826979472141
9.775171065493646,4.887585532746823,58.651026392961874,185.7282502443793,24.437927663734115,205.27859237536657,83.08895405669598
58.651026392961874,63.53861192570871,53.763440860215056,180.84066471163246,0.0,58.651026392961874,4.887585532746823
434.99511241446726,136.85239491691104,161.29032258064515,293.2551319648094,9.775171065493646,171.0654936461388,4.887585532746823
34.21309872922776,14.662756598240469,34.21309872922776,39.100684261974585,92.86412512218965,34.21309872922776,4.887585532746823
29.325513196480937,63.53861192570871,43.98826979472141,4.887585532746823,102.63929618768329,58.651026392961874,9.775171065493646
14.662756598240469,141.73998044965788,92.86412512218965,386.119257086999,14.662756598240469,34.21309872922776,24.437927663734115
102.63929618768329,29.325513196480937,215.05376344086022,141.73998044965788,9.775171065493646,87.97653958944282,4.887585532746823
97.75171065493646,4.887585532746823,39.100684261974585,151.51515151515153,48.87585532746823,19.550342130987293,4.887585532746823
34.21309872922776,53.763440860215056,14.662756598240469,210.16617790811338,39.100684261974585,29.325513196480937,9.775171065493646
14.662756598240469,29.325513196480937,83.08895405669598,180.84066471163246,73.31378299120234,24.437927663734115,19.550342130987293
112.41446725317694,151.51515151515153,83.08895405669598,518.0840664711633,14.662756598240469,180.84066471163246,53.763440860215056
112.41446725317694,166.17790811339196,102.63929618768329,97.75171065493646,9.775171065493646,29.325513196480937,14.662756598240469
9.775171065493646,24.437927663734115,19.550342130987293,24.437927663734115,73.31378299120234,83.08895405669598,9.775171065493646
14.662756598240469,4.887585532746823,146.6275659824047,117.30205278592375,127.07722385141741,29.325513196480937,4.887585532746823
