HandOpen,HandClose,Wrist Flexion,Wrist Extension,Supination,Pronation,Rest
4.887585532746823,4.887585532746823,4.887585532746823,4.887585532746823,14.662756598240469,9.775171065493646,34.21309872922776
0.0,24.437927663734115,9.775171065493646,4.887585532746823,4.887585532746823,9.775171065493646,19.550342130987293
9.775171065493646,9.775171065493646,4.887585532746823,9.775171065493646,14.662756598240469,4.887585532746823,9.775171065493646
0.0,9.775171065493646,4.887585532746823,4.887585532746823,14.662756598240469,24.437927663734115,4.887585532746823
4.887585532746823,4.887585532746823,4.887585532746823,4.887585532746823,9.775171065493646,87.97653958944282,9.775171065493646
4.887585532746823,9.775171065493646,9.775171065493646,34.21309872922776,9.775171065493646,53.763440860215056,9.775171065493646
4.887585532746823,4.887585532746823,4.887585532746823,24.437927663734115,9.775171065493646,24.437927663734115,0.0
0.0,4.887585532746823,4.887585532746823,19.550342130987293,48.87585532746823,19.550342130987293,4.887585532746823
0.0,19.550342130987293,9.775171065493646,4.887585532746823,34.21309872922776,131.96480938416423,9.775171065493646
0.0,0.0,24.437927663734115,14.662756598240469,48.87585532746823,107.52688172043011,9.775171065493646
4.887585532746823,4.887585532746823,14.662756598240469,63.53861192570871,43.98826979472141,43.98826979472141,0.0
29.325513196480937,9.775171065493646,14.662756598240469,58.651026392961874,14.662756598240469,43.98826979472141,4.887585532746823
19.550342130987293,4.887585532746823,4.887585532746823,24.437927663734115,14.662756598240469,24.437927663734115,9.775171065493646
14.662756598240469,9.775171065493646,9.775171065493646,14.662756598240469,4.887585532746823,9.775171065493646,9.775171065493646
4.887585532746823,0.0,14.662756598240469,9.775171065493646,0.0,19.550342130987293,19.550342130987293
4.887585532746823,9.775171065493646,4.887585532746823,9.775171065493646,9.775171065493646,0.0,9.775171065493646
4.887585532746823,9.775171065493646,9.775171065493646,0.0,9.775171065493646,0.0,0.0
0.0,4.887585532746823,4.887585532746823,9.775171065493646,14.662756598240469,4.887585532746823,0.0
9.775171065493646,4.887585532746823,0.0,4.887585532746823,4.887585532746823,4.887585532746823,0.0
4.887585532746823,9.775171065493646,4.887585532746823,9.775171065493646,4.887585532746823,9.775171065493646,9.775171065493646
4.887585532746823,14.662756598240469,0.0,4.887585532746823,24.437927663734115,9.775171065493646,4.887585532746823
0.0,4.887585532746823,0.0,0.0,14.662756598240469,4.887585532746823,0.0
4.887585532746823,0.0,4.887585532746823,0.0,92.86412512218965,4.887585532746823,4.887585532746823
4.887585532746823,0.0,9.775171065493646,4.887585532746823,117.30205278592375,4.887585532746823,0.0
4.887585532746823,0.0,19.550342130987293,19.550342130987293,53.763440860215056,0.0,9.775171065493646
4.887585532746823,14.662756598240469,9.775171065493646,4.887585532746823,29.325513196480937,4.887585532746823,0.0
4.887585532746823,53.763440860215056,4.887585532746823,9.775171065493646,24.437927663734115,0.0,0.0
0.0,53.763440860215056,9.775171065493646,0.0,14.662756598240469,9.775171065493646,4.887585532746823
0.0,107.52688172043011,4.887585532746823,4.887585532746823,19.550342130987293,0.0,9.775171065493646
4.887585532746823,122.18963831867057,4.887585532746823,9.775171065493646,24.437927663734115,4.887585532746823,0.0
9.775171065493646,83.08895405669598,9.775171065493646,4.887585532746823,9.775171065493646,0.0,4.887585532746823
0.0,43.98826979472141,39.100684261974585,4.887585532746823,9.775171065493646,9.775171065493646,9.775171065493646
0.0,19.550342130987293,29.325513196480937,4.887585532746823,4.887585532746823,9.775171065493646,4.887585532746823
4.887585532746823,4.887585532746823,24.437927663734115,14.662756598240469,0.0,4.887585532746823,4.887585532746823
4.887585532746823,19.550342130987293,9.775171065493646,9.775171065493646,43.98826979472141,19.550342130987293,4.887585532746823
0.0,4.887585532746823,9.775171065493646,4.887585532746823,39.100684261974585,9.775171065493646,4.887585532746823
9.775171065493646,4.887585532746823,9.775171065493646,9.775171065493646,14.662756598240469,4.887585532746823,9.775171065493646
4.887585532746823,4.887585532746823,4.887585532746823,9.775171065493646,4.887585532746823,4.887585532746823,4.887585532746823
0.0,4.887585532746823,14.662756598240469,4.887585532746823,48.87585532746823,14.662756598240469,19.550342130987293
9.775171065493646,141.73998044965788,4.887585532746823,9.775171065493646,14.662756598240469,9.775171065493646,4.887585532746823
0.0,19.550342130987293,14.662756598240469,4.887585532746823,14.662756598240469,24.437927663734115,0.0
4.887585532746823,34.21309872922776,9.775171065493646,48.87585532746823,4.887585532746823,4.887585532746823,9.775171065493646
4.887585532746823,161.29032258064515,0.0,19.550342130987293,29.325513196480937,4.887585532746823,4.887585532746823
24.437927663734115,19.550342130987293,0.0,4.887585532746823,19.550342130987293,4.887585532746823,0.0
4.887585532746823,9.775171065493646,0.0,34.21309872922776,4.887585532746823,9.775171065493646,0.0
4.887585532746823,43.98826979472141,4.887585532746823,29.325513196480937,0.0,9.775171065493646,4.887585532746823
4.887585532746823,34.21309872922776,0.0,92.86412512218965,4.887585532746823,4.887585532746823,4.887585532746823
4.887585532746823,14.662756598240469,68.42619745845552,9.775171065493646,4.887585532746823,4.887585532746823,4.887585532746823
9.775171065493646,4.887585532746823,9.775171065493646,0.0,73.31378299120234,4.887585532746823,4.887585532746823
29.325513196480937,4.887585532746823,0.0,9.775171065493646,4.887585532746823,19.550342130987293,9.775171065493646
9.775171065493646,4.887585532746823,9.775171065493646,4.887585532746823,9.775171065493646,9.775171065493646,4.887585532746823
4.887585532746823,9.775171065493646,0.0,14.662756598240469,19.550342130987293,0.0,4.887585532746823
0.0,9.775171065493646,0.0,117.30205278592375,39.100684261974585,4.887585532746823,9.775171065493646
9.775171065493646,9.775171065493646,4.887585532746823,9.775171065493646,14.662756598240469,4.887585532746823,9.775171065493646
4.887585532746823,0.0,9.775171065493646,4.887585532746823,24.437927663734115,0.0,4.887585532746823
4.887585532746823,4.887585532746823,0.0,29.325513196480937,4.887585532746823,0.0,14.662756598240469
0.0,14.662756598240469,0.0,29.325513196480937,4.887585532746823,9.775171065493646,4.887585532746823
0.0,9.775171065493646,4.887585532746823,14.662756598240469,4.887585532746823,0.0,4.887585532746823
4.887585532746823,9.775171065493646,0.0,19.550342130987293,102.63929618768329,0.0,4.887585532746823
4.887585532746823,39.100684261974585,39.100684261974585,4.887585532746823,14.662756598240469,9.775171065493646,4.887585532746823
4.887585532746823,4.887585532746823,4.887585532746823,53.763440860215056,87.97653958944282,9.775171065493646,0.0
4.887585532746823,0.0,4.887585532746823,4.887585532746823,146.6275659824047,4.887585532746823,0.0
4.887585532746823,19.550342130987293,4.887585532746823,24.437927663734115,29.325513196480937,4.887585532746823,9.775171065493646
9.775171065493646,19.550342130987293,63.53861192570871,19.550342130987293,102.63929618768329,0.0,4.887585532746823
39.100684261974585,14.662756598240469,4.887585532746823,4.887585532746823,24.437927663734115,4.887585532746823,4.887585532746823
14.662756598240469,4.887585532746823,0.0,4.887585532746823,14.662756598240469,9.775171065493646,9.775171065493646
19.550342130987293,19.550342130987293,4.887585532746823,0.0,9.775171065493646,4.887585532746823,0.0
4.887585532746823,9.775171065493646,14.662756598240469,9.775171065493646,0.0,0.0,4.887585532746823
4.887585532746823,0.0,9.775171065493646,4.887585532746823,19.550342130987293,9.775171065493646,4.887585532746823
9.775171065493646,9.775171065493646,19.550342130987293,9.775171065493646,48.87585532746823,9.775171065493646,4.887585532746823
19.550342130987293,4.887585532746823,0.0,0.0,19.550342130987293,4.887585532746823,4.887585532746823
9.775171065493646,131.96480938416423,4.887585532746823,4.887585532746823,48.87585532746823,4.887585532746823,0.0
9.775171065493646,29.325513196480937,34.21309872922776,9.775171065493646,4.887585532746823,4.887585532746823,0.0
4.887585532746823,4.887585532746823,4.887585532746823,9.775171065493646,48.87585532746823,0.0,4.887585532746823
0.0,19.550342130987293,9.775171065493646,34.21309872922776,4.887585532746823,9.775171065493646,4.887585532746823
4.887585532746823,9.775171065493646,4.887585532746823,9.775171065493646,4.887585532746823,0.0,0.0
4.887585532746823,0.0,9.775171065493646,9.775171065493646,9.775171065493646,0.0,14.662756598240469
0.0,4.887585532746823,9.775171065493646,53.763440860215056,19.550342130987293,14.662756598240469,9.775171065493646
4.887585532746823,9.775171065493646,4.887585532746823,29.325513196480937,39.100684261974585,0.0,9.775171065493646
39.100684261974585,87.97653958944282,14.662756598240469,19.550342130987293,9.775171065493646,4.887585532746823,9.775171065493646
9.775171065493646,9.775171065493646,4.887585532746823,4.887585532746823,9.775171065493646,0.0,4.887585532746823
0.0,14.662756598240469,0.0,87.97653958944282,9.775171065493646,0.0,9.775171065493646
4.887585532746823,9.775171065493646,9.775171065493646,24.437927663734115,0.0,0.0,4.887585532746823
9.775171065493646,53.763440860215056,9.775171065493646,14.662756598240469,0.0,9.775171065493646,0.0
14.662756598240469,43.98826979472141,0.0,0.0,4.887585532746823,0.0,4.887585532746823
4.887585532746823,9.775171065493646,4.887585532746823,19.550342130987293,19.550342130987293,4.887585532746823,4.887585532746823
9.775171065493646,9.775171065493646,4.887585532746823,29.325513196480937,87.97653958944282,9.775171065493646,9.775171065493646
0.0,9.775171065493646,4.887585532746823,14.662756598240469,9.775171065493646,19.550342130987293,0.0
9.775171065493646,9.775171065493646,9.775171065493646,4.887585532746823,14.662756598240469,4.887585532746823,9.775171065493646
0.0,24.437927663734115,0.0,9.775171065493646,53.763440860215056,4.887585532746823,4.887585532746823
4.887585532746823,161.29032258064515,4.887585532746823,9.775171065493646,29.325513196480937,78.20136852394917,9.775171065493646
9.775171065493646,29.325513196480937,4.887585532746823,0.0,48.87585532746823,4.887585532746823,9.775171065493646
4.887585532746823,4.887585532746823,4.887585532746823,9.775171065493646,4.887585532746823,4.887585532746823,4.887585532746823
9.775171065493646,48.87585532746823,0.0,0.0,9.775171065493646,0.0,9.775171065493646
9.775171065493646,92.86412512218965,4.887585532746823,0.0,200.39100684261973,24.437927663734115,4.887585532746823
9.775171065493646,9.775171065493646,0.0,19.550342130987293,48.87585532746823,14.662756598240469,4.887585532746823
14.662756598240469,4.887585532746823,0.0,9.775171065493646,24.437927663734115,9.775171065493646,0.0
4.887585532746823,53.763440860215056,19.550342130987293,9.775171065493646,4.887585532746823,4.887585532746823,9.775171065493646
0.0,43.98826979472141,24.437927663734115,87.97653958944282,43.98826979472141,9.775171065493646,14.662756598240469
4.887585532746823,14.662756598240469,0.0,19.550342130987293,9.775171065493646,4.887585532746823,4.887585532746823
0.0,0.0,4.887585532746823,9.775171065493646,63.53861192570871,4.887585532746823,4.887585532746823
4.887585532746823,9.775171065493646,4.887585532746823,4.887585532746823,58.651026392961874,9.775171065493646,4.887585532746823
4.887585532746823,9.775171065493646,9.775171065493646,9.775171065493646,9.775171065493646,4.887585532746823,0.0
0.0,39.100684261974585,4.887585532746823,14.662756598240469,0.0,9.775171065493646,0.0
4.887585532746823,24.437927663734115,4.887585532746823,48.87585532746823,4.887585532746823,9.775171065493646,0.0
0.0,4.887585532746823,19.550342130987293,4.887585532746823,0.0,0.0,0.0
4.887585532746823,4.887585532746823,9.775171065493646,4.887585532746823,9.775171065493646,9.775171065493646,9.775171065493646
9.775171065493646,4.887585532746823,0.0,4.887585532746823,9.775171065493646,48.87585532746823,24.437927663734115
39.100684261974585,4.887585532746823,0.0,0.0,34.21309872922776,9.775171065493646,0.0
14.662756598240469,92.86412512218965,9.775171065493646,63.53861192570871,9.775171065493646,0.0,4.887585532746823
4.887585532746823,34.21309872922776,9.775171065493646,4.887585532746823,29.325513196480937,0.0,4.887585532746823
48.87585532746823,39.100684261974585,0.0,39.100684261974585,9.775171065493646,29.325513196480937,0.0
4.887585532746823,24.437927663734115,4.887585532746823,19.550342130987293,14.662756598240469,9.775171065493646,4.887585532746823
0.0,29.325513196480937,4.887585532746823,63.53861192570871,19.550342130987293,0.0,0.0
9.775171065493646,9.775171065493646,0.0,19.550342130987293,9.775171065493646,0.0,0.0
4.887585532746823,87.97653958944282,0.0,9.775171065493646,9.775171065493646,9.775171065493646,0.0
9.775171065493646,14.662756598240469,9.775171065493646,0.0,24.437927663734115,4.887585532746823,14.662756598240469
4.887585532746823,4.887585532746823,0.0,34.21309872922776,34.21309872922776,4.887585532746823,9.775171065493646
4.887585532746823,0.0,29.325513196480937,9.775171065493646,19.550342130987293,4.887585532746823,9.775171065493646
4.887585532746823,4.887585532746823,63.53861192570871,4.887585532746823,0.0,4.887585532746823,9.775171065493646
4.887585532746823,19.550342130987293,4.887585532746823,9.775171065493646,4.887585532746823,4.887585532746823,0.0
14.662756598240469,9.775171065493646,0.0,4.887585532746823,0.0,0.0,0.0
9.775171065493646,4.887585532746823,4.887585532746823,4.887585532746823,4.887585532746823,4.887585532746823,4.887585532746823
0.0,0.0,9.775171065493646,0.0,29.325513196480937,9.775171065493646,24.437927663734115
4.887585532746823,0.0,14.662756598240469,4.887585532746823,29.325513196480937,4.887585532746823,9.775171065493646
0.0,4.887585532746823,4.887585532746823,0.0,14.662756598240469,4.887585532746823,4.887585532746823
4.887585532746823,34.21309872922776,4.887585532746823,4.887585532746823,141.73998044965788,9.775171065493646,4.887585532746823
0.0,4.887585532746823,4.887585532746823,4.887585532746823,9.775171065493646,4.887585532746823,9.775171065493646
0.0,0.0,4.887585532746823,9.775171065493646,9.775171065493646,9.775171065493646,0.0
4.887585532746823,9.775171065493646,14.662756598240469,34.21309872922776,9.775171065493646,14.662756598240469,9.775171065493646
4.887585532746823,4.887585532746823,14.662756598240469,19.550342130987293,29.325513196480937,4.887585532746823,4.887585532746823
4.887585532746823,4.887585532746823,9.775171065493646,9.775171065493646,4.887585532746823,4.887585532746823,0.0
4.887585532746823,39.100684261974585,4.887585532746823,14.662756598240469,19.550342130987293,0.0,0.0
9.775171065493646,14.662756598240469,4.887585532746823,9.775171065493646,19.550342130987293,4.887585532746823,0.0
4.887585532746823,14.662756598240469,0.0,19.550342130987293,43.98826979472141,58.651026392961874,4.887585532746823
0.0,24.437927663734115,4.887585532746823,9.775171065493646,24.437927663734115,4.887585532746823,4.887585532746823
4.887585532746823,29.325513196480937,4.887585532746823,14.662756598240469,29.325513196480937,4.887585532746823,4.887585532746823
4.887585532746823,4.887585532746823,9.775171065493646,14.662756598240469,4.887585532746823,68.42619745845552,0.0
4.887585532746823,4.887585532746823,19.550342130987293,4.887585532746823,39.100684261974585,14.662756598240469,9.775171065493646
4.887585532746823,141.73998044965788,19.550342130987293,9.775171065493646,4.887585532746823,4.887585532746823,4.887585532746823
4.887585532746823,14.662756598240469,0.0,4.887585532746823,24.437927663734115,0.0,4.887585532746823
0.0,9.775171065493646,9.775171065493646,4.887585532746823,9.775171065493646,4.887585532746823,4.887585532746823
4.887585532746823,9.775171065493646,34.21309872922776,14.662756598240469,14.662756598240469,9.775171065493646,0.0
0.0,24.437927663734115,9.775171065493646,9.775171065493646,4.887585532746823,4.887585532746823,9.775171065493646
4.887585532746823,0.0,4.887585532746823,48.87585532746823,4.887585532746823,4.887585532746823,0.0
4.887585532746823,53.763440860215056,4.887585532746823,29.325513196480937,4.887585532746823,9.775171065493646,0.0
9.775171065493646,73.31378299120234,78.20136852394917,19.550342130987293,19.550342130987293,9.775171065493646,4.887585532746823
0.0,4.887585532746823,14.662756598240469,19.550342130987293,63.53861192570871,4.887585532746823,9.775171065493646
4.887585532746823,4.887585532746823,4.887585532746823,19.550342130987293,34.21309872922776,4.887585532746823,9.775171065493646
19.550342130987293,4.887585532746823,0.0,24.437927663734115,9.775171065493646,0.0,9.775171065493646
0.0,0.0,43.98826979472141,43.98826979472141,4.887585532746823,4.887585532746823,4.887585532746823
0.0,112.41446725317694,14.662756598240469,9.775171065493646,29.325513196480937,43.98826979472141,0.0
4.887585532746823,19.550342130987293,9.775171065493646,4.887585532746823,4.887585532746823,4.887585532746823,0.0
9.775171065493646,4.887585532746823,0.0,4.887585532746823,0.0,4.887585532746823,0.0
4.887585532746823,0.0,9.775171065493646,0.0,43.98826979472141,9.775171065493646,9.775171065493646
0.0,9.775171065493646,4.887585532746823,19.550342130987293,9.775171065493646,0.0,4.887585532746823
9.775171065493646,73.31378299120234,4.887585532746823,9.775171065493646,4.887585532746823,4.887585532746823,9.775171065493646
4.887585532746823,43.98826979472141,4.887585532746823,0.0,39.100684261974585,19.550342130987293,4.887585532746823
4.887585532746823,9.775171065493646,4.887585532746823,0.0,29.325513196480937,9.775171065493646,4.887585532746823
0.0,4.887585532746823,39.100684261974585,4.887585532746823,4.887585532746823,9.775171065493646,9.775171065493646
9.775171065493646,24.437927663734115,9.775171065493646,0.0,39.100684261974585,4.887585532746823,4.887585532746823
4.887585532746823,34.21309872922776,9.775171065493646,14.662756598240469,48.87585532746823,4.887585532746823,9.775171065493646
0.0,0.0,4.887585532746823,4.887585532746823,4.887585532746823,53.763440860215056,9.775171065493646
0.0,0.0,29.325513196480937,0.0,0.0,9.775171065493646,0.0
4.887585532746823,9.775171065493646,14.662756598240469,0.0,14.662756598240469,0.0,4.887585532746823
9.775171065493646,4.887585532746823,4.887585532746823,0.0,0.0,4.887585532746823,9.775171065493646
0.0,9.775171065493646,0.0,4.887585532746823,24.437927663734115,0.0,4.887585532746823
0.0,48.87585532746823,4.887585532746823,0.0,9.775171065493646,4.887585532746823,4.887585532746823
4.887585532746823,4.887585532746823,4.887585532746823,9.775171065493646,9.775171065493646,4.887585532746823,0.0
4.887585532746823,14.662756598240469,4.887585532746823,9.775171065493646,24.437927663734115,0.0,4.887585532746823
4.887585532746823,4.887585532746823,4.887585532746823,0.0,9.775171065493646,14.662756598240469,19.550342130987293
4.887585532746823,4.887585532746823,19.550342130987293,19.550342130987293,14.662756598240469,4.887585532746823,4.887585532746823
4.887585532746823,9.775171065493646,0.0,9.775171065493646,0.0,24.437927663734115,9.775171065493646
0.0,9.775171065493646,9.775171065493646,4.887585532746823,0.0,4.887585532746823,0.0
9.775171065493646,4.887585532746823,9.775171065493646,4.887585532746823,19.550342130987293,4.887585532746823,4.887585532746823
0.0,24.437927663734115,14.662756598240469,9.775171065493646,24.437927663734115,39.100684261974585,9.775171065493646
4.887585532746823,73.31378299120234,4.887585532746823,19.550342130987293,29.325513196480937,19.550342130987293,4.887585532746823
0.0,14.662756598240469,0.0,4.887585532746823,9.775171065493646,9.775171065493646,9.775171065493646
0.0,131.96480938416423,9.775171065493646,14.662756598240469,9.775171065493646,0.0,4.887585532746823
0.0,39.100684261974585,29.325513196480937,4.887585532746823,43.98826979472141,9.775171065493646,9.775171065493646
0.0,9.775171065493646,14.662756598240469,4.887585532746823,9.775171065493646,4.887585532746823,4.887585532746823
4.887585532746823,9.775171065493646,14.662756598240469,63.53861192570871,9.775171065493646,4.887585532746823,0.0
9.775171065493646,0.0,34.21309872922776,19.550342130987293,4.887585532746823,9.775171065493646,4.887585532746823
4.887585532746823,9.775171065493646,14.662756598240469,0.0,68.42619745845552,14.662756598240469,4.887585532746823
4.887585532746823,53.763440860215056,4.887585532746823,24.437927663734115,29.325513196480937,14.662756598240469,4.887585532746823
9.775171065493646,14.662756598240469,24.437927663734115,58.651026392961874,4.887585532746823,4.887585532746823,0.0
0.0,53.763440860215056,34.21309872922776,4.887585532746823,4.887585532746823,0.0,4.887585532746823
9.775171065493646,0.0,4.887585532746823,9.775171065493646,48.87585532746823,4.887585532746823,4.887585532746823
4.887585532746823,4.887585532746823,0.0,9.775171065493646,117.30205278592375,4.887585532746823,9.775171065493646
4.887585532746823,9.775171065493646,4.887585532746823,4.887585532746823,48.87585532746823,0.0,14.662756598240469
14.662756598240469,29.325513196480937,19.550342130987293,9.775171065493646,9.775171065493646,9.775171065493646,4.887585532746823
4.887585532746823,4.887585532746823,9.775171065493646,0.0,63.53861192570871,9.775171065493646,9.775171065493646
4.887585532746823,9.775171065493646,4.887585532746823,4.887585532746823,14.662756598240469,4.887585532746823,0.0
9.775171065493646,9.775171065493646,9.775171065493646,4.887585532746823,4.887585532746823,9.775171065493646,9.775171065493646
0.0,14.662756598240469,4.887585532746823,4.887585532746823,29.325513196480937,9.775171065493646,4.887585532746823
0.0,9.775171065493646,0.0,4.887585532746823,39.100684261974585,4.887585532746823,0.0
4.887585532746823,9.775171065493646,9.775171065493646,9.775171065493646,4.887585532746823,39.100684261974585,14.662756598240469
4.887585532746823,0.0,4.887585532746823,14.662756598240469,4.887585532746823,9.775171065493646,4.887585532746823
0.0,9.775171065493646,14.662756598240469,4.887585532746823,34.21309872922776,0.0,4.887585532746823
4.887585532746823,29.325513196480937,43.98826979472141,9.775171065493646,9.775171065493646,4.887585532746823,4.887585532746823
0.0,9.775171065493646,4.887585532746823,9.775171065493646,24.437927663734115,9.775171065493646,0.0
9.775171065493646,9.775171065493646,9.775171065493646,0.0,4.887585532746823,9.775171065493646,14.662756598240469
19.550342130987293,0.0,4.887585532746823,19.550342130987293,19.550342130987293,4.887585532746823,9.775171065493646
4.887585532746823,39.100684261974585,0.0,9.775171065493646,0.0,0.0,0.0
4.887585532746823,24.437927663734115,4.887585532746823,4.887585532746823,4.887585532746823,4.887585532746823,9.775171065493646
4.887585532746823,43.98826979472141,0.0,19.550342130987293,9.775171065493646,4.887585532746823,9.775171065493646
0.0,4.887585532746823,9.775171065493646,14.662756598240469,4.887585532746823,4.887585532746823,4.887585532746823
0.0,19.550342130987293,48.87585532746823,14.662756598240469,9.775171065493646,29.325513196480937,4.887585532746823
9.775171065493646,29.325513196480937,19.550342130987293,24.437927663734115,0.0,19.550342130987293,0.0
4.887585532746823,53.763440860215056,4.887585532746823,4.887585532746823,29.325513196480937,4.887585532746823,4.887585532746823
0.0,4.887585532746823,0.0,9.775171065493646,9.775171065493646,4.887585532746823,4.887585532746823
9.775171065493646,4.887585532746823,14.662756598240469,9.775171065493646,14.662756598240469,9.775171065493646,9.775171065493646
9.775171065493646,9.775171065493646,19.550342130987293,14.662756598240469,19.550342130987293,9.775171065493646,0.0
14.662756598240469,4.887585532746823,9.775171065493646,39.100684261974585,9.775171065493646,4.887585532746823,4.887585532746823
19.550342130987293,4.887585532746823,34.21309872922776,4.887585532746823,14.662756598240469,0.0,4.887585532746823
4.887585532746823,43.98826979472141,4.887585532746823,9.775171065493646,58.651026392961874,9.775171065493646,4.887585532746823
4.887585532746823,43.98826979472141,9.775171065493646,39.100684261974585,9.775171065493646,4.887585532746823,0.0
4.887585532746823,9.775171065493646,0.0,4.887585532746823,24.437927663734115,14.662756598240469,4.887585532746823
4.887585532746823,0.0,4.887585532746823,9.775171065493646,14.662756598240469,4.887585532746823,9.775171065493646
9.775171065493646,29.325513196480937,0.0,9.775171065493646,53.763440860215056,4.887585532746823,14.662756598240469
4.887585532746823,19.550342130987293,4.887585532746823,4.887585532746823,19.550342130987293,9.775171065493646,4.887585532746823
0.0,9.775171065493646,4.887585532746823,39.100684261974585,58.651026392961874,4.887585532746823,4.887585532746823
4.887585532746823,9.775171065493646,9.775171065493646,4.887585532746823,83.08895405669598,9.775171065493646,9.775171065493646
4.887585532746823,19.550342130987293,9.775171065493646,0.0,24.437927663734115,0.0,4.887585532746823
0.0,4.887585532746823,9.775171065493646,4.887585532746823,4.887585532746823,9.775171065493646,0.0
4.887585532746823,0.0,14.662756598240469,0.0,0.0,9.775171065493646,0.0
0.0,4.887585532746823,4.887585532746823,9.775171065493646,14.662756598240469,4.887585532746823,9.775171065493646
9.775171065493646,0.0,4.887585532746823,4.887585532746823,53.763440860215056,0.0,9.775171065493646
9.775171065493646,14.662756598240469,43.98826979472141,29.325513196480937,4.887585532746823,0.0,4.887585532746823
0.0,4.887585532746823,29.325513196480937,14.662756598240469,14.662756598240469,9.775171065493646,19.550342130987293
4.887585532746823,9.775171065493646,9.775171065493646,9.775171065493646,43.98826979472141,4.887585532746823,19.550342130987293
4.887585532746823,9.775171065493646,9.775171065493646,4.887585532746823,29.325513196480937,9.775171065493646,4.887585532746823
0.0,19.550342130987293,9.775171065493646,0.0,29.325513196480937,9.775171065493646,0.0
4.887585532746823,14.662756598240469,4.887585532746823,9.775171065493646,34.21309872922776,14.662756598240469,9.775171065493646
4.887585532746823,19.550342130987293,4.887585532746823,9.775171065493646,19.550342130987293,4.887585532746823,24.437927663734115
9.775171065493646,9.775171065493646,4.887585532746823,9.775171065493646,4.887585532746823,0.0,4.887585532746823
4.887585532746823,9.775171065493646,9.775171065493646,9.775171065493646,14.662756598240469,4.887585532746823,4.887585532746823
4.887585532746823,4.887585532746823,4.887585532746823,4.887585532746823,4.887585532746823,4.887585532746823,4.887585532746823
4.887585532746823,9.775171065493646,4.887585532746823,0.0,83.08895405669598,14.662756598240469,4.887585532746823
4.887585532746823,0.0,9.775171065493646,9.775171065493646,39.100684261974585,14.662756598240469,4.887585532746823
29.325513196480937,9.775171065493646,0.0,4.887585532746823,4.887585532746823,4.887585532746823,4.887585532746823
4.887585532746823,4.887585532746823,4.887585532746823,4.887585532746823,0.0,0.0,0.0
9.775171065493646,14.662756598240469,0.0,19.550342130987293,9.775171065493646,4.887585532746823,4.887585532746823
4.887585532746823,9.775171065493646,9.775171065493646,9.775171065493646,19.550342130987293,4.887585532746823,4.887585532746823
0.0,4.887585532746823,39.100684261974585,9.775171065493646,4.887585532746823,4.887585532746823,4.887585532746823
29.325513196480937,9.775171065493646,9.775171065493646,24.437927663734115,29.325513196480937,9.775171065493646,0.0
9.775171065493646,19.550342130987293,0.0,9.775171065493646,9.775171065493646,9.775171065493646,4.887585532746823
14.662756598240469,4.887585532746823,9.775171065493646,14.662756598240469,19.550342130987293,9.775171065493646,0.0
4.887585532746823,48.87585532746823,4.887585532746823,9.775171065493646,9.775171065493646,0.0,9.775171065493646
4.887585532746823,83.08895405669598,0.0,0.0,0.0,4.887585532746823,9.775171065493646
9.775171065493646,9.775171065493646,24.437927663734115,9.775171065493646,9.775171065493646,0.0,9.775171065493646
19.550342130987293,0.0,4.887585532746823,9.775171065493646,43.98826979472141,0.0,4.887585532746823
9.775171065493646,0.0,0.0,4.887585532746823,78.20136852394917,4.887585532746823,4.887585532746823
9.775171065493646,24.437927663734115,9.775171065493646,4.887585532746823,14.662756598240469,4.887585532746823,4.887585532746823
9.775171065493646,58.651026392961874,4.887585532746823,9.775171065493646,4.887585532746823,4.887585532746823,4.887585532746823
4.887585532746823,9.775171065493646,0.0,29.325513196480937,0.0,9.775171065493646,4.887585532746823
4.887585532746823,0.0,4.887585532746823,39.100684261974585,34.21309872922776,4.887585532746823,19.550342130987293
14.662756598240469,4.887585532746823,4.887585532746823,9.775171065493646,68.42619745845552,9.775171065493646,14.662756598240469
9.775171065493646,4.887585532746823,34.21309872922776,29.325513196480937,68.42619745845552,9.775171065493646,0.0
14.662756598240469,9.775171065493646,0.0,4.887585532746823,19.550342130987293,4.887585532746823,0.0
9.775171065493646,87.97653958944282,9.775171065493646,9.775171065493646,4.887585532746823,4.887585532746823,9.775171065493646
9.775171065493646,14.662756598240469,0.0,24.437927663734115,4.887585532746823,0.0,9.775171065493646
4.887585532746823,4.887585532746823,4.887585532746823,0.0,0.0,4.887585532746823,9.775171065493646
4.887585532746823,14.662756598240469,0.0,0.0,29.325513196480937,0.0,9.775171065493646
4.887585532746823,9.775171065493646,9.775171065493646,4.887585532746823,19.550342130987293,4.887585532746823,0.0
4.887585532746823,0.0,0.0,4.887585532746823,29.325513196480937,4.887585532746823,4.887585532746823
39.100684261974585,0.0,4.887585532746823,0.0,14.662756598240469,4.887585532746823,0.0
4.887585532746823,0.0,58.651026392961874,4.887585532746823,58.651026392961874,9.775171065493646,9.775171065493646
0.0,4.887585532746823,9.775171065493646,0.0,19.550342130987293,9.775171065493646,4.887585532746823
9.775171065493646,4.887585532746823,4.887585532746823,0.0,34.21309872922776,9.775171065493646,4.887585532746823
9.775171065493646,14.662756598240469,9.775171065493646,4.887585532746823,9.775171065493646,0.0,0.0
0.0,19.550342130987293,9.775171065493646,9.775171065493646,24.437927663734115,4.887585532746823,4.887585532746823
0.0,4.887585532746823,24.437927663734115,4.887585532746823,68.42619745845552,0.0,4.887585532746823
9.775171065493646,4.887585532746823,4.887585532746823,14.662756598240469,9.775171065493646,9.775171065493646,9.775171065493646
9.775171065493646,39.100684261974585,9.775171065493646,0.0,9.775171065493646,0.0,9.775171065493646
4.887585532746823,19.550342130987293,4.887585532746823,9.775171065493646,14.662756598240469,0.0,0.0
9.775171065493646,9.775171065493646,4.887585532746823,29.325513196480937,14.662756598240469,0.0,4.887585532746823
9.775171065493646,107.52688172043011,4.887585532746823,9.775171065493646,9.775171065493646,14.662756598240469,14.662756598240469
4.887585532746823,9.775171065493646,0.0,19.550342130987293,0.0,4.887585532746823,9.775171065493646
4.887585532746823,9.775171065493646,0.0,43.98826979472141,53.763440860215056,0.0,4.887585532746823
0.0,43.98826979472141,4.887585532746823,24.437927663734115,9.775171065493646,0.0,0.0
0.0,131.96480938416423,14.662756598240469,14.662756598240469,9.775171065493646,0.0,9.775171065493646
14.662756598240469,24.437927663734115,4.887585532746823,83.08895405669598,4.887585532746823,4.887585532746823,4.887585532746823
4.887585532746823,9.775171065493646,9.775171065493646,19.550342130987293,24.437927663734115,9.775171065493646,0.0
19.550342130987293,63.53861192570871,4.887585532746823,9.775171065493646,4.887585532746823,9.775171065493646,4.887585532746823
9.775171065493646,4.887585532746823,9.775171065493646,24.437927663734115,14.662756598240469,19.550342130987293,0.0
0.0,0.0,9.775171065493646,19.550342130987293,9.775171065493646,14.662756598240469,0.0
9.775171065493646,0.0,9.775171065493646,14.662756598240469,4.887585532746823,14.662756598240469,4.887585532746823
4.887585532746823,9.775171065493646,4.887585532746823,9.775171065493646,29.325513196480937,4.887585532746823,9.775171065493646
9.775171065493646,34.21309872922776,4.887585532746823,4.887585532746823,29.325513196480937,9.775171065493646,9.775171065493646
0.0,9.775171065493646,9.775171065493646,4.887585532746823,14.662756598240469,4.887585532746823,9.775171065493646
0.0,14.662756598240469,9.775171065493646,9.775171065493646,0.0,9.775171065493646,4.887585532746823
4.887585532746823,4.887585532746823,9.775171065493646,9.775171065493646,9.775171065493646,0.0,4.887585532746823
4.887585532746823,4.887585532746823,4.887585532746823,4.887585532746823,34.21309872922776,9.775171065493646,0.0
4.887585532746823,9.775171065493646,4.887585532746823,0.0,19.550342130987293,0.0,0.0
0.0,19.550342130987293,4.887585532746823,4.887585532746823,4.887585532746823,4.887585532746823,0.0
0.0,9.775171065493646,0.0,0.0,4.887585532746823,0.0,0.0
39.100684261974585,0.0,14.662756598240469,0.0,107.52688172043011,9.775171065493646,4.887585532746823
14.662756598240469,0.0,24.437927663734115,9.775171065493646,29.325513196480937,4.887585532746823,9.775171065493646
0.0,29.325513196480937,9.775171065493646,4.887585532746823,43.98826979472141,4.887585532746823,9.775171065493646
4.887585532746823,4.887585532746823,9.775171065493646,0.0,19.550342130987293,9.775171065493646,9.775171065493646
4.887585532746823,0.0,14.662756598240469,9.775171065493646,0.0,4.887585532746823,4.887585532746823
9.775171065493646,9.775171065493646,14.662756598240469,14.662756598240469,24.437927663734115,4.887585532746823,0.0
14.662756598240469,0.0,14.662756598240469,9.775171065493646,58.651026392961874,14.662756598240469,0.0
4.887585532746823,4.887585532746823,0.0,48.87585532746823,9.775171065493646,4.887585532746823,4.887585532746823
4.887585532746823,4.887585532746823,0.0,29.325513196480937,0.0,0.0,9.775171065493646
0.0,4.887585532746823,9.775171065493646,14.662756598240469,39.100684261974585,0.0,4.887585532746823
9.775171065493646,24.437927663734115,39.100684261974585,39.100684261974585,63.53861192570871,0.0,9.775171065493646
14.662756598240469,39.100684261974585,34.21309872922776,83.08895405669598,29.325513196480937,9.775171065493646,4.887585532746823
4.887585532746823,9.775171065493646,4.887585532746823,4.887585532746823,73.31378299120234,4.887585532746823,0.0
4.887585532746823,4.887585532746823,0.0,19.550342130987293,19.550342130987293,9.775171065493646,9.775171065493646
4.887585532746823,43.98826979472141,4.887585532746823,43.98826979472141,4.887585532746823,9.775171065493646,9.775171065493646
0.0,29.325513196480937,9.775171065493646,14.662756598240469,9.775171065493646,0.0,9.775171065493646
4.887585532746823,14.662756598240469,0.0,14.662756598240469,0.0,4.887585532746823,0.0
4.887585532746823,9.775171065493646,19.550342130987293,9.775171065493646,14.662756598240469,4.887585532746823,4.887585532746823
4.887585532746823,4.887585532746823,0.0,9.775171065493646,0.0,14.662756598240469,4.887585532746823
9.775171065493646,4.887585532746823,9.775171065493646,14.662756598240469,4.887585532746823,4.887585532746823,4.887585532746823
0.0,9.775171065493646,9.775171065493646,0.0,14.662756598240469,4.887585532746823,0.0
0.0,4.887585532746823,4.887585532746823,9.775171065493646,4.887585532746823,0.0,4.887585532746823
24.437927663734115,4.887585532746823,4.887585532746823,4.887585532746823,9.775171065493646,9.775171065493646,4.887585532746823
4.887585532746823,14.662756598240469,0.0,4.887585532746823,0.0,9.775171065493646,14.662756598240469
4.887585532746823,4.887585532746823,4.887585532746823,0.0,9.775171065493646,9.775171065493646,9.775171065493646
4.887585532746823,4.887585532746823,9.775171065493646,0.0,4.887585532746823,19.550342130987293,0.0
9.775171065493646,4.887585532746823,9.775171065493646,0.0,4.887585532746823,24.437927663734115,9.775171065493646
4.887585532746823,39.100684261974585,4.887585532746823,9.775171065493646,39.100684261974585,4.887585532746823,9.775171065493646
4.887585532746823,43.98826979472141,0.0,9.775171065493646,4.887585532746823,19.550342130987293,9.775171065493646
9.775171065493646,39.100684261974585,9.775171065493646,9.775171065493646,4.887585532746823,9.775171065493646,14.662756598240469
4.887585532746823,4.887585532746823,29.325513196480937,4.887585532746823,39.100684261974585,9.775171065493646,4.887585532746823
4.887585532746823,4.887585532746823,0.0,14.662756598240469,24.437927663734115,19.550342130987293,0.0
0.0,9.775171065493646,4.887585532746823,73.31378299120234,9.775171065493646,9.775171065493646,4.887585532746823
9.775171065493646,0.0,4.887585532746823,14.662756598240469,9.775171065493646,4.887585532746823,9.775171065493646
9.775171065493646,0.0,0.0,0.0,4.887585532746823,4.887585532746823,4.887585532746823
4.887585532746823,0.0,29.325513196480937,4.887585532746823,97.75171065493646,4.887585532746823,4.887585532746823
14.662756598240469,53.763440860215056,9.775171065493646,9.775171065493646,136.85239491691104,0.0,4.887585532746823
4.887585532746823,29.325513196480937,9.775171065493646,24.437927663734115,58.651026392961874,0.0,9.775171065493646
39.100684261974585,4.887585532746823,0.0,4.887585532746823,39.100684261974585,43.98826979472141,0.0
9.775171065493646,0.0,4.887585532746823,24.437927663734115,9.775171065493646,19.550342130987293,0.0
9.775171065493646,0.0,4.887585532746823,4.887585532746823,19.550342130987293,9.775171065493646,4.887585532746823
14.662756598240469,34.21309872922776,0.0,29.325513196480937,39.100684261974585,9.775171065493646,4.887585532746823
0.0,9.775171065493646,4.887585532746823,19.550342130987293,19.550342130987293,4.887585532746823,4.887585532746823
4.887585532746823,14.662756598240469,9.775171065493646,0.0,9.775171065493646,4.887585532746823,0.0
4.887585532746823,4.887585532746823,4.887585532746823,4.887585532746823,9.775171065493646,9.775171065493646,9.775171065493646
4.887585532746823,9.775171065493646,14.662756598240469,29.325513196480937,0.0,9.775171065493646,0.0
4.887585532746823,4.887585532746823,24.437927663734115,9.775171065493646,4.887585532746823,4.887585532746823,0.0
4.887585532746823,43.98826979472141,48.87585532746823,24.437927663734115,24.437927663734115,4.887585532746823,9.775171065493646
4.887585532746823,195.50342130987292,4.887585532746823,29.325513196480937,48.87585532746823,29.325513196480937,4.887585532746823
0.0,24.437927663734115,9.775171065493646,9.775171065493646,9.775171065493646,4.887585532746823,14.662756598240469
4.887585532746823,9.775171065493646,9.775171065493646,4.887585532746823,0.0,9.775171065493646,4.887585532746823
4.887585532746823,4.887585532746823,4.887585532746823,9.775171065493646,9.775171065493646,4.887585532746823,4.887585532746823
9.775171065493646,9.775171065493646,9.775171065493646,14.662756598240469,53.763440860215056,0.0,9.775171065493646
4.887585532746823,4.887585532746823,9.775171065493646,29.325513196480937,58.651026392961874,4.887585532746823,4.887585532746823
19.550342130987293,4.887585532746823,0.0,29.325513196480937,0.0,4.887585532746823,4.887585532746823
43.98826979472141,4.887585532746823,0.0,29.325513196480937,14.662756598240469,9.775171065493646,9.775171065493646
9.775171065493646,19.550342130987293,4.887585532746823,9.775171065493646,14.662756598240469,24.437927663734115,14.662756598240469
0.0,4.887585532746823,9.775171065493646,4.887585532746823,9.775171065493646,9.775171065493646,0.0
68.42619745845552,14.662756598240469,0.0,4.887585532746823,9.775171065493646,0.0,4.887585532746823
9.775171065493646,4.887585532746823,9.775171065493646,4.887585532746823,14.662756598240469,19.550342130987293,0.0
9.775171065493646,9.775171065493646,0.0,9.775171065493646,24.437927663734115,39.100684261974585,4.887585532746823
4.887585532746823,19.550342130987293,4.887585532746823,4.887585532746823,58.651026392961874,4.887585532746823,4.887585532746823
9.775171065493646,0.0,4.887585532746823,14.662756598240469,9.775171065493646,19.550342130987293,0.0
4.887585532746823,9.775171065493646,9.775171065493646,29.325513196480937,4.887585532746823,9.775171065493646,4.887585532746823
9.775171065493646,4.887585532746823,4.887585532746823,14.662756598240469,73.31378299120234,9.775171065493646,9.775171065493646
14.662756598240469,4.887585532746823,4.887585532746823,4.887585532746823,24.437927663734115,4.887585532746823,9.775171065493646
0.0,53.763440860215056,4.887585532746823,4.887585532746823,9.775171065493646,9.775171065493646,4.887585532746823
4.887585532746823,9.775171065493646,0.0,4.887585532746823,9.775171065493646,4.887585532746823,4.887585532746823
14.662756598240469,4.887585532746823,0.0,4.887585532746823,39.100684261974585,14.662756598240469,0.0
9.775171065493646,4.887585532746823,14.662756598240469,9.775171065493646,19.550342130987293,4.887585532746823,4.887585532746823
4.887585532746823,9.775171065493646,4.887585532746823,29.325513196480937,43.98826979472141,9.775171065493646,9.775171065493646
9.775171065493646,14.662756598240469,0.0,24.437927663734115,19.550342130987293,4.887585532746823,4.887585532746823
4.887585532746823,14.662756598240469,9.775171065493646,4.887585532746823,48.87585532746823,9.775171065493646,4.887585532746823
4.887585532746823,0.0,4.887585532746823,4.887585532746823,97.75171065493646,9.775171065493646,9.775171065493646
4.887585532746823,4.887585532746823,14.662756598240469,4.887585532746823,19.550342130987293,24.437927663734115,9.775171065493646
19.550342130987293,4.887585532746823,19.550342130987293,9.775171065493646,4.887585532746823,4.887585532746823,0.0
14.662756598240469,0.0,9.775171065493646,14.662756598240469,0.0,4.887585532746823,24.437927663734115
4.887585532746823,4.887585532746823,9.775171065493646,83.08895405669598,19.550342130987293,0.0,24.437927663734115
24.437927663734115,4.887585532746823,9.775171065493646,29.325513196480937,0.0,0.0,9.775171065493646
0.0,19.550342130987293,0.0,14.662756598240469,4.887585532746823,4.887585532746823,0.0
4.887585532746823,68.42619745845552,4.887585532746823,9.775171065493646,4.887585532746823,0.0,4.887585532746823
0.0,4.887585532746823,19.550342130987293,9.775171065493646,4.887585532746823,9.775171065493646,4.887585532746823
0.0,14.662756598240469,4.887585532746823,4.887585532746823,9.775171065493646,9.775171065493646,0.0
9.775171065493646,9.775171065493646,0.0,4.887585532746823,24.437927663734115,0.0,4.887585532746823
0.0,4.887585532746823,4.887585532746823,0.0,9.775171065493646,4.887585532746823,4.887585532746823
0.0,4.887585532746823,0.0,14.662756598240469,4.887585532746823,9.775171065493646,4.887585532746823
9.775171065493646,68.42619745845552,0.0,4.887585532746823,19.550342130987293,9.775171065493646,9.775171065493646
4.887585532746823,112.41446725317694,9.775171065493646,9.775171065493646,9.775171065493646,0.0,4.887585532746823
4.887585532746823,4.887585532746823,0.0,4.887585532746823,39.100684261974585,4.887585532746823,0.0
29.325513196480937,4.887585532746823,4.887585532746823,9.775171065493646,14.662756598240469,0.0,19.550342130987293
9.775171065493646,4.887585532746823,24.437927663734115,9.775171065493646,14.662756598240469,4.887585532746823,4.887585532746823
9.775171065493646,83.08895405669598,4.887585532746823,0.0,14.662756598240469,0.0,4.887585532746823
0.0,29.325513196480937,24.437927663734115,0.0,9.775171065493646,9.775171065493646,9.775171065493646
0.0,4.887585532746823,0.0,0.0,9.775171065493646,4.887585532746823,0.0
4.887585532746823,9.775171065493646,4.887585532746823,9.775171065493646,39.100684261974585,34.21309872922776,4.887585532746823
4.887585532746823,9.775171065493646,9.775171065493646,9.775171065493646,4.887585532746823,53.763440860215056,9.775171065493646
4.887585532746823,29.325513196480937,14.662756598240469,9.775171065493646,19.550342130987293,4.887585532746823,0.0
43.98826979472141,9.775171065493646,4.887585532746823,9.775171065493646,73.31378299120234,4.887585532746823,9.775171065493646
4.887585532746823,0.0,0.0,0.0,29.325513196480937,4.887585532746823,4.887585532746823
4.887585532746823,4.887585532746823,4.887585532746823,0.0,9.775171065493646,4.887585532746823,4.887585532746823
4.887585532746823,9.775171065493646,14.662756598240469,4.887585532746823,4.887585532746823,14.662756598240469,4.887585532746823
0.0,4.887585532746823,19.550342130987293,4.887585532746823,19.550342130987293,9.775171065493646,4.887585532746823
4.887585532746823,4.887585532746823,0.0,0.0,4.887585532746823,9.775171065493646,4.887585532746823
58.651026392961874,24.437927663734115,4.887585532746823,19.550342130987293,0.0,9.775171065493646,9.775171065493646
9.775171065493646,9.775171065493646,14.662756598240469,34.21309872922776,87.97653958944282,19.550342130987293,4.887585532746823
9.775171065493646,0.0,9.775171065493646,4.887585532746823,107.52688172043011,9.775171065493646,4.887585532746823
9.775171065493646,4.887585532746823,4.887585532746823,4.887585532746823,14.662756598240469,4.887585532746823,4.887585532746823
9.775171065493646,14.662756598240469,4.887585532746823,78.20136852394917,19.550342130987293,4.887585532746823,4.887585532746823
0.0,4.887585532746823,0.0,14.662756598240469,14.662756598240469,19.550342130987293,9.775171065493646
9.775171065493646,0.0,14.662756598240469,39.100684261974585,14.662756598240469,4.887585532746823,0.0
9.775171065493646,4.887585532746823,4.887585532746823,9.775171065493646,9.775171065493646,9.775171065493646,9.775171065493646
9.775171065493646,4.887585532746823,19.550342130987293,53.763440860215056,19.550342130987293,9.775171065493646,4.887585532746823
0.0,4.887585532746823,9.775171065493646,9.775171065493646,4.887585532746823,9.775171065493646,4.887585532746823
4.887585532746823,4.887585532746823,0.0,4.887585532746823,24.437927663734115,4.887585532746823,9.775171065493646
9.775171065493646,9.775171065493646,4.887585532746823,9.775171065493646,14.662756598240469,4.887585532746823,9.775171065493646
4.887585532746823,4.887585532746823,9.775171065493646,9.775171065493646,9.775171065493646,0.0,0.0
0.0,4.887585532746823,9.775171065493646,9.775171065493646,9.775171065493646,0.0,9.775171065493646
0.0,92.86412512218965,14.662756598240469,9.775171065493646,24.437927663734115,0.0,4.887585532746823
4.887585532746823,4.887585532746823,73.31378299120234,9.775171065493646,29.325513196480937,24.437927663734115,19.550342130987293
9.775171065493646,19.550342130987293,14.662756598240469,4.887585532746823,68.42619745845552,4.887585532746823,4.887585532746823
4.887585532746823,9.775171065493646,4.887585532746823,9.775171065493646,14.662756598240469,0.0,9.775171065493646
0.0,4.887585532746823,0.0,4.887585532746823,24.437927663734115,9.775171065493646,9.775171065493646
9.775171065493646,29.325513196480937,0.0,14.662756598240469,68.42619745845552,9.775171065493646,4.887585532746823
4.887585532746823,48.87585532746823,4.887585532746823,9.775171065493646,9.775171065493646,14.662756598240469,0.0
4.887585532746823,14.662756598240469,4.887585532746823,0.0,9.775171065493646,4.887585532746823,4.887585532746823
0.0,0.0,0.0,4.887585532746823,29.325513196480937,14.662756598240469,4.887585532746823
9.775171065493646,9.775171065493646,4.887585532746823,4.887585532746823,9.775171065493646,73.31378299120234,9.775171065493646
4.887585532746823,48.87585532746823,4.887585532746823,24.437927663734115,117.30205278592375,9.775171065493646,0.0
19.550342130987293,102.63929618768329,9.775171065493646,14.662756598240469,9.775171065493646,4.887585532746823,9.775171065493646
34.21309872922776,14.662756598240469,58.651026392961874,0.0,14.662756598240469,0.0,4.887585532746823
19.550342130987293,29.325513196480937,9.775171065493646,19.550342130987293,4.887585532746823,4.887585532746823,14.662756598240469
9.775171065493646,4.887585532746823,9.775171065493646,39.100684261974585,43.98826979472141,4.887585532746823,9.775171065493646
0.0,4.887585532746823,0.0,19.550342130987293,9.775171065493646,9.775171065493646,0.0
9.775171065493646,9.775171065493646,9.775171065493646,14.662756598240469,9.775171065493646,4.887585532746823,9.775171065493646
24.437927663734115,24.437927663734115,29.325513196480937,19.550342130987293,24.437927663734115,39.100684261974585,9.775171065493646
9.775171065493646,14.662756598240469,19.550342130987293,4.887585532746823,180.84066471163246,4.887585532746823,9.775171065493646
9.775171065493646,9.775171065493646,4.887585532746823,14.662756598240469,63.53861192570871,0.0,4.887585532746823
4.887585532746823,4.887585532746823,9.775171065493646,53.763440860215056,14.662756598240469,9.775171065493646,4.887585532746823
4.887585532746823,4.887585532746823,63.53861192570871,39.100684261974585,34.21309872922776,29.325513196480937,9.775171065493646
9.775171065493646,0.0,14.662756598240469,9.775171065493646,48.87585532746823,63.53861192570871,4.887585532746823
9.775171065493646,4.887585532746823,9.775171065493646,4.887585532746823,9.775171065493646,4.887585532746823,9.775171065493646
4.887585532746823,4.887585532746823,4.887585532746823,4.887585532746823,4.887585532746823,0.0,0.0
14.662756598240469,24.437927663734115,9.775171065493646,4.887585532746823,14.662756598240469,9.775171065493646,0.0
4.887585532746823,4.887585532746823,29.325513196480937,19.550342130987293,9.775171065493646,4.887585532746823,4.887585532746823
4.887585532746823,4.887585532746823,14.662756598240469,4.887585532746823,4.887585532746823,14.662756598240469,0.0
4.887585532746823,9.775171065493646,9.775171065493646,4.887585532746823,9.775171065493646,14.662756598240469,24.437927663734115
9.775171065493646,9.775171065493646,0.0,4.887585532746823,9.775171065493646,0.0,34.21309872922776
4.887585532746823,9.775171065493646,4.887585532746823,4.887585532746823,4.887585532746823,4.887585532746823,0.0
4.887585532746823,4.887585532746823,4.887585532746823,0.0,4.887585532746823,4.887585532746823,4.887585532746823
4.887585532746823,24.437927663734115,34.21309872922776,14.662756598240469,58.651026392961874,0.0,4.887585532746823
0.0,9.775171065493646,24.437927663734115,4.887585532746823,83.08895405669598,0.0,4.887585532746823
9.775171065493646,24.437927663734115,0.0,4.887585532746823,9.775171065493646,9.775171065493646,4.887585532746823
0.0,9.775171065493646,4.887585532746823,4.887585532746823,0.0,0.0,0.0
4.887585532746823,4.887585532746823,0.0,9.775171065493646,39.100684261974585,4.887585532746823,4.887585532746823
0.0,0.0,4.887585532746823,4.887585532746823,29.325513196480937,4.887585532746823,0.0
4.887585532746823,9.775171065493646,0.0,4.887585532746823,19.550342130987293,19.550342130987293,9.775171065493646
4.887585532746823,14.662756598240469,0.0,0.0,14.662756598240469,4.887585532746823,9.775171065493646
4.887585532746823,14.662756598240469,19.550342130987293,24.437927663734115,9.775171065493646,4.887585532746823,9.775171065493646
14.662756598240469,19.550342130987293,39.100684261974585,4.887585532746823,53.763440860215056,53.763440860215056,4.887585532746823
4.887585532746823,9.775171065493646,9.775171065493646,14.662756598240469,19.550342130987293,68.42619745845552,4.887585532746823
4.887585532746823,43.98826979472141,0.0,9.775171065493646,9.775171065493646,4.887585532746823,0.0
9.775171065493646,87.97653958944282,9.775171065493646,9.775171065493646,39.100684261974585,4.887585532746823,4.887585532746823
4.887585532746823,4.887585532746823,39.100684261974585,0.0,4.887585532746823,9.775171065493646,0.0
4.887585532746823,9.775171065493646,4.887585532746823,4.887585532746823,24.437927663734115,14.662756598240469,9.775171065493646
0.0,9.775171065493646,9.775171065493646,48.87585532746823,24.437927663734115,4.887585532746823,0.0
4.887585532746823,4.887585532746823,4.887585532746823,107.52688172043011,9.775171065493646,0.0,4.887585532746823
9.775171065493646,0.0,0.0,43.98826979472141,19.550342130987293,0.0,9.775171065493646
0.0,4.887585532746823,9.775171065493646,19.550342130987293,9.775171065493646,4.887585532746823,4.887585532746823
0.0,58.651026392961874,9.775171065493646,4.887585532746823,29.325513196480937,4.887585532746823,0.0
19.550342130987293,29.325513196480937,4.887585532746823,24.437927663734115,29.325513196480937,9.775171065493646,4.887585532746823
9.775171065493646,4.887585532746823,4.887585532746823,53.763440860215056,43.98826979472141,4.887585532746823,14.662756598240469
0.0,0.0,24.437927663734115,9.775171065493646,9.775171065493646,0.0,4.887585532746823
9.775171065493646,0.0,9.775171065493646,4.887585532746823,0.0,0.0,9.775171065493646
9.775171065493646,4.887585532746823,4.887585532746823,9.775171065493646,9.775171065493646,4.887585532746823,9.775171065493646
4.887585532746823,4.887585532746823,9.775171065493646,9.775171065493646,29.325513196480937,4.887585532746823,0.0
4.887585532746823,58.651026392961874,0.0,0.0,14.662756598240469,24.437927663734115,4.887585532746823
4.887585532746823,73.31378299120234,4.887585532746823,4.887585532746823,9.775171065493646,14.662756598240469,4.887585532746823
4.887585532746823,9.775171065493646,19.550342130987293,4.887585532746823,9.775171065493646,4.887585532746823,4.887585532746823
0.0,0.0,9.775171065493646,4.887585532746823,4.887585532746823,4.887585532746823,4.887585532746823
4.887585532746823,9.775171065493646,4.887585532746823,24.437927663734115,4.887585532746823,4.887585532746823,4.887585532746823
34.21309872922776,24.437927663734115,29.325513196480937,4.887585532746823,43.98826979472141,4.887585532746823,9.775171065493646
4.887585532746823,9.775171065493646,29.325513196480937,9.775171065493646,24.437927663734115,4.887585532746823,0.0
14.662756598240469,0.0,9.775171065493646,9.775171065493646,4.887585532746823,9.775171065493646,9.775171065493646
4.887585532746823,9.775171065493646,0.0,0.0,4.887585532746823,29.325513196480937,19.550342130987293
4.887585532746823,9.775171065493646,19.550342130987293,9.775171065493646,4.887585532746823,14.662756598240469,4.887585532746823
4.887585532746823,24.437927663734115,4.887585532746823,4.887585532746823,39.100684261974585,0.0,4.887585532746823
0.0,4.887585532746823,4.887585532746823,9.775171065493646,9.775171065493646,4.887585532746823,9.775171065493646
4.887585532746823,9.775171065493646,4.887585532746823,9.775171065493646,9.775171065493646,4.887585532746823,9.775171065493646
9.775171065493646,4.887585532746823,4.887585532746823,4.887585532746823,29.325513196480937,34.21309872922776,4.887585532746823
9.775171065493646,4.887585532746823,0.0,4.887585532746823,34.21309872922776,29.325513196480937,19.550342130987293
0.0,83.08895405669598,4.887585532746823,4.887585532746823,24.437927663734115,43.98826979472141,9.775171065493646
0.0,34.21309872922776,48.87585532746823,34.21309872922776,9.775171065493646,14.662756598240469,4.887585532746823
4.887585532746823,4.887585532746823,9.775171065493646,4.887585532746823,24.437927663734115,53.763440860215056,4.887585532746823
9.775171065493646,43.98826979472141,0.0,24.437927663734115,9.775171065493646,4.887585532746823,9.775171065493646
9.775171065493646,14.662756598240469,4.887585532746823,53.763440860215056,63.53861192570871,0.0,14.662756598240469
14.662756598240469,9.775171065493646,4.887585532746823,29.325513196480937,4.887585532746823,4.887585532746823,0.0
0.0,29.325513196480937,0.0,14.662756598240469,0.0,0.0,4.887585532746823
4.887585532746823,0.0,0.0,9.775171065493646,4.887585532746823,4.887585532746823,0.0
4.887585532746823,9.775171065493646,39.100684261974585,24.437927663734115,97.75171065493646,4.887585532746823,0.0
4.887585532746823,58.651026392961874,19.550342130987293,4.887585532746823,9.775171065493646,0.0,9.775171065493646
9.775171065493646,24.437927663734115,4.887585532746823,0.0,9.775171065493646,9.775171065493646,4.887585532746823
9.775171065493646,9.775171065493646,0.0,9.775171065493646,14.662756598240469,4.887585532746823,9.775171065493646
0.0,4.887585532746823,4.887585532746823,43.98826979472141,48.87585532746823,4.887585532746823,9.775171065493646
0.0,0.0,0.0,14.662756598240469,87.97653958944282,0.0,4.887585532746823
4.887585532746823,9.775171065493646,14.662756598240469,0.0,9.775171065493646,0.0,0.0
4.887585532746823,9.775171065493646,63.53861192570871,19.550342130987293,53.763440860215056,9.775171065493646,0.0
9.775171065493646,39.100684261974585,19.550342130987293,73.31378299120234,14.662756598240469,9.775171065493646,4.887585532746823
9.775171065493646,9.775171065493646,4.887585532746823,24.437927663734115,4.887585532746823,9.775171065493646,9.775171065493646
4.887585532746823,9.775171065493646,4.887585532746823,4.887585532746823,4.887585532746823,4.887585532746823,9.775171065493646
14.662756598240469,4.887585532746823,29.325513196480937,9.775171065493646,4.887585532746823,4.887585532746823,4.887585532746823
19.550342130987293,63.53861192570871,14.662756598240469,14.662756598240469,4.887585532746823,0.0,14.662756598240469
0.0,9.775171065493646,0.0,14.662756598240469,4.887585532746823,9.775171065493646,0.0
34.21309872922776,4.887585532746823,4.887585532746823,9.775171065493646,9.775171065493646,0.0,4.887585532746823
14.662756598240469,0.0,9.775171065493646,4.887585532746823,34.21309872922776,9.775171065493646,4.887585532746823
4.887585532746823,9.775171065493646,63.53861192570871,0.0,14.662756598240469,9.775171065493646,9.775171065493646
4.887585532746823,0.0,4.887585532746823,24.437927663734115,4.887585532746823,14.662756598240469,0.0
9.775171065493646,4.887585532746823,4.887585532746823,24.437927663734115,4.887585532746823,4.887585532746823,0.0
0.0,9.775171065493646,39.100684261974585,4.887585532746823,39.100684261974585,4.887585532746823,4.887585532746823
9.775171065493646,48.87585532746823,4.887585532746823,4.887585532746823,9.775171065493646,14.662756598240469,4.887585532746823
4.887585532746823,9.775171065493646,4.887585532746823,39.100684261974585,83.08895405669598,4.887585532746823,4.887585532746823
9.775171065493646,4.887585532746823,43.98826979472141,9.775171065493646,9.775171065493646,9.775171065493646,4.887585532746823
0.0,39.100684261974585,19.550342130987293,9.775171065493646,4.887585532746823,0.0,4.887585532746823
14.662756598240469,0.0,4.887585532746823,9.775171065493646,24.437927663734115,19.550342130987293,9.775171065493646
4.887585532746823,4.887585532746823,9.775171065493646,4.887585532746823,0.0,14.662756598240469,4.887585532746823
9.775171065493646,9.775171065493646,4.887585532746823,9.775171065493646,0.0,102.63929618768329,0.0
4.887585532746823,4.887585532746823,9.775171065493646,4.887585532746823,78.20136852394917,4.887585532746823,9.775171065493646
4.887585532746823,0.0,0.0,9.775171065493646,48.87585532746823,78.20136852394917,0.0
9.775171065493646,0.0,4.887585532746823,24.437927663734115,9.775171065493646,43.98826979472141,9.775171065493646
0.0,53.763440860215056,0.0,9.775171065493646,4.887585532746823,9.775171065493646,4.887585532746823
0.0,73.31378299120234,14.662756598240469,9.775171065493646,0.0,9.775171065493646,4.887585532746823
24.437927663734115,4.887585532746823,4.887585532746823,34.21309872922776,34.21309872922776,34.21309872922776,4.887585532746823
4.887585532746823,9.775171065493646,4.887585532746823,19.550342130987293,24.437927663734115,34.21309872922776,19.550342130987293
9.775171065493646,4.887585532746823,4.887585532746823,24.437927663734115,4.887585532746823,4.887585532746823,9.775171065493646
4.887585532746823,9.775171065493646,14.662756598240469,4.887585532746823,0.0,9.775171065493646,9.775171065493646
0.0,0.0,0.0,14.662756598240469,68.42619745845552,14.662756598240469,4.887585532746823
4.887585532746823,53.763440860215056,0.0,48.87585532746823,131.96480938416423,0.0,9.775171065493646
0.0,39.100684261974585,9.775171065493646,53.763440860215056,9.775171065493646,4.887585532746823,9.775171065493646
9.775171065493646,19.550342130987293,0.0,29.325513196480937,9.775171065493646,14.662756598240469,9.775171065493646
4.887585532746823,14.662756598240469,4.887585532746823,9.775171065493646,4.887585532746823,14.662756598240469,9.775171065493646
4.887585532746823,4.887585532746823,0.0,29.325513196480937,9.775171065493646,19.550342130987293,0.0
9.775171065493646,4.887585532746823,9.775171065493646,19.550342130987293,4.887585532746823,14.662756598240469,4.887585532746823
4.887585532746823,9.775171065493646,19.550342130987293,9.775171065493646,4.887585532746823,9.775171065493646,0.0
4.887585532746823,0.0,4.887585532746823,9.775171065493646,9.775171065493646,34.21309872922776,4.887585532746823
4.887585532746823,4.887585532746823,9.775171065493646,9.775171065493646,9.775171065493646,4.887585532746823,4.887585532746823
39.100684261974585,48.87585532746823,4.887585532746823,9.775171065493646,4.887585532746823,9.775171065493646,9.775171065493646
9.775171065493646,43.98826979472141,9.775171065493646,14.662756598240469,9.775171065493646,43.98826979472141,0.0
4.887585532746823,14.662756598240469,4.887585532746823,9.775171065493646,39.100684261974585,97.75171065493646,0.0
4.887585532746823,4.887585532746823,0.0,9.775171065493646,14.662756598240469,117.30205278592375,4.887585532746823
4.887585532746823,0.0,0.0,14.662756598240469,9.775171065493646,112.41446725317694,4.887585532746823
4.887585532746823,9.775171065493646,0.0,9.775171065493646,4.887585532746823,9.775171065493646,4.887585532746823
24.437927663734115,0.0,9.775171065493646,0.0,9.775171065493646,87.97653958944282,4.887585532746823
19.550342130987293,24.437927663734115,87.97653958944282,0.0,63.53861192570871,63.53861192570871,4.887585532746823
9.775171065493646,9.775171065493646,14.662756598240469,0.0,19.550342130987293,107.52688172043011,9.775171065493646
4.887585532746823,4.887585532746823,14.662756598240469,9.775171065493646,4.887585532746823,317.6930596285435,0.0
4.887585532746823,0.0,0.0,4.887585532746823,0.0,29.325513196480937,9.775171065493646
0.0,9.775171065493646,0.0,34.21309872922776,4.887585532746823,83.08895405669598,0.0
19.550342130987293,9.775171065493646,4.887585532746823,9.775171065493646,14.662756598240469,58.651026392961874,4.887585532746823
0.0,9.775171065493646,4.887585532746823,4.887585532746823,34.21309872922776,53.763440860215056,0.0
4.887585532746823,9.775171065493646,0.0,4.887585532746823,14.662756598240469,43.98826979472141,0.0
19.550342130987293,19.550342130987293,4.887585532746823,4.887585532746823,4.887585532746823,386.119257086999,9.775171065493646
9.775171065493646,4.887585532746823,48.87585532746823,4.887585532746823,24.437927663734115,19.550342130987293,4.887585532746823
0.0,9.775171065493646,0.0,9.775171065493646,24.437927663734115,73.31378299120234,4.887585532746823
4.887585532746823,29.325513196480937,9.775171065493646,14.662756598240469,9.775171065493646,73.31378299120234,14.662756598240469
9.775171065493646,102.63929618768329,4.887585532746823,39.100684261974585,9.775171065493646,112.41446725317694,9.775171065493646
9.775171065493646,19.550342130987293,0.0,24.437927663734115,4.887585532746823,112.41446725317694,9.775171065493646
4.887585532746823,9.775171065493646,9.775171065493646,9.775171065493646,4.887585532746823,151.51515151515153,4.887585532746823
9.775171065493646,0.0,0.0,9.775171065493646,4.887585532746823,78.20136852394917,4.887585532746823
9.775171065493646,4.887585532746823,0.0,102.63929618768329,83.08895405669598,654.9364613880742,0.0
4.887585532746823,9.775171065493646,4.887585532746823,9.775171065493646,14.662756598240469,19.550342130987293,4.887585532746823
0.0,0.0,92.86412512218965,24.437927663734115,4.887585532746823,342.1309872922776,4.887585532746823
4.887585532746823,4.887585532746823,9.775171065493646,39.100684261974585,19.550342130987293,68.42619745845552,9.775171065493646
0.0,9.775171065493646,0.0,29.325513196480937,39.100684261974585,395.89442815249265,4.887585532746823
0.0,4.887585532746823,24.437927663734115,0.0,9.775171065493646,127.07722385141741,9.775171065493646
0.0,0.0,0.0,9.775171065493646,19.550342130987293,34.21309872922776,9.775171065493646
9.775171065493646,9.775171065493646,92.86412512218965,4.887585532746823,14.662756598240469,9.775171065493646,9.775171065493646
0.0,0.0,19.550342130987293,4.887585532746823,9.775171065493646,342.1309872922776,4.887585532746823
0.0,9.775171065493646,4.887585532746823,14.662756598240469,4.887585532746823,97.75171065493646,4.887585532746823
9.775171065493646,43.98826979472141,4.887585532746823,4.887585532746823,0.0,78.20136852394917,4.887585532746823
4.887585532746823,9.775171065493646,4.887585532746823,14.662756598240469,9.775171065493646,425.2199413489736,0.0
9.775171065493646,4.887585532746823,68.42619745845552,4.887585532746823,14.662756598240469,68.42619745845552,4.887585532746823
4.887585532746823,0.0,14.662756598240469,4.887585532746823,19.550342130987293,78.20136852394917,4.887585532746823
4.887585532746823,9.775171065493646,9.775171065493646,9.775171065493646,34.21309872922776,53.763440860215056,19.550342130987293
19.550342130987293,0.0,0.0,9.775171065493646,24.437927663734115,43.98826979472141,4.887585532746823
4.887585532746823,4.887585532746823,9.775171065493646,0.0,9.775171065493646,4.887585532746823,4.887585532746823
4.887585532746823,9.775171065493646,9.775171065493646,4.887585532746823,43.98826979472141,425.2199413489736,4.887585532746823
4.887585532746823,0.0,4.887585532746823,14.662756598240469,4.887585532746823,29.325513196480937,4.887585532746823
9.775171065493646,39.100684261974585,0.0,9.775171065493646,34.21309872922776,263.92961876832845,4.887585532746823
9.775171065493646,127.07722385141741,4.887585532746823,9.775171065493646,9.775171065493646,342.1309872922776,9.775171065493646
9.775171065493646,9.775171065493646,14.662756598240469,4.887585532746823,24.437927663734115,151.51515151515153,4.887585532746823
9.775171065493646,24.437927663734115,0.0,4.887585532746823,34.21309872922776,434.99511241446726,9.775171065493646
0.0,43.98826979472141,9.775171065493646,4.887585532746823,14.662756598240469,185.7282502443793,4.887585532746823
4.887585532746823,4.887585532746823,9.775171065493646,0.0,9.775171065493646,180.84066471163246,4.887585532746823
24.437927663734115,4.887585532746823,14.662756598240469,4.887585532746823,4.887585532746823,92.86412512218965,4.887585532746823
9.775171065493646,4.887585532746823,4.887585532746823,29.325513196480937,24.437927663734115,63.53861192570871,9.775171065493646
9.775171065493646,4.887585532746823,39.100684261974585,29.325513196480937,48.87585532746823,620.7233626588466,0.0
9.775171065493646,0.0,14.662756598240469,29.325513196480937,4.887585532746823,39.100684261974585,4.887585532746823
4.887585532746823,4.887585532746823,34.21309872922776,48.87585532746823,39.100684261974585,161.29032258064515,34.21309872922776
24.437927663734115,4.887585532746823,34.21309872922776,0.0,9.775171065493646,195.50342130987292,14.662756598240469
9.775171065493646,19.550342130987293,9.775171065493646,24.437927663734115,4.887585532746823,537.6344086021505,9.775171065493646
4.887585532746823,14.662756598240469,4.887585532746823,0.0,107.52688172043011,53.763440860215056,0.0
4.887585532746823,24.437927663734115,0.0,39.100684261974585,24.437927663734115,268.81720430107526,0.0
4.887585532746823,4.887585532746823,0.0,63.53861192570871,4.887585532746823,141.73998044965788,4.887585532746823
4.887585532746823,29.325513196480937,117.30205278592375,9.775171065493646,4.887585532746823,283.47996089931576,4.887585532746823
4.887585532746823,4.887585532746823,9.775171065493646,4.887585532746823,9.775171065493646,884.6529814271751,0.0
0.0,0.0,9.775171065493646,9.775171065493646,0.0,87.97653958944282,4.887585532746823
29.325513196480937,9.775171065493646,4.887585532746823,9.775171065493646,14.662756598240469,166.17790811339196,0.0
4.887585532746823,4.887585532746823,24.437927663734115,4.887585532746823,9.775171065493646,151.51515151515153,19.550342130987293
0.0,9.775171065493646,29.325513196480937,0.0,29.325513196480937,53.763440860215056,9.775171065493646
9.775171065493646,0.0,19.550342130987293,4.887585532746823,48.87585532746823,283.47996089931576,4.887585532746823
4.887585532746823,9.775171065493646,0.0,0.0,4.887585532746823,107.52688172043011,4.887585532746823
4.887585532746823,0.0,4.887585532746823,4.887585532746823,97.75171065493646,24.437927663734115,0.0
9.775171065493646,0.0,14.662756598240469,43.98826979472141,9.775171065493646,9.775171065493646,14.662756598240469
0.0,4.887585532746823,83.08895405669598,19.550342130987293,9.775171065493646,180.84066471163246,14.662756598240469
9.775171065493646,4.887585532746823,4.887585532746823,4.887585532746823,14.662756598240469,791.7888563049853,4.887585532746823
9.775171065493646,9.775171065493646,0.0,0.0,29.325513196480937,219.94134897360706,0.0
4.887585532746823,9.775171065493646,9.775171065493646,4.887585532746823,4.887585532746823,9.775171065493646,4.887585532746823
9.775171065493646,9.775171065493646,4.887585532746823,4.887585532746823,19.550342130987293,268.81720430107526,4.887585532746823
9.775171065493646,4.887585532746823,4.887585532746823,4.887585532746823,0.0,845.5522971652003,9.775171065493646
19.550342130987293,19.550342130987293,9.775171065493646,43.98826979472141,9.775171065493646,356.7937438905181,0.0
4.887585532746823,0.0,29.325513196480937,9.775171065493646,29.325513196480937,29.325513196480937,0.0
4.887585532746823,9.775171065493646,14.662756598240469,0.0,14.662756598240469,9.775171065493646,0.0
9.775171065493646,24.437927663734115,4.887585532746823,4.887585532746823,4.887585532746823,278.5923753665689,4.887585532746823
9.775171065493646,53.763440860215056,9.775171065493646,9.775171065493646,0.0,210.16617790811338,19.550342130987293
4.887585532746823,9.775171065493646,19.550342130987293,4.887585532746823,29.325513196480937,337.2434017595308,9.775171065493646
0.0,43.98826979472141,0.0,4.887585532746823,58.651026392961874,97.75171065493646,4.887585532746823
4.887585532746823,48.87585532746823,4.887585532746823,4.887585532746823,0.0,459.4330400782014,9.775171065493646
19.550342130987293,19.550342130987293,4.887585532746823,29.325513196480937,4.887585532746823,400.78201368523946,4.887585532746823
19.550342130987293,14.662756598240469,0.0,9.775171065493646,4.887585532746823,19.550342130987293,4.887585532746823
4.887585532746823,9.775171065493646,4.887585532746823,53.763440860215056,39.100684261974585,694.0371456500488,4.887585532746823
0.0,9.775171065493646,63.53861192570871,14.662756598240469,34.21309872922776,136.85239491691104,4.887585532746823
4.887585532746823,43.98826979472141,9.775171065493646,9.775171065493646,19.550342130987293,1520.039100684262,9.775171065493646
9.775171065493646,9.775171065493646,4.887585532746823,9.775171065493646,4.887585532746823,58.651026392961874,0.0
0.0,19.550342130987293,19.550342130987293,4.887585532746823,0.0,97.75171065493646,24.437927663734115
4.887585532746823,0.0,43.98826979472141,4.887585532746823,9.775171065493646,112.41446725317694,9.775171065493646
14.662756598240469,4.887585532746823,9.775171065493646,4.887585532746823,43.98826979472141,136.85239491691104,4.887585532746823
4.887585532746823,4.887585532746823,9.775171065493646,19.550342130987293,19.550342130987293,430.10752688172045,9.775171065493646
4.887585532746823,4.887585532746823,4.887585532746823,9.775171065493646,39.100684261974585,684.2619745845552,9.775171065493646
0.0,0.0,9.775171065493646,19.550342130987293,9.775171065493646,14.662756598240469,4.887585532746823
4.887585532746823,4.887585532746823,4.887585532746823,9.775171065493646,53.763440860215056,92.86412512218965,29.325513196480937
9.775171065493646,4.887585532746823,9.775171065493646,0.0,97.75171065493646,483.8709677419355,9.775171065493646
4.887585532746823,4.887585532746823,0.0,4.887585532746823,0.0,171.0654936461388,9.775171065493646
9.775171065493646,9.775171065493646,0.0,19.550342130987293,14.662756598240469,136.85239491691104,4.887585532746823
0.0,29.325513196480937,14.662756598240469,9.775171065493646,19.550342130987293,229.7165200391007,0.0
0.0,4.887585532746823,0.0,4.887585532746823,9.775171065493646,547.4095796676442,9.775171065493646
19.550342130987293,4.887585532746823,4.887585532746823,9.775171065493646,43.98826979472141,175.95307917888564,0.0
29.325513196480937,4.887585532746823,4.887585532746823,4.887585532746823,92.86412512218965,73.31378299120234,9.775171065493646
14.662756598240469,29.325513196480937,4.887585532746823,4.887585532746823,14.662756598240469,762.4633431085044,4.887585532746823
4.887585532746823,78.20136852394917,0.0,9.775171065493646,14.662756598240469,151.51515151515153,4.887585532746823
4.887585532746823,9.775171065493646,53.763440860215056,0.0,4.887585532746823,131.96480938416423,4.887585532746823
4.887585532746823,0.0,4.887585532746823,4.887585532746823,14.662756598240469,156.40273704789834,14.662756598240469
9.775171065493646,29.325513196480937,4.887585532746823,9.775171065493646,0.0,288.36754643206257,9.775171065493646
9.775171065493646,4.887585532746823,4.887585532746823,9.775171065493646,9.775171065493646,224.82893450635387,9.775171065493646
4.887585532746823,0.0,14.662756598240469,0.0,19.550342130987293,317.6930596285435,0.0
4.887585532746823,4.887585532746823,24.437927663734115,9.775171065493646,14.662756598240469,112.41446725317694,9.775171065493646
4.887585532746823,9.775171065493646,4.887585532746823,4.887585532746823,9.775171065493646,34.21309872922776,0.0
9.775171065493646,14.662756598240469,0.0,9.775171065493646,9.775171065493646,356.7937438905181,0.0
4.887585532746823,4.887585532746823,29.325513196480937,4.887585532746823,9.775171065493646,127.07722385141741,9.775171065493646
19.550342130987293,34.21309872922776,9.775171065493646,83.08895405669598,0.0,376.3440860215054,4.887585532746823
14.662756598240469,9.775171065493646,4.887585532746823,9.775171065493646,0.0,131.96480938416423,0.0
4.887585532746823,4.887585532746823,48.87585532746823,19.550342130987293,0.0,92.86412512218965,9.775171065493646
9.775171065493646,19.550342130987293,24.437927663734115,14.662756598240469,9.775171065493646,151.51515151515153,0.0
4.887585532746823,39.100684261974585,4.887585532746823,4.887585532746823,9.775171065493646,728.2502443792766,4.887585532746823
0.0,9.775171065493646,4.887585532746823,43.98826979472141,0.0,53.763440860215056,4.887585532746823
0.0,9.775171065493646,4.887585532746823,9.775171065493646,29.325513196480937,166.17790811339196,9.775171065493646
0.0,0.0,0.0,63.53861192570871,24.437927663734115,821.1143695014663,4.887585532746823
9.775171065493646,78.20136852394917,9.775171065493646,9.775171065493646,9.775171065493646,73.31378299120234,9.775171065493646
4.887585532746823,39.100684261974585,19.550342130987293,9.775171065493646,0.0,483.8709677419355,9.775171065493646
4.887585532746823,19.550342130987293,68.42619745845552,9.775171065493646,24.437927663734115,63.53861192570871,4.887585532746823
0.0,4.887585532746823,4.887585532746823,9.775171065493646,9.775171065493646,249.26686217008796,4.887585532746823
9.775171065493646,4.887585532746823,9.775171065493646,19.550342130987293,19.550342130987293,122.18963831867057,4.887585532746823
9.775171065493646,9.775171065493646,34.21309872922776,4.887585532746823,9.775171065493646,166.17790811339196,14.662756598240469
24.437927663734115,9.775171065493646,29.325513196480937,9.775171065493646,0.0,87.97653958944282,9.775171065493646
4.887585532746823,9.775171065493646,48.87585532746823,14.662756598240469,24.437927663734115,420.33235581622677,19.550342130987293
0.0,9.775171065493646,48.87585532746823,19.550342130987293,29.325513196480937,141.73998044965788,0.0
9.775171065493646,4.887585532746823,9.775171065493646,9.775171065493646,14.662756598240469,19.550342130987293,4.887585532746823
9.775171065493646,4.887585532746823,0.0,19.550342130987293,29.325513196480937,53.763440860215056,4.887585532746823
4.887585532746823,4.887585532746823,136.85239491691104,4.887585532746823,48.87585532746823,14.662756598240469,4.887585532746823
4.887585532746823,4.887585532746823,29.325513196480937,19.550342130987293,4.887585532746823,865.1026392961877,0.0
9.775171065493646,34.21309872922776,43.98826979472141,9.775171065493646,0.0,342.1309872922776,0.0
0.0,48.87585532746823,0.0,4.887585532746823,63.53861192570871,249.26686217008796,9.775171065493646
4.887585532746823,9.775171065493646,4.887585532746823,14.662756598240469,19.550342130987293,786.9012707722385,4.887585532746823
9.775171065493646,9.775171065493646,9.775171065493646,0.0,9.775171065493646,478.9833822091887,14.662756598240469
4.887585532746823,0.0,4.887585532746823,4.887585532746823,29.325513196480937,63.53861192570871,4.887585532746823
4.887585532746823,4.887585532746823,53.763440860215056,9.775171065493646,9.775171065493646,146.6275659824047,9.775171065493646
4.887585532746823,4.887585532746823,29.325513196480937,4.887585532746823,0.0,371.4565004887586,9.775171065493646
39.100684261974585,4.887585532746823,73.31378299120234,4.887585532746823,4.887585532746823,249.26686217008796,9.775171065493646
14.662756598240469,24.437927663734115,29.325513196480937,9.775171065493646,0.0,190.6158357771261,0.0
4.887585532746823,14.662756598240469,39.100684261974585,0.0,4.887585532746823,34.21309872922776,0.0
4.887585532746823,34.21309872922776,9.775171065493646,19.550342130987293,4.887585532746823,420.33235581622677,4.887585532746823
9.775171065493646,9.775171065493646,24.437927663734115,4.887585532746823,0.0,562.0723362658846,0.0
0.0,4.887585532746823,4.887585532746823,9.775171065493646,0.0,63.53861192570871,0.0
39.100684261974585,4.887585532746823,78.20136852394917,4.887585532746823,0.0,112.41446725317694,4.887585532746823
0.0,4.887585532746823,9.775171065493646,4.887585532746823,4.887585532746823,156.40273704789834,9.775171065493646
0.0,4.887585532746823,146.6275659824047,0.0,9.775171065493646,185.7282502443793,4.887585532746823
4.887585532746823,9.775171065493646,9.775171065493646,0.0,4.887585532746823,782.0136852394917,19.550342130987293
0.0,14.662756598240469,14.662756598240469,48.87585532746823,4.887585532746823,68.42619745845552,4.887585532746823
0.0,34.21309872922776,136.85239491691104,9.775171065493646,0.0,175.95307917888564,4.887585532746823
0.0,4.887585532746823,102.63929618768329,14.662756598240469,9.775171065493646,14.662756598240469,4.887585532746823
4.887585532746823,19.550342130987293,29.325513196480937,14.662756598240469,29.325513196480937,63.53861192570871,0.0
0.0,9.775171065493646,9.775171065493646,4.887585532746823,9.775171065493646,141.73998044965788,0.0
4.887585532746823,43.98826979472141,4.887585532746823,83.08895405669598,4.887585532746823,19.550342130987293,0.0
14.662756598240469,14.662756598240469,215.05376344086022,24.437927663734115,9.775171065493646,293.2551319648094,14.662756598240469
4.887585532746823,87.97653958944282,303.03030303030306,4.887585532746823,9.775171065493646,73.31378299120234,4.887585532746823
9.775171065493646,4.887585532746823,156.40273704789834,9.775171065493646,29.325513196480937,78.20136852394917,9.775171065493646
0.0,14.662756598240469,24.437927663734115,4.887585532746823,9.775171065493646,381.2316715542522,4.887585532746823
9.775171065493646,0.0,0.0,48.87585532746823,9.775171065493646,29.325513196480937,9.775171065493646
0.0,9.775171065493646,0.0,4.887585532746823,4.887585532746823,498.5337243401759,9.775171065493646
0.0,14.662756598240469,87.97653958944282,4.887585532746823,14.662756598240469,288.36754643206257,0.0
4.887585532746823,9.775171065493646,224.82893450635387,4.887585532746823,24.437927663734115,151.51515151515153,9.775171065493646
4.887585532746823,43.98826979472141,29.325513196480937,9.775171065493646,14.662756598240469,87.97653958944282,4.887585532746823
14.662756598240469,14.662756598240469,63.53861192570871,14.662756598240469,0.0,58.651026392961874,4.887585532746823
4.887585532746823,0.0,48.87585532746823,0.0,249.26686217008796,14.662756598240469,9.775171065493646
4.887585532746823,4.887585532746823,112.41446725317694,9.775171065493646,430.10752688172045,664.7116324535679,0.0
4.887585532746823,0.0,63.53861192570871,9.775171065493646,29.325513196480937,29.325513196480937,4.887585532746823
4.887585532746823,48.87585532746823,9.775171065493646,4.887585532746823,9.775171065493646,87.97653958944282,4.887585532746823
4.887585532746823,9.775171065493646,0.0,4.887585532746823,29.325513196480937,615.8357771260997,0.0
4.887585532746823,19.550342130987293,146.6275659824047,4.887585532746823,9.775171065493646,342.1309872922776,0.0
9.775171065493646,0.0,19.550342130987293,0.0,9.775171065493646,122.18963831867057,9.775171065493646
0.0,9.775171065493646,9.775171065493646,4.887585532746823,9.775171065493646,19.550342130987293,14.662756598240469
4.887585532746823,9.775171065493646,151.51515151515153,0.0,14.662756598240469,136.85239491691104,4.887585532746823
0.0,9.775171065493646,14.662756598240469,14.662756598240469,14.662756598240469,29.325513196480937,4.887585532746823
0.0,4.887585532746823,171.0654936461388,9.775171065493646,14.662756598240469,83.08895405669598,9.775171065493646
29.325513196480937,9.775171065493646,24.437927663734115,29.325513196480937,0.0,796.6764418377321,4.887585532746823
29.325513196480937,0.0,63.53861192570871,4.887585532746823,14.662756598240469,107.52688172043011,9.775171065493646
9.775171065493646,48.87585532746823,136.85239491691104,14.662756598240469,9.775171065493646,254.15444770283483,0.0
9.775171065493646,19.550342130987293,83.08895405669598,9.775171065493646,9.775171065493646,200.39100684261973,4.887585532746823
4.887585532746823,0.0,53.763440860215056,0.0,9.775171065493646,48.87585532746823,9.775171065493646
4.887585532746823,29.325513196480937,73.31378299120234,53.763440860215056,39.100684261974585,366.5689149560117,4.887585532746823
0.0,58.651026392961874,29.325513196480937,0.0,34.21309872922776,351.9061583577713,24.437927663734115
9.775171065493646,29.325513196480937,131.96480938416423,24.437927663734115,58.651026392961874,205.27859237536657,19.550342130987293
29.325513196480937,0.0,127.07722385141741,4.887585532746823,19.550342130987293,68.42619745845552,9.775171065493646
4.887585532746823,127.07722385141741,39.100684261974585,48.87585532746823,9.775171065493646,244.37927663734115,9.775171065493646
19.550342130987293,190.6158357771261,4.887585532746823,87.97653958944282,4.887585532746823,244.37927663734115,4.887585532746823
43.98826979472141,9.775171065493646,141.73998044965788,4.887585532746823,9.775171065493646,53.763440860215056,14.662756598240469
9.775171065493646,415.44477028347995,122.18963831867057,4.887585532746823,73.31378299120234,131.96480938416423,4.887585532746823
9.775171065493646,24.437927663734115,24.437927663734115,39.100684261974585,19.550342130987293,210.16617790811338,0.0
0.0,4.887585532746823,4.887585532746823,14.662756598240469,4.887585532746823,322.5806451612903,4.887585532746823
4.887585532746823,219.94134897360706,166.17790811339196,4.887585532746823,58.651026392961874,73.31378299120234,9.775171065493646
9.775171065493646,19.550342130987293,117.30205278592375,29.325513196480937,127.07722385141741,73.31378299120234,9.775171065493646
9.775171065493646,58.651026392961874,92.86412512218965,43.98826979472141,4.887585532746823,278.5923753665689,14.662756598240469
9.775171065493646,29.325513196480937,107.52688172043011,14.662756598240469,200.39100684261973,576.7350928641251,4.887585532746823
0.0,4.887585532746823,58.651026392961874,19.550342130987293,34.21309872922776,14.662756598240469,0.0
4.887585532746823,53.763440860215056,205.27859237536657,107.52688172043011,215.05376344086022,4.887585532746823,9.775171065493646
14.662756598240469,39.100684261974585,14.662756598240469,4.887585532746823,24.437927663734115,171.0654936461388,4.887585532746823
4.887585532746823,14.662756598240469,24.437927663734115,29.325513196480937,239.49169110459434,87.97653958944282,9.775171065493646
4.887585532746823,19.550342130987293,195.50342130987292,234.6041055718475,29.325513196480937,97.75171065493646,9.775171065493646
0.0,34.21309872922776,92.86412512218965,53.763440860215056,9.775171065493646,131.96480938416423,4.887585532746823
4.887585532746823,14.662756598240469,9.775171065493646,9.775171065493646,171.0654936461388,259.04203323558164,9.775171065493646
0.0,19.550342130987293,151.51515151515153,68.42619745845552,92.86412512218965,24.437927663734115,4.887585532746823
9.775171065493646,9.775171065493646,58.651026392961874,9.775171065493646,97.75171065493646,127.07722385141741,9.775171065493646
4.887585532746823,19.550342130987293,34.21309872922776,0.0,34.21309872922776,141.73998044965788,9.775171065493646
9.775171065493646,19.550342130987293,29.325513196480937,39.100684261974585,39.100684261974585,68.42619745845552,4.887585532746823
4.887585532746823,4.887585532746823,166.17790811339196,620.7233626588466,58.651026392961874,73.31378299120234,0.0
9.775171065493646,4.887585532746823,9.775171065493646,122.18963831867057,141.73998044965788,312.8054740957967,0.0
9.775171065493646,14.662756598240469,249.26686217008796,14.662756598240469,48.87585532746823,24.437927663734115,9.775171065493646
0.0,19.550342130987293,493.6461388074291,171.0654936461388,39.100684261974585,107.52688172043011,9.775171065493646
4.887585532746823,14.662756598240469,14.662756598240469,547.4095796676442,87.97653958944282,73.31378299120234,0.0
14.662756598240469,4.887585532746823,312.8054740957967,39.100684261974585,39.100684261974585,48.87585532746823,4.887585532746823
4.887585532746823,4.887585532746823,131.96480938416423,14.662756598240469,14.662756598240469,259.04203323558164,9.775171065493646
19.550342130987293,4.887585532746823,24.437927663734115,9.775171065493646,131.96480938416423,73.31378299120234,4.887585532746823
19.550342130987293,4.887585532746823,4.887585532746823,4.887585532746823,78.20136852394917,171.0654936461388,4.887585532746823
14.662756598240469,4.887585532746823,63.53861192570871,9.775171065493646,29.325513196480937,34.21309872922776,0.0
0.0,0.0,161.29032258064515,332.35581622678393,43.98826979472141,268.81720430107526,4.887585532746823
9.775171065493646,0.0,141.73998044965788,425.2199413489736,19.550342130987293,195.50342130987292,0.0
4.887585532746823,122.18963831867057,24.437927663734115,68.42619745845552,68.42619745845552,200.39100684261973,4.887585532746823
83.08895405669598,92.86412512218965,234.6041055718475,9.775171065493646,43.98826979472141,39.100684261974585,9.775171065493646
4.887585532746823,156.40273704789834,171.0654936461388,19.550342130987293,24.437927663734115,171.0654936461388,4.887585532746823
4.887585532746823,34.21309872922776,14.662756598240469,9.775171065493646,19.550342130987293,259.04203323558164,0.0
4.887585532746823,4.887585532746823,200.39100684261973,4.887585532746823,117.30205278592375,92.86412512218965,9.775171065493646
4.887585532746823,34.21309872922776,166.17790811339196,78.20136852394917,19.550342130987293,9.775171065493646,4.887585532746823
0.0,4.887585532746823,195.50342130987292,4.887585532746823,83.08895405669598,34.21309872922776,0.0
9.775171065493646,4.887585532746823,39.100684261974585,24.437927663734115,107.52688172043011,14.662756598240469,9.775171065493646
610.9481915933529,200.39100684261973,29.325513196480937,185.7282502443793,127.07722385141741,43.98826979472141,9.775171065493646
58.651026392961874,53.763440860215056,508.30889540566966,249.26686217008796,68.42619745845552,195.50342130987292,4.887585532746823
29.325513196480937,39.100684261974585,78.20136852394917,19.550342130987293,190.6158357771261,92.86412512218965,9.775171065493646
9.775171065493646,112.41446725317694,0.0,161.29032258064515,117.30205278592375,39.100684261974585,0.0
0.0,185.7282502443793,0.0,73.31378299120234,9.775171065493646,161.29032258064515,0.0
9.775171065493646,68.42619745845552,78.20136852394917,200.39100684261973,146.6275659824047,63.53861192570871,0.0
0.0,39.100684261974585,141.73998044965788,518.0840664711633,87.97653958944282,122.18963831867057,0.0
9.775171065493646,234.6041055718475,43.98826979472141,19.550342130987293,337.2434017595308,73.31378299120234,9.775171065493646
14.662756598240469,19.550342130987293,58.651026392961874,14.662756598240469,195.50342130987292,24.437927663734115,4.887585532746823
4.887585532746823,14.662756598240469,9.775171065493646,317.6930596285435,298.14271749755625,48.87585532746823,4.887585532746823
4.887585532746823,87.97653958944282,83.08895405669598,58.651026392961874,48.87585532746823,239.49169110459434,14.662756598240469
4.887585532746823,92.86412512218965,307.91788856304987,112.41446725317694,78.20136852394917,19.550342130987293,9.775171065493646
58.651026392961874,34.21309872922776,24.437927663734115,180.84066471163246,34.21309872922776,136.85239491691104,0.0
14.662756598240469,9.775171065493646,58.651026392961874,14.662756598240469,102.63929618768329,127.07722385141741,0.0
0.0,24.437927663734115,58.651026392961874,249.26686217008796,283.47996089931576,83.08895405669598,0.0
0.0,102.63929618768329,195.50342130987292,219.94134897360706,122.18963831867057,73.31378299120234,4.887585532746823
9.775171065493646,4.887585532746823,39.100684261974585,151.51515151515153,205.27859237536657,200.39100684261973,4.887585532746823
4.887585532746823,14.662756598240469,83.08895405669598,361.6813294232649,112.41446725317694,14.662756598240469,4.887585532746823
4.887585532746823,9.775171065493646,68.42619745845552,53.763440860215056,410.55718475073314,73.31378299120234,4.887585532746823
107.52688172043011,48.87585532746823,87.97653958944282,122.18963831867057,73.31378299120234,136.85239491691104,0.0
14.662756598240469,68.42619745845552,48.87585532746823,4.887585532746823,161.29032258064515,87.97653958944282,0.0
117.30205278592375,9.775171065493646,39.100684261974585,97.75171065493646,39.100684261974585,19.550342130987293,0.0
166.17790811339196,58.651026392961874,4.887585532746823,48.87585532746823,24.437927663734115,205.27859237536657,0.0
29.325513196480937,102.63929618768329,83.08895405669598,146.6275659824047,405.6695992179863,78.20136852394917,4.887585532746823
14.662756598240469,141.73998044965788,171.0654936461388,39.100684261974585,395.89442815249265,24.437927663734115,0.0
48.87585532746823,53.763440860215056,58.651026392961874,14.662756598240469,48.87585532746823,58.651026392961874,14.662756598240469
9.775171065493646,107.52688172043011,78.20136852394917,371.4565004887586,4.887585532746823,19.550342130987293,14.662756598240469
312.8054740957967,9.775171065493646,87.97653958944282,87.97653958944282,4.887585532746823,29.325513196480937,4.887585532746823
53.763440860215056,92.86412512218965,4.887585532746823,293.2551319648094,498.5337243401759,102.63929618768329,4.887585532746823
58.651026392961874,24.437927663734115,4.887585532746823,391.00684261974584,146.6275659824047,347.0185728250244,0.0
0.0,342.1309872922776,107.52688172043011,215.05376344086022,78.20136852394917,112.41446725317694,9.775171065493646
78.20136852394917,122.18963831867057,58.651026392961874,68.42619745845552,19.550342130987293,371.4565004887586,4.887585532746823
537.6344086021505,9.775171065493646,19.550342130987293,689.149560117302,29.325513196480937,43.98826979472141,0.0
43.98826979472141,4.887585532746823,92.86412512218965,58.651026392961874,303.03030303030306,4.887585532746823,0.0
58.651026392961874,127.07722385141741,117.30205278592375,762.4633431085044,131.96480938416423,4.887585532746823,0.0
9.775171065493646,78.20136852394917,87.97653958944282,161.29032258064515,97.75171065493646,73.31378299120234,4.887585532746823
4.887585532746823,39.100684261974585,386.119257086999,454.54545454545456,102.63929618768329,68.42619745845552,9.775171065493646
9.775171065493646,107.52688172043011,78.20136852394917,58.651026392961874,58.651026392961874,39.100684261974585,14.662756598240469
4.887585532746823,34.21309872922776,9.775171065493646,405.6695992179863,43.98826979472141,29.325513196480937,9.775171065493646
19.550342130987293,4.887585532746823,14.662756598240469,58.651026392961874,337.2434017595308,19.550342130987293,0.0
4.887585532746823,1055.7184750733138,117.30205278592375,166.17790811339196,24.437927663734115,68.42619745845552,4.887585532746823
4.887585532746823,92.86412512218965,97.75171065493646,488.7585532746823,4.887585532746823,68.42619745845552,4.887585532746823
117.30205278592375,39.100684261974585,14.662756598240469,117.30205278592375,29.325513196480937,9.775171065493646,4.887585532746823
68.42619745845552,244.37927663734115,19.550342130987293,14.662756598240469,293.2551319648094,53.763440860215056,9.775171065493646
14.662756598240469,19.550342130987293,9.775171065493646,327.4682306940371,19.550342130987293,78.20136852394917,9.775171065493646
9.775171065493646,19.550342130987293,322.5806451612903,92.86412512218965,288.36754643206257,92.86412512218965,0.0
136.85239491691104,9.775171065493646,34.21309872922776,562.0723362658846,322.5806451612903,83.08895405669598,9.775171065493646
39.100684261974585,107.52688172043011,4.887585532746823,97.75171065493646,19.550342130987293,97.75171065493646,0.0
92.86412512218965,68.42619745845552,14.662756598240469,268.81720430107526,87.97653958944282,29.325513196480937,4.887585532746823
48.87585532746823,29.325513196480937,610.9481915933529,117.30205278592375,161.29032258064515,68.42619745845552,9.775171065493646
9.775171065493646,9.775171065493646,166.17790811339196,342.1309872922776,4.887585532746823,175.95307917888564,0.0
4.887585532746823,9.775171065493646,146.6275659824047,34.21309872922776,180.84066471163246,24.437927663734115,14.662756598240469
39.100684261974585,131.96480938416423,63.53861192570871,200.39100684261973,430.10752688172045,14.662756598240469,4.887585532746823
97.75171065493646,43.98826979472141,92.86412512218965,107.52688172043011,175.95307917888564,83.08895405669598,0.0
112.41446725317694,83.08895405669598,249.26686217008796,166.17790811339196,537.6344086021505,58.651026392961874,9.775171065493646
48.87585532746823,34.21309872922776,34.21309872922776,796.6764418377321,39.100684261974585,68.42619745845552,0.0
4.887585532746823,87.97653958944282,4.887585532746823,156.40273704789834,4.887585532746823,356.7937438905181,4.887585532746823
171.0654936461388,14.662756598240469,29.325513196480937,29.325513196480937,263.92961876832845,205.27859237536657,0.0
92.86412512218965,19.550342130987293,43.98826979472141,78.20136852394917,175.95307917888564,63.53861192570871,14.662756598240469
136.85239491691104,376.3440860215054,259.04203323558164,195.50342130987292,92.86412512218965,254.15444770283483,0.0
9.775171065493646,24.437927663734115,146.6275659824047,14.662756598240469,278.5923753665689,14.662756598240469,4.887585532746823
4.887585532746823,391.00684261974584,53.763440860215056,1246.3343108504398,29.325513196480937,112.41446725317694,9.775171065493646
14.662756598240469,53.763440860215056,19.550342130987293,195.50342130987292,87.97653958944282,39.100684261974585,4.887585532746823
9.775171065493646,92.86412512218965,151.51515151515153,166.17790811339196,107.52688172043011,43.98826979472141,9.775171065493646
39.100684261974585,9.775171065493646,39.100684261974585,24.437927663734115,29.325513196480937,9.775171065493646,4.887585532746823
24.437927663734115,68.42619745845552,14.662756598240469,459.4330400782014,58.651026392961874,39.100684261974585,0.0
19.550342130987293,63.53861192570871,39.100684261974585,122.18963831867057,73.31378299120234,92.86412512218965,0.0
107.52688172043011,14.662756598240469,73.31378299120234,180.84066471163246,73.31378299120234,97.75171065493646,9.775171065493646
29.325513196480937,24.437927663734115,34.21309872922776,195.50342130987292,156.40273704789834,24.437927663734115,14.662756598240469
166.17790811339196,522.9716520039101,303.03030303030306,630.4985337243402,9.775171065493646,68.42619745845552,4.887585532746823
166.17790811339196,58.651026392961874,24.437927663734115,205.27859237536657,459.4330400782014,53.763440860215056,0.0
39.100684261974585,24.437927663734115,39.100684261974585,498.5337243401759,87.97653958944282,87.97653958944282,0.0
4.887585532746823,161.29032258064515,180.84066471163246,263.92961876832845,205.27859237536657,63.53861192570871,0.0
190.6158357771261,4.887585532746823,131.96480938416423,278.5923753665689,166.17790811339196,29.325513196480937,4.887585532746823
185.7282502443793,244.37927663734115,87.97653958944282,19.550342130987293,14.662756598240469,146.6275659824047,4.887585532746823
14.662756598240469,19.550342130987293,136.85239491691104,244.37927663734115,205.27859237536657,48.87585532746823,0.0
87.97653958944282,73.31378299120234,425.2199413489736,190.6158357771261,444.77028347996094,19.550342130987293,4.887585532746823
58.651026392961874,4.887585532746823,78.20136852394917,180.84066471163246,200.39100684261973,14.662756598240469,0.0
29.325513196480937,34.21309872922776,48.87585532746823,273.7047898338221,342.1309872922776,127.07722385141741,4.887585532746823
254.15444770283483,87.97653958944282,244.37927663734115,425.2199413489736,259.04203323558164,39.100684261974585,4.887585532746823
102.63929618768329,83.08895405669598,24.437927663734115,29.325513196480937,68.42619745845552,405.6695992179863,24.437927663734115
4.887585532746823,366.5689149560117,48.87585532746823,307.91788856304987,24.437927663734115,24.437927663734115,4.887585532746823
68.42619745845552,29.325513196480937,342.1309872922776,190.6158357771261,48.87585532746823,4.887585532746823,9.775171065493646
4.887585532746823,19.550342130987293,68.42619745845552,347.0185728250244,43.98826979472141,43.98826979472141,0.0
4.887585532746823,4.887585532746823,53.763440860215056,39.100684261974585,14.662756598240469,234.6041055718475,4.887585532746823
136.85239491691104,322.5806451612903,9.775171065493646,439.8826979472141,4.887585532746823,48.87585532746823,9.775171065493646
19.550342130987293,131.96480938416423,19.550342130987293,586.5102639296188,312.8054740957967,4.887585532746823,4.887585532746823
136.85239491691104,131.96480938416423,303.03030303030306,29.325513196480937,107.52688172043011,73.31378299120234,4.887585532746823
107.52688172043011,39.100684261974585,43.98826979472141,53.763440860215056,14.662756598240469,259.04203323558164,4.887585532746823
39.100684261974585,83.08895405669598,156.40273704789834,87.97653958944282,0.0,29.325513196480937,9.775171065493646
4.887585532746823,4.887585532746823,87.97653958944282,205.27859237536657,73.31378299120234,102.63929618768329,4.887585532746823
347.0185728250244,4.887585532746823,205.27859237536657,581.622678396872,48.87585532746823,327.4682306940371,9.775171065493646
73.31378299120234,332.35581622678393,34.21309872922776,259.04203323558164,24.437927663734115,43.98826979472141,24.437927663734115
131.96480938416423,112.41446725317694,97.75171065493646,855.327468230694,58.651026392961874,24.437927663734115,4.887585532746823
131.96480938416423,127.07722385141741,43.98826979472141,298.14271749755625,92.86412512218965,29.325513196480937,0.0
161.29032258064515,58.651026392961874,29.325513196480937,48.87585532746823,205.27859237536657,136.85239491691104,4.887585532746823
14.662756598240469,68.42619745845552,136.85239491691104,224.82893450635387,34.21309872922776,43.98826979472141,4.887585532746823
19.550342130987293,48.87585532746823,53.763440860215056,146.6275659824047,298.14271749755625,337.2434017595308,4.887585532746823
58.651026392961874,73.31378299120234,48.87585532746823,229.7165200391007,48.87585532746823,34.21309872922776,9.775171065493646
0.0,0.0,332.35581622678393,259.04203323558164,0.0,0.0,9.775171065493646
53.763440860215056,127.07722385141741,53.763440860215056,527.8592375366569,508.30889540566966,34.21309872922776,0.0
107.52688172043011,351.9061583577713,9.775171065493646,107.52688172043011,34.21309872922776,122.18963831867057,4.887585532746823
190.6158357771261,19.550342130987293,224.82893450635387,386.119257086999,312.8054740957967,24.437927663734115,0.0
29.325513196480937,107.52688172043011,356.7937438905181,205.27859237536657,73.31378299120234,146.6275659824047,4.887585532746823
63.53861192570871,39.100684261974585,146.6275659824047,9.775171065493646,9.775171065493646,19.550342130987293,0.0
4.887585532746823,9.775171065493646,43.98826979472141,581.622678396872,195.50342130987292,112.41446725317694,4.887585532746823
107.52688172043011,68.42619745845552,53.763440860215056,303.03030303030306,48.87585532746823,19.550342130987293,9.775171065493646
14.662756598240469,0.0,136.85239491691104,48.87585532746823,58.651026392961874,24.437927663734115,4.887585532746823
185.7282502443793,175.95307917888564,332.35581622678393,175.95307917888564,141.73998044965788,83.08895405669598,9.775171065493646
122.18963831867057,151.51515151515153,14.662756598240469,43.98826979472141,171.0654936461388,97.75171065493646,9.775171065493646
43.98826979472141,171.0654936461388,29.325513196480937,19.550342130987293,14.662756598240469,166.17790811339196,4.887585532746823
337.2434017595308,244.37927663734115,102.63929618768329,0.0,58.651026392961874,58.651026392961874,9.775171065493646
68.42619745845552,19.550342130987293,107.52688172043011,1695.9921798631474,171.0654936461388,19.550342130987293,14.662756598240469
14.662756598240469,342.1309872922776,322.5806451612903,48.87585532746823,68.42619745845552,34.21309872922776,0.0
263.92961876832845,68.42619745845552,68.42619745845552,821.1143695014663,58.651026392961874,244.37927663734115,4.887585532746823
43.98826979472141,576.7350928641251,141.73998044965788,63.53861192570871,156.40273704789834,43.98826979472141,0.0
19.550342130987293,19.550342130987293,14.662756598240469,4.887585532746823,58.651026392961874,161.29032258064515,4.887585532746823
92.86412512218965,131.96480938416423,122.18963831867057,0.0,34.21309872922776,19.550342130987293,4.887585532746823
4.887585532746823,454.54545454545456,127.07722385141741,503.42130987292273,73.31378299120234,117.30205278592375,0.0
63.53861192570871,43.98826979472141,219.94134897360706,557.1847507331378,92.86412512218965,39.100684261974585,9.775171065493646
156.40273704789834,19.550342130987293,156.40273704789834,219.94134897360706,53.763440860215056,136.85239491691104,4.887585532746823
117.30205278592375,508.30889540566966,107.52688172043011,112.41446725317694,317.6930596285435,87.97653958944282,4.887585532746823
156.40273704789834,29.325513196480937,112.41446725317694,141.73998044965788,117.30205278592375,63.53861192570871,0.0
48.87585532746823,0.0,180.84066471163246,43.98826979472141,14.662756598240469,210.16617790811338,4.887585532746823
9.775171065493646,166.17790811339196,112.41446725317694,1300.0977517106548,9.775171065493646,43.98826979472141,4.887585532746823
317.6930596285435,171.0654936461388,73.31378299120234,175.95307917888564,386.119257086999,19.550342130987293,9.775171065493646
73.31378299120234,171.0654936461388,48.87585532746823,107.52688172043011,127.07722385141741,83.08895405669598,0.0
97.75171065493646,29.325513196480937,205.27859237536657,83.08895405669598,19.550342130987293,19.550342130987293,4.887585532746823
19.550342130987293,107.52688172043011,112.41446725317694,537.6344086021505,48.87585532746823,278.5923753665689,4.887585532746823
9.775171065493646,14.662756598240469,58.651026392961874,259.04203323558164,171.0654936461388,43.98826979472141,9.775171065493646
371.4565004887586,268.81720430107526,73.31378299120234,24.437927663734115,92.86412512218965,92.86412512218965,9.775171065493646
87.97653958944282,87.97653958944282,0.0,24.437927663734115,117.30205278592375,58.651026392961874,0.0
9.775171065493646,39.100684261974585,185.7282502443793,263.92961876832845,14.662756598240469,24.437927663734115,0.0
0.0,224.82893450635387,332.35581622678393,503.42130987292273,161.29032258064515,263.92961876832845,9.775171065493646
195.50342130987292,244.37927663734115,39.100684261974585,391.00684261974584,19.550342130987293,68.42619745845552,9.775171065493646
161.29032258064515,97.75171065493646,4.887585532746823,29.325513196480937,92.86412512218965,78.20136852394917,4.887585532746823
9.775171065493646,14.662756598240469,146.6275659824047,1319.648093841642,92.86412512218965,24.437927663734115,0.0
87.97653958944282,679.3743890518084,141.73998044965788,200.39100684261973,97.75171065493646,151.51515151515153,4.887585532746823
29.325513196480937,136.85239491691104,127.07722385141741,29.325513196480937,14.662756598240469,166.17790811339196,9.775171065493646
112.41446725317694,9.775171065493646,9.775171065493646,434.99511241446726,327.4682306940371,53.763440860215056,4.887585532746823
24.437927663734115,43.98826979472141,215.05376344086022,73.31378299120234,34.21309872922776,4.887585532746823,9.775171065493646
58.651026392961874,9.775171065493646,87.97653958944282,249.26686217008796,83.08895405669598,205.27859237536657,0.0
48.87585532746823,4.887585532746823,34.21309872922776,391.00684261974584,78.20136852394917,73.31378299120234,4.887585532746823
469.208211143695,303.03030303030306,73.31378299120234,400.78201368523946,224.82893450635387,4.887585532746823,4.887585532746823
39.100684261974585,43.98826979472141,34.21309872922776,29.325513196480937,14.662756598240469,4.887585532746823,4.887585532746823
136.85239491691104,117.30205278592375,29.325513196480937,273.7047898338221,112.41446725317694,48.87585532746823,14.662756598240469
58.651026392961874,68.42619745845552,9.775171065493646,29.325513196480937,9.775171065493646,0.0,4.887585532746823
14.662756598240469,63.53861192570871,63.53861192570871,493.6461388074291,161.29032258064515,9.775171065493646,4.887585532746823
347.0185728250244,0.0,34.21309872922776,63.53861192570871,112.41446725317694,464.3206256109482,14.662756598240469
351.9061583577713,92.86412512218965,34.21309872922776,513.1964809384165,34.21309872922776,29.325513196480937,4.887585532746823
19.550342130987293,122.18963831867057,215.05376344086022,537.6344086021505,219.94134897360706,63.53861192570871,4.887585532746823
122.18963831867057,244.37927663734115,87.97653958944282,777.1260997067449,39.100684261974585,195.50342130987292,9.775171065493646
4.887585532746823,92.86412512218965,63.53861192570871,127.07722385141741,19.550342130987293,175.95307917888564,0.0
73.31378299120234,9.775171065493646,215.05376344086022,14.662756598240469,190.6158357771261,14.662756598240469,4.887585532746823
87.97653958944282,298.14271749755625,34.21309872922776,298.14271749755625,58.651026392961874,87.97653958944282,4.887585532746823
9.775171065493646,24.437927663734115,48.87585532746823,185.7282502443793,97.75171065493646,4.887585532746823,0.0
356.7937438905181,430.10752688172045,0.0,259.04203323558164,48.87585532746823,141.73998044965788,4.887585532746823
97.75171065493646,298.14271749755625,215.05376344086022,395.89442815249265,180.84066471163246,190.6158357771261,0.0
24.437927663734115,24.437927663734115,190.6158357771261,229.7165200391007,39.100684261974585,58.651026392961874,4.887585532746823
9.775171065493646,278.5923753665689,190.6158357771261,43.98826979472141,112.41446725317694,43.98826979472141,9.775171065493646
102.63929618768329,83.08895405669598,78.20136852394917,219.94134897360706,34.21309872922776,34.21309872922776,0.0
327.4682306940371,34.21309872922776,63.53861192570871,34.21309872922776,24.437927663734115,92.86412512218965,9.775171065493646
19.550342130987293,219.94134897360706,53.763440860215056,205.27859237536657,4.887585532746823,24.437927663734115,4.887585532746823
185.7282502443793,97.75171065493646,97.75171065493646,68.42619745845552,9.775171065493646,29.325513196480937,4.887585532746823
53.763440860215056,14.662756598240469,102.63929618768329,43.98826979472141,39.100684261974585,141.73998044965788,0.0
190.6158357771261,131.96480938416423,73.31378299120234,4.887585532746823,43.98826979472141,97.75171065493646,0.0
185.7282502443793,14.662756598240469,92.86412512218965,835.7771260997067,73.31378299120234,151.51515151515153,9.775171065493646
48.87585532746823,102.63929618768329,34.21309872922776,58.651026392961874,127.07722385141741,34.21309872922776,0.0
180.84066471163246,43.98826979472141,53.763440860215056,14.662756598240469,58.651026392961874,63.53861192570871,0.0
175.95307917888564,48.87585532746823,0.0,24.437927663734115,205.27859237536657,4.887585532746823,9.775171065493646
43.98826979472141,400.78201368523946,483.8709677419355,620.7233626588466,73.31378299120234,117.30205278592375,14.662756598240469
0.0,29.325513196480937,78.20136852394917,141.73998044965788,53.763440860215056,14.662756598240469,4.887585532746823
107.52688172043011,205.27859237536657,195.50342130987292,156.40273704789834,14.662756598240469,136.85239491691104,4.887585532746823
63.53861192570871,19.550342130987293,14.662756598240469,161.29032258064515,190.6158357771261,58.651026392961874,0.0
73.31378299120234,83.08895405669598,43.98826979472141,180.84066471163246,190.6158357771261,4.887585532746823,4.887585532746823
0.0,122.18963831867057,146.6275659824047,48.87585532746823,48.87585532746823,215.05376344086022,9.775171065493646
9.775171065493646,53.763440860215056,19.550342130987293,493.6461388074291,112.41446725317694,68.42619745845552,9.775171065493646
239.49169110459434,112.41446725317694,254.15444770283483,43.98826979472141,63.53861192570871,4.887585532746823,9.775171065493646
34.21309872922776,43.98826979472141,43.98826979472141,298.14271749755625,19.550342130987293,87.97653958944282,0.0
180.84066471163246,24.437927663734115,34.21309872922776,24.437927663734115,78.20136852394917,53.763440860215056,0.0
39.100684261974585,317.6930596285435,63.53861192570871,342.1309872922776,9.775171065493646,53.763440860215056,4.887585532746823
19.550342130987293,24.437927663734115,102.63929618768329,83.08895405669598,136.85239491691104,4.887585532746823,4.887585532746823
19.550342130987293,14.662756598240469,29.325513196480937,811.3391984359725,87.97653958944282,4.887585532746823,0.0
107.52688172043011,24.437927663734115,102.63929618768329,24.437927663734115,166.17790811339196,127.07722385141741,4.887585532746823
131.96480938416423,366.5689149560117,156.40273704789834,4.887585532746823,43.98826979472141,102.63929618768329,9.775171065493646
122.18963831867057,24.437927663734115,24.437927663734115,322.5806451612903,48.87585532746823,48.87585532746823,4.887585532746823
161.29032258064515,63.53861192570871,78.20136852394917,112.41446725317694,19.550342130987293,14.662756598240469,0.0
200.39100684261973,293.2551319648094,19.550342130987293,439.8826979472141,43.98826979472141,87.97653958944282,9.775171065493646
9.775171065493646,141.73998044965788,122.18963831867057,738.0254154447704,4.887585532746823,146.6275659824047,4.887585532746823
151.51515151515153,14.662756598240469,63.53861192570871,102.63929618768329,24.437927663734115,14.662756598240469,0.0
24.437927663734115,78.20136852394917,87.97653958944282,112.41446725317694,29.325513196480937,293.2551319648094,4.887585532746823
9.775171065493646,9.775171065493646,58.651026392961874,24.437927663734115,14.662756598240469,19.550342130987293,4.887585532746823
146.6275659824047,151.51515151515153,97.75171065493646,415.44477028347995,102.63929618768329,161.29032258064515,0.0
127.07722385141741,78.20136852394917,347.0185728250244,92.86412512218965,48.87585532746823,48.87585532746823,0.0
14.662756598240469,14.662756598240469,24.437927663734115,102.63929618768329,190.6158357771261,97.75171065493646,9.775171065493646
19.550342130987293,14.662756598240469,97.75171065493646,356.7937438905181,43.98826979472141,141.73998044965788,9.775171065493646
9.775171065493646,14.662756598240469,278.5923753665689,68.42619745845552,92.86412512218965,39.100684261974585,4.887585532746823
73.31378299120234,14.662756598240469,14.662756598240469,4.887585532746823,4.887585532746823,53.763440860215056,4.887585532746823
78.20136852394917,63.53861192570871,420.33235581622677,615.8357771260997,14.662756598240469,63.53861192570871,0.0
9.775171065493646,386.119257086999,254.15444770283483,53.763440860215056,219.94134897360706,9.775171065493646,9.775171065493646
43.98826979472141,131.96480938416423,19.550342130987293,762.4633431085044,68.42619745845552,156.40273704789834,9.775171065493646
4.887585532746823,9.775171065493646,14.662756598240469,24.437927663734115,83.08895405669598,87.97653958944282,9.775171065493646
151.51515151515153,9.775171065493646,43.98826979472141,112.41446725317694,102.63929618768329,14.662756598240469,4.887585532746823
83.08895405669598,34.21309872922776,219.94134897360706,83.08895405669598,24.437927663734115,34.21309872922776,4.887585532746823
73.31378299120234,146.6275659824047,24.437927663734115,43.98826979472141,19.550342130987293,24.437927663734115,0.0
78.20136852394917,9.775171065493646,58.651026392961874,73.31378299120234,92.86412512218965,141.73998044965788,9.775171065493646
63.53861192570871,9.775171065493646,29.325513196480937,439.8826979472141,19.550342130987293,107.52688172043011,4.887585532746823
14.662756598240469,34.21309872922776,141.73998044965788,39.100684261974585,4.887585532746823,9.775171065493646,9.775171065493646
141.73998044965788,73.31378299120234,298.14271749755625,53.763440860215056,210.16617790811338,39.100684261974585,4.887585532746823
24.437927663734115,39.100684261974585,14.662756598240469,151.51515151515153,254.15444770283483,19.550342130987293,4.887585532746823
83.08895405669598,4.887585532746823,48.87585532746823,4.887585532746823,127.07722385141741,58.651026392961874,4.887585532746823
263.92961876832845,83.08895405669598,53.763440860215056,933.5288367546432,14.662756598240469,29.325513196480937,9.775171065493646
14.662756598240469,312.8054740957967,9.775171065493646,58.651026392961874,19.550342130987293,63.53861192570871,4.887585532746823
4.887585532746823,97.75171065493646,249.26686217008796,156.40273704789834,24.437927663734115,29.325513196480937,9.775171065493646
283.47996089931576,19.550342130987293,53.763440860215056,259.04203323558164,43.98826979472141,166.17790811339196,4.887585532746823
146.6275659824047,34.21309872922776,34.21309872922776,288.36754643206257,87.97653958944282,29.325513196480937,4.887585532746823
29.325513196480937,9.775171065493646,136.85239491691104,263.92961876832845,131.96480938416423,24.437927663734115,9.775171065493646
83.08895405669598,596.2854349951125,92.86412512218965,87.97653958944282,63.53861192570871,92.86412512218965,9.775171065493646
210.16617790811338,24.437927663734115,68.42619745845552,175.95307917888564,87.97653958944282,24.437927663734115,4.887585532746823
29.325513196480937,19.550342130987293,210.16617790811338,24.437927663734115,48.87585532746823,9.775171065493646,0.0
58.651026392961874,87.97653958944282,29.325513196480937,4.887585532746823,4.887585532746823,97.75171065493646,0.0
14.662756598240469,29.325513196480937,92.86412512218965,166.17790811339196,14.662756598240469,19.550342130987293,4.887585532746823
63.53861192570871,87.97653958944282,102.63929618768329,190.6158357771261,195.50342130987292,48.87585532746823,0.0
34.21309872922776,19.550342130987293,151.51515151515153,63.53861192570871,53.763440860215056,83.08895405669598,4.887585532746823
127.07722385141741,9.775171065493646,127.07722385141741,259.04203323558164,136.85239491691104,58.651026392961874,0.0
43.98826979472141,151.51515151515153,9.775171065493646,68.42619745845552,68.42619745845552,117.30205278592375,0.0
166.17790811339196,73.31378299120234,4.887585532746823,48.87585532746823,78.20136852394917,83.08895405669598,0.0
185.7282502443793,68.42619745845552,87.97653958944282,92.86412512218965,102.63929618768329,58.651026392961874,4.887585532746823
14.662756598240469,9.775171065493646,53.763440860215056,131.96480938416423,4.887585532746823,146.6275659824047,14.662756598240469
29.325513196480937,9.775171065493646,68.42619745845552,195.50342130987292,63.53861192570871,9.775171065493646,14.662756598240469
0.0,29.325513196480937,97.75171065493646,439.8826979472141,83.08895405669598,19.550342130987293,4.887585532746823
102.63929618768329,4.887585532746823,4.887585532746823,39.100684261974585,151.51515151515153,14.662756598240469,0.0
43.98826979472141,620.7233626588466,127.07722385141741,107.52688172043011,34.21309872922776,73.31378299120234,0.0
53.763440860215056,73.31378299120234,9.775171065493646,34.21309872922776,4.887585532746823,136.85239491691104,4.887585532746823
29.325513196480937,19.550342130987293,14.662756598240469,0.0,63.53861192570871,29.325513196480937,4.887585532746823
244.37927663734115,244.37927663734115,78.20136852394917,224.82893450635387,97.75171065493646,34.21309872922776,9.775171065493646
175.95307917888564,97.75171065493646,166.17790811339196,127.07722385141741,34.21309872922776,29.325513196480937,9.775171065493646
14.662756598240469,39.100684261974585,19.550342130987293,78.20136852394917,14.662756598240469,117.30205278592375,4.887585532746823
48.87585532746823,210.16617790811338,83.08895405669598,9.775171065493646,58.651026392961874,400.78201368523946,0.0
34.21309872922776,58.651026392961874,14.662756598240469,1549.364613880743,73.31378299120234,34.21309872922776,9.775171065493646
24.437927663734115,4.887585532746823,9.775171065493646,200.39100684261973,78.20136852394917,14.662756598240469,4.887585532746823
9.775171065493646,48.87585532746823,73.31378299120234,244.37927663734115,161.29032258064515,58.651026392961874,0.0
161.29032258064515,63.53861192570871,161.29032258064515,14.662756598240469,156.40273704789834,48.87585532746823,0.0
39.100684261974585,9.775171065493646,39.100684261974585,483.8709677419355,14.662756598240469,210.16617790811338,4.887585532746823
9.775171065493646,131.96480938416423,127.07722385141741,63.53861192570871,24.437927663734115,9.775171065493646,0.0
249.26686217008796,97.75171065493646,34.21309872922776,483.8709677419355,229.7165200391007,73.31378299120234,9.775171065493646
19.550342130987293,303.03030303030306,9.775171065493646,141.73998044965788,87.97653958944282,9.775171065493646,4.887585532746823
342.1309872922776,151.51515151515153,97.75171065493646,307.91788856304987,39.100684261974585,92.86412512218965,4.887585532746823
190.6158357771261,29.325513196480937,73.31378299120234,39.100684261974585,4.887585532746823,122.18963831867057,4.887585532746823
24.437927663734115,24.437927663734115,43.98826979472141,469.208211143695,63.53861192570871,4.887585532746823,0.0
48.87585532746823,9.775171065493646,14.662756598240469,410.55718475073314,78.20136852394917,122.18963831867057,0.0
4.887585532746823,122.18963831867057,4.887585532746823,63.53861192570871,63.53861192570871,19.550342130987293,4.887585532746823
0.0,205.27859237536657,24.437927663734115,449.65786901270775,48.87585532746823,4.887585532746823,0.0
185.7282502443793,39.100684261974585,219.94134897360706,92.86412512218965,78.20136852394917,0.0,4.887585532746823
97.75171065493646,19.550342130987293,34.21309872922776,122.18963831867057,175.95307917888564,19.550342130987293,9.775171065493646
43.98826979472141,156.40273704789834,53.763440860215056,131.96480938416423,19.550342130987293,58.651026392961874,4.887585532746823
4.887585532746823,102.63929618768329,48.87585532746823,97.75171065493646,131.96480938416423,58.651026392961874,4.887585532746823
102.63929618768329,9.775171065493646,9.775171065493646,53.763440860215056,127.07722385141741,107.52688172043011,9.775171065493646
34.21309872922776,97.75171065493646,117.30205278592375,288.36754643206257,4.887585532746823,112.41446725317694,4.887585532746823
87.97653958944282,39.100684261974585,122.18963831867057,63.53861192570871,136.85239491691104,9.775171065493646,0.0
14.662756598240469,156.40273704789834,48.87585532746823,606.0606060606061,9.775171065493646,156.40273704789834,9.775171065493646
48.87585532746823,161.29032258064515,4.887585532746823,19.550342130987293,24.437927663734115,87.97653958944282,0.0
83.08895405669598,43.98826979472141,78.20136852394917,337.2434017595308,107.52688172043011,9.775171065493646,4.887585532746823
14.662756598240469,4.887585532746823,9.775171065493646,48.87585532746823,48.87585532746823,24.437927663734115,4.887585532746823
151.51515151515153,127.07722385141741,29.325513196480937,156.40273704789834,122.18963831867057,9.775171065493646,9.775171065493646
14.662756598240469,24.437927663734115,127.07722385141741,185.7282502443793,83.08895405669598,4.887585532746823,0.0
4.887585532746823,156.40273704789834,14.662756598240469,19.550342130987293,4.887585532746823,0.0,4.887585532746823
239.49169110459434,48.87585532746823,131.96480938416423,53.763440860215056,14.662756598240469,63.53861192570871,0.0
117.30205278592375,420.33235581622677,48.87585532746823,4.887585532746823,43.98826979472141,127.07722385141741,4.887585532746823
127.07722385141741,112.41446725317694,24.437927663734115,19.550342130987293,122.18963831867057,14.662756598240469,9.775171065493646
39.100684261974585,4.887585532746823,112.41446725317694,107.52688172043011,34.21309872922776,83.08895405669598,4.887585532746823
127.07722385141741,229.7165200391007,24.437927663734115,332.35581622678393,9.775171065493646,63.53861192570871,4.887585532746823
