HandOpen,HandClose,Wrist Flexion,Wrist Extension,Supination,Pronation,Rest
581.622678396872,562.0723362658846,395.89442815249265,4.887585532746823,107.52688172043011,97.75171065493646,4.887585532746823
615.8357771260997,850.4398826979472,723.3626588465298,4.887585532746823,43.98826979472141,39.100684261974585,24.437927663734115
503.42130987292273,972.6295210166178,938.41642228739,4.887585532746823,24.437927663734115,19.550342130987293,161.29032258064515
317.6930596285435,869.9902248289345,967.741935483871,34.21309872922776,4.887585532746823,14.662756598240469,298.14271749755625
131.96480938416423,610.9481915933529,821.1143695014663,361.6813294232649,4.887585532746823,4.887585532746823,371.4565004887586
58.651026392961874,268.81720430107526,518.0840664711633,772.238514173998,9.775171065493646,9.775171065493646,381.2316715542522
29.325513196480937,112.41446725317694,210.16617790811338,1070.3812316715544,43.98826979472141,24.437927663734115,307.91788856304987
4.887585532746823,43.98826979472141,87.97653958944282,1148.5826001955033,293.2551319648094,273.7047898338221,175.95307917888564
4.887585532746823,19.550342130987293,43.98826979472141,967.741935483871,591.3978494623656,571.8475073313783,73.31378299120234
4.887585532746823,9.775171065493646,19.550342130987293,650.0488758553274,796.6764418377321,777.1260997067449,24.437927663734115
4.887585532746823,0.0,4.887585532746823,263.92961876832845,835.7771260997067,821.1143695014663,14.662756598240469
73.31378299120234,4.887585532746823,4.887585532746823,117.30205278592375,679.3743890518084,689.149560117302,4.887585532746823
288.36754643206257,43.98826979472141,0.0,43.98826979472141,430.10752688172045,449.65786901270775,4.887585532746823
532.7468230694037,361.6813294232649,180.84066471163246,19.550342130987293,171.0654936461388,195.50342130987292,4.887585532746823
640.2737047898338,698.9247311827957,532.7468230694037,4.887585532746823,83.08895405669598,73.31378299120234,9.775171065493646
630.4985337243402,928.6412512218964,874.8778103616814,9.775171065493646,29.325513196480937,39.100684261974585,48.87585532746823
474.0957966764418,977.5171065493646,987.2922776148582,4.887585532746823,14.662756598240469,14.662756598240469,190.6158357771261
254.15444770283483,796.6764418377321,933.5288367546432,107.52688172043011,9.775171065493646,9.775171065493646,322.5806451612903
102.63929618768329,503.42130987292273,694.0371456500488,478.9833822091887,9.775171065493646,4.887585532746823,395.89442815249265
39.100684261974585,205.27859237536657,347.0185728250244,879.7653958944283,4.887585532746823,9.775171065493646,376.3440860215054
19.550342130987293,87.97653958944282,136.85239491691104,1094.8191593352883,102.63929618768329,92.86412512218965,278.5923753665689
4.887585532746823,34.21309872922776,53.763440860215056,1089.9315738025416,405.6695992179863,361.6813294232649,151.51515151515153
9.775171065493646,4.887585532746823,14.662756598240469,845.5522971652003,694.0371456500488,601.1730205278593,68.42619745845552
0.0,58.651026392961874,410.55718475073314,219.94134897360706,806.4516129032257,767.3509286412512,24.437927663734115
4.887585532746823,957.9667644183774,913.9784946236559,9.775171065493646,772.238514173998,747.800586510264,9.775171065493646
503.42130987292273,122.18963831867057,53.763440860215056,4.887585532746823,78.20136852394917,78.20136852394917,9.775171065493646
234.6041055718475,9.775171065493646,9.775171065493646,855.327468230694,9.775171065493646,0.0,9.775171065493646
14.662756598240469,48.87585532746823,400.78201368523946,478.9833822091887,83.08895405669598,83.08895405669598,4.887585532746823
4.887585532746823,972.6295210166178,933.5288367546432,29.325513196480937,830.8895405669599,747.800586510264,273.7047898338221
347.0185728250244,127.07722385141741,58.651026392961874,0.0,87.97653958944282,68.42619745845552,293.2551319648094
552.297165200391,9.775171065493646,0.0,518.0840664711633,4.887585532746823,9.775171065493646,29.325513196480937
29.325513196480937,48.87585532746823,395.89442815249265,830.8895405669599,68.42619745845552,78.20136852394917,4.887585532746823
4.887585532746823,933.5288367546432,957.9667644183774,24.437927663734115,855.327468230694,796.6764418377321,29.325513196480937
146.6275659824047,136.85239491691104,53.763440860215056,9.775171065493646,92.86412512218965,87.97653958944282,347.0185728250244
645.1612903225806,9.775171065493646,4.887585532746823,522.9716520039101,9.775171065493646,4.887585532746823,190.6158357771261
53.763440860215056,43.98826979472141,420.33235581622677,811.3391984359725,53.763440860215056,83.08895405669598,4.887585532746823
0.0,845.5522971652003,928.6412512218964,29.325513196480937,850.4398826979472,747.800586510264,4.887585532746823
127.07722385141741,278.5923753665689,53.763440860215056,4.887585532746823,92.86412512218965,68.42619745845552,136.85239491691104
610.9481915933529,14.662756598240469,4.887585532746823,508.30889540566966,4.887585532746823,14.662756598240469,371.4565004887586
48.87585532746823,4.887585532746823,391.00684261974584,826.0019550342131,83.08895405669598,83.08895405669598,43.98826979472141
0.0,552.297165200391,933.5288367546432,24.437927663734115,855.327468230694,801.5640273704789,4.887585532746823
122.18963831867057,581.622678396872,43.98826979472141,9.775171065493646,92.86412512218965,92.86412512218965,0.0
620.7233626588466,14.662756598240469,4.887585532746823,493.6461388074291,4.887585532746823,9.775171065493646,283.47996089931576
53.763440860215056,9.775171065493646,136.85239491691104,821.1143695014663,73.31378299120234,58.651026392961874,293.2551319648094
4.887585532746823,586.5102639296188,1060.6060606060607,24.437927663734115,840.6647116324535,777.1260997067449,14.662756598240469
117.30205278592375,571.8475073313783,112.41446725317694,4.887585532746823,102.63929618768329,83.08895405669598,0.0
645.1612903225806,14.662756598240469,0.0,483.8709677419355,4.887585532746823,9.775171065493646,29.325513196480937
58.651026392961874,4.887585532746823,117.30205278592375,1050.830889540567,63.53861192570871,78.20136852394917,351.9061583577713
0.0,562.0723362658846,1006.8426197458455,63.53861192570871,855.327468230694,796.6764418377321,180.84066471163246
122.18963831867057,591.3978494623656,112.41446725317694,0.0,102.63929618768329,83.08895405669598,14.662756598240469
635.386119257087,14.662756598240469,0.0,459.4330400782014,4.887585532746823,4.887585532746823,0.0
58.651026392961874,9.775171065493646,92.86412512218965,1070.3812316715544,63.53861192570871,83.08895405669598,141.73998044965788
4.887585532746823,562.0723362658846,1080.156402737048,68.42619745845552,855.327468230694,752.6881720430108,386.119257086999
122.18963831867057,620.7233626588466,107.52688172043011,9.775171065493646,102.63929618768329,73.31378299120234,48.87585532746823
615.8357771260997,14.662756598240469,9.775171065493646,459.4330400782014,4.887585532746823,9.775171065493646,4.887585532746823
53.763440860215056,4.887585532746823,107.52688172043011,1055.7184750733138,39.100684261974585,92.86412512218965,29.325513196480937
9.775171065493646,552.297165200391,977.5171065493646,63.53861192570871,752.6881720430108,777.1260997067449,361.6813294232649
122.18963831867057,606.0606060606061,122.18963831867057,4.887585532746823,273.7047898338221,83.08895405669598,200.39100684261973
650.0488758553274,14.662756598240469,9.775171065493646,464.3206256109482,9.775171065493646,9.775171065493646,14.662756598240469
53.763440860215056,4.887585532746823,78.20136852394917,1080.156402737048,4.887585532746823,29.325513196480937,4.887585532746823
4.887585532746823,527.8592375366569,982.4046920821114,63.53861192570871,518.0840664711633,694.0371456500488,131.96480938416423
112.41446725317694,615.8357771260997,107.52688172043011,4.887585532746823,439.8826979472141,219.94134897360706,356.7937438905181
635.386119257087,14.662756598240469,4.887585532746823,464.3206256109482,29.325513196480937,14.662756598240469,48.87585532746823
58.651026392961874,4.887585532746823,73.31378299120234,1089.9315738025416,9.775171065493646,0.0,9.775171065493646
4.887585532746823,537.6344086021505,977.5171065493646,58.651026392961874,254.15444770283483,518.0840664711633,29.325513196480937
131.96480938416423,610.9481915933529,122.18963831867057,4.887585532746823,821.1143695014663,386.119257086999,366.5689149560117
635.386119257087,19.550342130987293,0.0,444.77028347996094,48.87585532746823,29.325513196480937,205.27859237536657
53.763440860215056,9.775171065493646,73.31378299120234,1089.9315738025416,0.0,9.775171065493646,14.662756598240469
4.887585532746823,527.8592375366569,1006.8426197458455,63.53861192570871,259.04203323558164,278.5923753665689,9.775171065493646
117.30205278592375,659.824046920821,112.41446725317694,4.887585532746823,826.0019550342131,762.4633431085044,131.96480938416423
640.2737047898338,19.550342130987293,4.887585532746823,434.99511241446726,53.763440860215056,43.98826979472141,371.4565004887586
53.763440860215056,9.775171065493646,102.63929618768329,1094.8191593352883,0.0,4.887585532746823,48.87585532746823
4.887585532746823,522.9716520039101,967.741935483871,68.42619745845552,259.04203323558164,63.53861192570871,0.0
107.52688172043011,645.1612903225806,107.52688172043011,4.887585532746823,821.1143695014663,762.4633431085044,29.325513196480937
635.386119257087,19.550342130987293,9.775171065493646,430.10752688172045,48.87585532746823,92.86412512218965,361.6813294232649
58.651026392961874,0.0,63.53861192570871,1099.7067448680352,0.0,9.775171065493646,200.39100684261973
9.775171065493646,508.30889540566966,948.1915933528836,63.53861192570871,244.37927663734115,34.21309872922776,14.662756598240469
92.86412512218965,635.386119257087,131.96480938416423,0.0,806.4516129032257,669.5992179863147,9.775171065493646
645.1612903225806,9.775171065493646,9.775171065493646,425.2199413489736,58.651026392961874,161.29032258064515,117.30205278592375
68.42619745845552,4.887585532746823,48.87585532746823,1094.8191593352883,4.887585532746823,9.775171065493646,376.3440860215054
4.887585532746823,488.7585532746823,1089.9315738025416,63.53861192570871,234.6041055718475,9.775171065493646,48.87585532746823
112.41446725317694,650.0488758553274,122.18963831867057,9.775171065493646,801.5640273704789,581.622678396872,4.887585532746823
640.2737047898338,14.662756598240469,9.775171065493646,405.6695992179863,53.763440860215056,391.00684261974584,29.325513196480937
63.53861192570871,4.887585532746823,43.98826979472141,1129.032258064516,0.0,19.550342130987293,342.1309872922776
9.775171065493646,488.7585532746823,869.9902248289345,63.53861192570871,234.6041055718475,9.775171065493646,205.27859237536657
117.30205278592375,659.824046920821,268.81720430107526,9.775171065493646,767.3509286412512,224.82893450635387,14.662756598240469
640.2737047898338,19.550342130987293,9.775171065493646,405.6695992179863,53.763440860215056,762.4633431085044,0.0
68.42619745845552,9.775171065493646,4.887585532746823,1094.8191593352883,9.775171065493646,53.763440860215056,122.18963831867057
4.887585532746823,478.9833822091887,620.7233626588466,68.42619745845552,234.6041055718475,4.887585532746823,371.4565004887586
92.86412512218965,855.327468230694,571.8475073313783,0.0,821.1143695014663,263.92961876832845,48.87585532746823
635.386119257087,34.21309872922776,9.775171065493646,410.55718475073314,53.763440860215056,747.800586510264,4.887585532746823
58.651026392961874,9.775171065493646,4.887585532746823,1109.4819159335289,4.887585532746823,48.87585532746823,24.437927663734115
0.0,175.95307917888564,659.824046920821,58.651026392961874,215.05376344086022,9.775171065493646,351.9061583577713
122.18963831867057,967.741935483871,562.0723362658846,9.775171065493646,796.6764418377321,288.36754643206257,200.39100684261973
659.824046920821,87.97653958944282,14.662756598240469,395.89442815249265,53.763440860215056,767.3509286412512,9.775171065493646
58.651026392961874,4.887585532746823,4.887585532746823,1099.7067448680352,9.775171065493646,53.763440860215056,0.0
4.887585532746823,171.0654936461388,606.0606060606061,68.42619745845552,259.04203323558164,0.0,117.30205278592375
117.30205278592375,953.0791788856305,557.1847507331378,4.887585532746823,835.7771260997067,249.26686217008796,371.4565004887586
659.824046920821,92.86412512218965,14.662756598240469,381.2316715542522,53.763440860215056,801.5640273704789,53.763440860215056
58.651026392961874,9.775171065493646,0.0,1109.4819159335289,4.887585532746823,53.763440860215056,4.887585532746823
4.887585532746823,161.29032258064515,757.5757575757576,73.31378299120234,205.27859237536657,4.887585532746823,14.662756598240469
117.30205278592375,977.5171065493646,547.4095796676442,0.0,830.8895405669599,244.37927663734115,322.5806451612903
669.5992179863147,92.86412512218965,14.662756598240469,361.6813294232649,58.651026392961874,742.9130009775172,219.94134897360706
63.53861192570871,4.887585532746823,9.775171065493646,1099.7067448680352,0.0,48.87585532746823,14.662756598240469
4.887585532746823,141.73998044965788,610.9481915933529,78.20136852394917,205.27859237536657,9.775171065493646,9.775171065493646
87.97653958944282,972.6295210166178,557.1847507331378,4.887585532746823,879.7653958944283,244.37927663734115,117.30205278592375
630.4985337243402,92.86412512218965,19.550342130987293,376.3440860215054,63.53861192570871,742.9130009775172,371.4565004887586
58.651026392961874,14.662756598240469,4.887585532746823,1138.8074291300097,9.775171065493646,53.763440860215056,53.763440860215056
4.887585532746823,151.51515151515153,547.4095796676442,68.42619745845552,190.6158357771261,4.887585532746823,9.775171065493646
102.63929618768329,957.9667644183774,742.9130009775172,9.775171065493646,762.4633431085044,244.37927663734115,29.325513196480937
650.0488758553274,87.97653958944282,19.550342130987293,361.6813294232649,53.763440860215056,786.9012707722385,342.1309872922776
58.651026392961874,4.887585532746823,4.887585532746823,1129.032258064516,9.775171065493646,48.87585532746823,185.7282502443793
4.887585532746823,131.96480938416423,542.5219941348973,78.20136852394917,210.16617790811338,4.887585532746823,14.662756598240469
102.63929618768329,957.9667644183774,625.6109481915934,9.775171065493646,840.6647116324535,239.49169110459434,4.887585532746823
650.0488758553274,87.97653958944282,19.550342130987293,356.7937438905181,68.42619745845552,762.4633431085044,117.30205278592375
58.651026392961874,4.887585532746823,4.887585532746823,1099.7067448680352,9.775171065493646,58.651026392961874,366.5689149560117
4.887585532746823,131.96480938416423,566.9599217986315,83.08895405669598,171.0654936461388,4.887585532746823,53.763440860215056
92.86412512218965,967.741935483871,527.8592375366569,9.775171065493646,811.3391984359725,195.50342130987292,9.775171065493646
659.824046920821,102.63929618768329,9.775171065493646,361.6813294232649,63.53861192570871,757.5757575757576,19.550342130987293
73.31378299120234,4.887585532746823,4.887585532746823,1114.3695014662756,0.0,53.763440860215056,332.35581622678393
4.887585532746823,131.96480938416423,645.1612903225806,78.20136852394917,210.16617790811338,0.0,210.16617790811338
87.97653958944282,967.741935483871,586.5102639296188,9.775171065493646,879.7653958944283,229.7165200391007,4.887585532746823
630.4985337243402,102.63929618768329,14.662756598240469,337.2434017595308,53.763440860215056,816.2267839687195,4.887585532746823
63.53861192570871,4.887585532746823,0.0,1133.919843597263,4.887585532746823,53.763440860215056,117.30205278592375
9.775171065493646,117.30205278592375,596.2854349951125,83.08895405669598,190.6158357771261,9.775171065493646,366.5689149560117
97.75171065493646,967.741935483871,571.8475073313783,9.775171065493646,826.0019550342131,205.27859237536657,43.98826979472141
654.9364613880742,97.75171065493646,14.662756598240469,322.5806451612903,53.763440860215056,767.3509286412512,4.887585532746823
68.42619745845552,9.775171065493646,9.775171065493646,1129.032258064516,0.0,53.763440860215056,0.0
4.887585532746823,117.30205278592375,586.5102639296188,83.08895405669598,219.94134897360706,0.0,239.49169110459434
92.86412512218965,962.8543499511242,601.1730205278593,0.0,860.2150537634409,215.05376344086022,293.2551319648094
689.149560117302,102.63929618768329,14.662756598240469,327.4682306940371,58.651026392961874,791.7888563049853,19.550342130987293
63.53861192570871,4.887585532746823,4.887585532746823,1119.2570869990225,0.0,48.87585532746823,4.887585532746823
4.887585532746823,112.41446725317694,596.2854349951125,78.20136852394917,166.17790811339196,4.887585532746823,14.662756598240469
83.08895405669598,953.0791788856305,596.2854349951125,4.887585532746823,806.4516129032257,210.16617790811338,342.1309872922776
659.824046920821,102.63929618768329,19.550342130987293,322.5806451612903,73.31378299120234,801.5640273704789,234.6041055718475
68.42619745845552,9.775171065493646,0.0,1124.1446725317692,4.887585532746823,58.651026392961874,19.550342130987293
9.775171065493646,87.97653958944282,596.2854349951125,78.20136852394917,171.0654936461388,9.775171065493646,4.887585532746823
87.97653958944282,957.9667644183774,581.622678396872,0.0,826.0019550342131,180.84066471163246,117.30205278592375
650.0488758553274,107.52688172043011,14.662756598240469,307.91788856304987,73.31378299120234,772.238514173998,361.6813294232649
73.31378299120234,4.887585532746823,4.887585532746823,1114.3695014662756,0.0,63.53861192570871,48.87585532746823
4.887585532746823,87.97653958944282,601.1730205278593,83.08895405669598,146.6275659824047,9.775171065493646,9.775171065493646
87.97653958944282,957.9667644183774,659.824046920821,9.775171065493646,835.7771260997067,171.0654936461388,29.325513196480937
654.9364613880742,107.52688172043011,14.662756598240469,312.8054740957967,63.53861192570871,747.800586510264,347.0185728250244
68.42619745845552,14.662756598240469,4.887585532746823,1168.1329423264906,0.0,58.651026392961874,200.39100684261973
4.887585532746823,83.08895405669598,576.7350928641251,78.20136852394917,185.7282502443793,4.887585532746823,9.775171065493646
92.86412512218965,953.0791788856305,620.7233626588466,9.775171065493646,826.0019550342131,161.29032258064515,9.775171065493646
654.9364613880742,112.41446725317694,14.662756598240469,283.47996089931576,68.42619745845552,738.0254154447704,107.52688172043011
68.42619745845552,4.887585532746823,9.775171065493646,1129.032258064516,0.0,63.53861192570871,366.5689149560117
4.887585532746823,78.20136852394917,586.5102639296188,83.08895405669598,161.29032258064515,4.887585532746823,43.98826979472141
92.86412512218965,957.9667644183774,610.9481915933529,4.887585532746823,816.2267839687195,171.0654936461388,14.662756598240469
650.0488758553274,117.30205278592375,19.550342130987293,288.36754643206257,63.53861192570871,791.7888563049853,9.775171065493646
63.53861192570871,4.887585532746823,0.0,1119.2570869990225,0.0,48.87585532746823,219.94134897360706
4.887585532746823,78.20136852394917,566.9599217986315,83.08895405669598,151.51515151515153,9.775171065493646,317.6930596285435
92.86412512218965,967.741935483871,596.2854349951125,0.0,791.7888563049853,180.84066471163246,24.437927663734115
669.5992179863147,122.18963831867057,19.550342130987293,278.5923753665689,63.53861192570871,816.2267839687195,0.0
78.20136852394917,4.887585532746823,9.775171065493646,1124.1446725317692,4.887585532746823,68.42619745845552,9.775171065493646
4.887585532746823,68.42619745845552,581.622678396872,87.97653958944282,117.30205278592375,4.887585532746823,332.35581622678393
97.75171065493646,953.0791788856305,659.824046920821,9.775171065493646,786.9012707722385,161.29032258064515,200.39100684261973
659.824046920821,117.30205278592375,19.550342130987293,288.36754643206257,68.42619745845552,713.5874877810362,9.775171065493646
68.42619745845552,9.775171065493646,9.775171065493646,1124.1446725317692,0.0,58.651026392961874,4.887585532746823
4.887585532746823,63.53861192570871,542.5219941348973,87.97653958944282,161.29032258064515,4.887585532746823,117.30205278592375
73.31378299120234,967.741935483871,620.7233626588466,4.887585532746823,845.5522971652003,190.6158357771261,381.2316715542522
640.2737047898338,117.30205278592375,9.775171065493646,254.15444770283483,68.42619745845552,796.6764418377321,43.98826979472141
68.42619745845552,4.887585532746823,0.0,1163.245356793744,4.887585532746823,68.42619745845552,4.887585532746823
4.887585532746823,58.651026392961874,537.6344086021505,92.86412512218965,146.6275659824047,0.0,9.775171065493646
83.08895405669598,967.741935483871,625.6109481915934,4.887585532746823,826.0019550342131,156.40273704789834,244.37927663734115
650.0488758553274,131.96480938416423,24.437927663734115,244.37927663734115,87.97653958944282,816.2267839687195,307.91788856304987
68.42619745845552,14.662756598240469,4.887585532746823,1114.3695014662756,9.775171065493646,68.42619745845552,19.550342130987293
9.775171065493646,43.98826979472141,537.6344086021505,97.75171065493646,127.07722385141741,4.887585532746823,4.887585532746823
87.97653958944282,835.7771260997067,640.2737047898338,0.0,830.8895405669599,127.07722385141741,19.550342130987293
669.5992179863147,268.81720430107526,14.662756598240469,239.49169110459434,73.31378299120234,786.9012707722385,351.9061583577713
68.42619745845552,14.662756598240469,9.775171065493646,1153.4701857282503,9.775171065493646,68.42619745845552,215.05376344086022
0.0,4.887585532746823,522.9716520039101,97.75171065493646,131.96480938416423,4.887585532746823,14.662756598240469
83.08895405669598,591.3978494623656,620.7233626588466,4.887585532746823,826.0019550342131,146.6275659824047,9.775171065493646
654.9364613880742,547.4095796676442,19.550342130987293,239.49169110459434,73.31378299120234,782.0136852394917,117.30205278592375
68.42619745845552,19.550342130987293,9.775171065493646,1143.6950146627566,4.887585532746823,68.42619745845552,381.2316715542522
9.775171065493646,4.887585532746823,478.9833822091887,97.75171065493646,156.40273704789834,9.775171065493646,48.87585532746823
83.08895405669598,596.2854349951125,972.6295210166178,4.887585532746823,811.3391984359725,151.51515151515153,4.887585532746823
650.0488758553274,557.1847507331378,39.100684261974585,200.39100684261973,73.31378299120234,821.1143695014663,19.550342130987293
78.20136852394917,14.662756598240469,9.775171065493646,1226.7839687194526,9.775171065493646,73.31378299120234,332.35581622678393
4.887585532746823,4.887585532746823,224.82893450635387,112.41446725317694,107.52688172043011,0.0,224.82893450635387
73.31378299120234,571.8475073313783,987.2922776148582,4.887585532746823,850.4398826979472,141.73998044965788,14.662756598240469
625.6109481915934,566.9599217986315,73.31378299120234,210.16617790811338,78.20136852394917,830.8895405669599,4.887585532746823
68.42619745845552,24.437927663734115,9.775171065493646,1133.919843597263,4.887585532746823,73.31378299120234,87.97653958944282
9.775171065493646,0.0,200.39100684261973,107.52688172043011,87.97653958944282,9.775171065493646,395.89442815249265
87.97653958944282,566.9599217986315,948.1915933528836,9.775171065493646,806.4516129032257,122.18963831867057,58.651026392961874
615.8357771260997,591.3978494623656,87.97653958944282,205.27859237536657,68.42619745845552,801.5640273704789,0.0
58.651026392961874,14.662756598240469,0.0,1124.1446725317692,9.775171065493646,63.53861192570871,9.775171065493646
9.775171065493646,4.887585532746823,249.26686217008796,102.63929618768329,166.17790811339196,4.887585532746823,322.5806451612903
83.08895405669598,557.1847507331378,1070.3812316715544,4.887585532746823,791.7888563049853,141.73998044965788,219.94134897360706
664.7116324535679,586.5102639296188,83.08895405669598,224.82893450635387,78.20136852394917,796.6764418377321,14.662756598240469
68.42619745845552,14.662756598240469,4.887585532746823,1148.5826001955033,9.775171065493646,78.20136852394917,4.887585532746823
9.775171065493646,9.775171065493646,219.94134897360706,102.63929618768329,92.86412512218965,9.775171065493646,117.30205278592375
78.20136852394917,562.0723362658846,1006.8426197458455,4.887585532746823,845.5522971652003,97.75171065493646,391.00684261974584
659.824046920821,606.0606060606061,73.31378299120234,200.39100684261973,87.97653958944282,796.6764418377321,48.87585532746823
73.31378299120234,19.550342130987293,9.775171065493646,1148.5826001955033,0.0,73.31378299120234,4.887585532746823
9.775171065493646,4.887585532746823,205.27859237536657,112.41446725317694,107.52688172043011,9.775171065493646,19.550342130987293
87.97653958944282,552.297165200391,1006.8426197458455,4.887585532746823,845.5522971652003,112.41446725317694,332.35581622678393
654.9364613880742,586.5102639296188,83.08895405669598,161.29032258064515,92.86412512218965,801.5640273704789,224.82893450635387
73.31378299120234,9.775171065493646,9.775171065493646,1153.4701857282503,9.775171065493646,73.31378299120234,14.662756598240469
9.775171065493646,4.887585532746823,239.49169110459434,127.07722385141741,92.86412512218965,9.775171065493646,4.887585532746823
92.86412512218965,537.6344086021505,1026.392961876833,9.775171065493646,840.6647116324535,92.86412512218965,107.52688172043011
669.5992179863147,606.0606060606061,87.97653958944282,166.17790811339196,102.63929618768329,747.800586510264,405.6695992179863
73.31378299120234,14.662756598240469,9.775171065493646,1114.3695014662756,9.775171065493646,73.31378299120234,58.651026392961874
4.887585532746823,4.887585532746823,200.39100684261973,102.63929618768329,73.31378299120234,9.775171065493646,4.887585532746823
68.42619745845552,542.5219941348973,982.4046920821114,4.887585532746823,835.7771260997067,127.07722385141741,14.662756598240469
664.7116324535679,625.6109481915934,78.20136852394917,166.17790811339196,97.75171065493646,762.4633431085044,322.5806451612903
78.20136852394917,19.550342130987293,0.0,1129.032258064516,0.0,73.31378299120234,234.6041055718475
4.887585532746823,4.887585532746823,215.05376344086022,107.52688172043011,83.08895405669598,0.0,14.662756598240469
73.31378299120234,513.1964809384165,987.2922776148582,0.0,835.7771260997067,92.86412512218965,9.775171065493646
650.0488758553274,615.8357771260997,78.20136852394917,175.95307917888564,87.97653958944282,782.0136852394917,97.75171065493646
87.97653958944282,19.550342130987293,4.887585532746823,1133.919843597263,4.887585532746823,78.20136852394917,395.89442815249265
9.775171065493646,9.775171065493646,200.39100684261973,117.30205278592375,78.20136852394917,0.0,63.53861192570871
73.31378299120234,513.1964809384165,977.5171065493646,9.775171065493646,821.1143695014663,102.63929618768329,9.775171065493646
659.824046920821,654.9364613880742,83.08895405669598,151.51515151515153,87.97653958944282,762.4633431085044,9.775171065493646
78.20136852394917,14.662756598240469,4.887585532746823,1124.1446725317692,9.775171065493646,63.53861192570871,351.9061583577713
9.775171065493646,4.887585532746823,200.39100684261973,122.18963831867057,87.97653958944282,4.887585532746823,254.15444770283483
58.651026392961874,513.1964809384165,972.6295210166178,0.0,801.5640273704789,92.86412512218965,14.662756598240469
684.2619745845552,635.386119257087,87.97653958944282,151.51515151515153,83.08895405669598,777.1260997067449,0.0
78.20136852394917,19.550342130987293,0.0,1129.032258064516,4.887585532746823,78.20136852394917,92.86412512218965
4.887585532746823,9.775171065493646,141.73998044965788,112.41446725317694,87.97653958944282,4.887585532746823,386.119257086999
78.20136852394917,498.5337243401759,1065.4936461388074,4.887585532746823,786.9012707722385,112.41446725317694,58.651026392961874
645.1612903225806,664.7116324535679,112.41446725317694,136.85239491691104,92.86412512218965,796.6764418377321,4.887585532746823
78.20136852394917,19.550342130987293,4.887585532746823,1143.6950146627566,4.887585532746823,78.20136852394917,9.775171065493646
4.887585532746823,4.887585532746823,190.6158357771261,131.96480938416423,78.20136852394917,9.775171065493646,342.1309872922776
63.53861192570871,483.8709677419355,1006.8426197458455,4.887585532746823,811.3391984359725,97.75171065493646,249.26686217008796
654.9364613880742,879.7653958944283,83.08895405669598,127.07722385141741,83.08895405669598,791.7888563049853,19.550342130987293
78.20136852394917,48.87585532746823,4.887585532746823,1143.6950146627566,0.0,92.86412512218965,9.775171065493646
4.887585532746823,4.887585532746823,166.17790811339196,122.18963831867057,63.53861192570871,9.775171065493646,92.86412512218965
73.31378299120234,488.7585532746823,1001.9550342130987,9.775171065493646,826.0019550342131,83.08895405669598,386.119257086999
669.5992179863147,664.7116324535679,83.08895405669598,141.73998044965788,97.75171065493646,806.4516129032257,58.651026392961874
83.08895405669598,19.550342130987293,0.0,1153.4701857282503,9.775171065493646,78.20136852394917,9.775171065493646
0.0,9.775171065493646,161.29032258064515,122.18963831867057,58.651026392961874,9.775171065493646,4.887585532746823
68.42619745845552,459.4330400782014,1045.9433040078202,4.887585532746823,796.6764418377321,87.97653958944282,327.4682306940371
645.1612903225806,869.9902248289345,107.52688172043011,131.96480938416423,107.52688172043011,796.6764418377321,229.7165200391007
78.20136852394917,43.98826979472141,4.887585532746823,1129.032258064516,9.775171065493646,87.97653958944282,9.775171065493646
4.887585532746823,4.887585532746823,141.73998044965788,122.18963831867057,39.100684261974585,0.0,0.0
53.763440860215056,161.29032258064515,982.4046920821114,9.775171065493646,703.8123167155426,68.42619745845552,87.97653958944282
645.1612903225806,982.4046920821114,87.97653958944282,112.41446725317694,200.39100684261973,782.0136852394917,386.119257086999
87.97653958944282,83.08895405669598,0.0,1158.357771260997,9.775171065493646,87.97653958944282,58.651026392961874
9.775171065493646,0.0,161.29032258064515,131.96480938416423,4.887585532746823,9.775171065493646,14.662756598240469
58.651026392961874,161.29032258064515,977.5171065493646,14.662756598240469,488.7585532746823,63.53861192570871,4.887585532746823
659.824046920821,967.741935483871,87.97653958944282,92.86412512218965,469.208211143695,747.800586510264,307.91788856304987
73.31378299120234,83.08895405669598,9.775171065493646,1148.5826001955033,29.325513196480937,87.97653958944282,244.37927663734115
0.0,9.775171065493646,175.95307917888564,131.96480938416423,4.887585532746823,0.0,19.550342130987293
58.651026392961874,161.29032258064515,997.0674486803518,9.775171065493646,298.14271749755625,73.31378299120234,4.887585532746823
674.4868035190616,967.741935483871,87.97653958944282,83.08895405669598,821.1143695014663,801.5640273704789,107.52688172043011
73.31378299120234,92.86412512218965,4.887585532746823,1158.357771260997,48.87585532746823,83.08895405669598,381.2316715542522
4.887585532746823,14.662756598240469,146.6275659824047,146.6275659824047,4.887585532746823,4.887585532746823,58.651026392961874
63.53861192570871,156.40273704789834,1006.8426197458455,4.887585532746823,273.7047898338221,48.87585532746823,4.887585532746823
654.9364613880742,962.8543499511242,92.86412512218965,92.86412512218965,791.7888563049853,782.0136852394917,4.887585532746823
73.31378299120234,92.86412512218965,4.887585532746823,1148.5826001955033,53.763440860215056,83.08895405669598,332.35581622678393
9.775171065493646,4.887585532746823,122.18963831867057,136.85239491691104,4.887585532746823,4.887585532746823,234.6041055718475
58.651026392961874,131.96480938416423,962.8543499511242,9.775171065493646,312.8054740957967,83.08895405669598,4.887585532746823
669.5992179863147,962.8543499511242,97.75171065493646,92.86412512218965,855.327468230694,811.3391984359725,4.887585532746823
73.31378299120234,107.52688172043011,4.887585532746823,1158.357771260997,43.98826979472141,83.08895405669598,92.86412512218965
4.887585532746823,14.662756598240469,131.96480938416423,151.51515151515153,4.887585532746823,9.775171065493646,391.00684261974584
48.87585532746823,131.96480938416423,997.0674486803518,9.775171065493646,48.87585532746823,53.763440860215056,53.763440860215056
650.0488758553274,962.8543499511242,102.63929618768329,78.20136852394917,835.7771260997067,786.9012707722385,4.887585532746823
78.20136852394917,102.63929618768329,4.887585532746823,1119.2570869990225,97.75171065493646,97.75171065493646,9.775171065493646
4.887585532746823,9.775171065493646,161.29032258064515,136.85239491691104,14.662756598240469,4.887585532746823,307.91788856304987
43.98826979472141,107.52688172043011,1011.7302052785923,9.775171065493646,43.98826979472141,73.31378299120234,244.37927663734115
596.2854349951125,977.5171065493646,83.08895405669598,92.86412512218965,718.475073313783,767.3509286412512,9.775171065493646
166.17790811339196,102.63929618768329,9.775171065493646,1129.032258064516,224.82893450635387,92.86412512218965,4.887585532746823
14.662756598240469,9.775171065493646,171.0654936461388,141.73998044965788,9.775171065493646,4.887585532746823,92.86412512218965
4.887585532746823,117.30205278592375,982.4046920821114,4.887585532746823,4.887585532746823,48.87585532746823,391.00684261974584
439.8826979472141,957.9667644183774,97.75171065493646,83.08895405669598,498.5337243401759,796.6764418377321,63.53861192570871
483.8709677419355,107.52688172043011,9.775171065493646,1138.8074291300097,474.0957966764418,102.63929618768329,9.775171065493646
39.100684261974585,4.887585532746823,122.18963831867057,146.6275659824047,19.550342130987293,4.887585532746823,9.775171065493646
14.662756598240469,92.86412512218965,1006.8426197458455,4.887585532746823,9.775171065493646,68.42619745845552,322.5806451612903
39.100684261974585,962.8543499511242,102.63929618768329,63.53861192570871,229.7165200391007,801.5640273704789,244.37927663734115
576.7350928641251,107.52688172043011,4.887585532746823,1138.8074291300097,782.0136852394917,102.63929618768329,4.887585532746823
156.40273704789834,4.887585532746823,122.18963831867057,156.40273704789834,48.87585532746823,9.775171065493646,4.887585532746823
4.887585532746823,83.08895405669598,957.9667644183774,9.775171065493646,4.887585532746823,34.21309872922776,78.20136852394917
9.775171065493646,972.6295210166178,92.86412512218965,58.651026392961874,278.5923753665689,664.7116324535679,400.78201368523946
415.44477028347995,102.63929618768329,9.775171065493646,1133.919843597263,889.5405669599219,205.27859237536657,68.42619745845552
483.8709677419355,9.775171065493646,136.85239491691104,151.51515151515153,63.53861192570871,14.662756598240469,0.0
34.21309872922776,92.86412512218965,997.0674486803518,9.775171065493646,9.775171065493646,4.887585532746823,4.887585532746823
4.887585532746823,967.741935483871,107.52688172043011,58.651026392961874,215.05376344086022,474.0957966764418,317.6930596285435
39.100684261974585,107.52688172043011,14.662756598240469,1133.919843597263,826.0019550342131,645.1612903225806,239.49169110459434
557.1847507331378,9.775171065493646,127.07722385141741,146.6275659824047,53.763440860215056,24.437927663734115,19.550342130987293
171.0654936461388,92.86412512218965,1036.1681329423266,9.775171065493646,4.887585532746823,9.775171065493646,4.887585532746823
4.887585532746823,953.0791788856305,97.75171065493646,53.763440860215056,224.82893450635387,239.49169110459434,87.97653958944282
9.775171065493646,107.52688172043011,9.775171065493646,1124.1446725317692,816.2267839687195,747.800586510264,391.00684261974584
420.33235581622677,9.775171065493646,131.96480938416423,151.51515151515153,58.651026392961874,53.763440860215056,63.53861192570871
488.7585532746823,83.08895405669598,992.179863147605,9.775171065493646,9.775171065493646,4.887585532746823,9.775171065493646
14.662756598240469,972.6295210166178,102.63929618768329,39.100684261974585,215.05376344086022,273.7047898338221,4.887585532746823
14.662756598240469,122.18963831867057,14.662756598240469,982.4046920821114,840.6647116324535,821.1143695014663,317.6930596285435
219.94134897360706,9.775171065493646,131.96480938416423,347.0185728250244,48.87585532746823,48.87585532746823,259.04203323558164
615.8357771260997,83.08895405669598,987.2922776148582,19.550342130987293,4.887585532746823,0.0,19.550342130987293
39.100684261974585,967.741935483871,97.75171065493646,4.887585532746823,229.7165200391007,215.05376344086022,9.775171065493646
9.775171065493646,117.30205278592375,14.662756598240469,664.7116324535679,816.2267839687195,757.5757575757576,73.31378299120234
39.100684261974585,14.662756598240469,102.63929618768329,703.8123167155426,53.763440860215056,53.763440860215056,381.2316715542522
571.8475073313783,63.53861192570871,1006.8426197458455,14.662756598240469,4.887585532746823,9.775171065493646,63.53861192570871
166.17790811339196,953.0791788856305,107.52688172043011,4.887585532746823,185.7282502443793,210.16617790811338,9.775171065493646
4.887585532746823,117.30205278592375,4.887585532746823,679.3743890518084,860.2150537634409,786.9012707722385,4.887585532746823
9.775171065493646,4.887585532746823,127.07722385141741,694.0371456500488,63.53861192570871,53.763440860215056,307.91788856304987
430.10752688172045,68.42619745845552,987.2922776148582,19.550342130987293,9.775171065493646,9.775171065493646,254.15444770283483
537.6344086021505,967.741935483871,122.18963831867057,4.887585532746823,180.84066471163246,249.26686217008796,19.550342130987293
24.437927663734115,117.30205278592375,14.662756598240469,689.149560117302,801.5640273704789,777.1260997067449,0.0
4.887585532746823,4.887585532746823,102.63929618768329,684.2619745845552,63.53861192570871,53.763440860215056,83.08895405669598
200.39100684261973,53.763440860215056,1006.8426197458455,9.775171065493646,9.775171065493646,9.775171065493646,386.119257086999
615.8357771260997,977.5171065493646,117.30205278592375,4.887585532746823,190.6158357771261,210.16617790811338,58.651026392961874
34.21309872922776,122.18963831867057,4.887585532746823,669.5992179863147,826.0019550342131,786.9012707722385,9.775171065493646
9.775171065493646,9.775171065493646,107.52688172043011,698.9247311827957,68.42619745845552,58.651026392961874,14.662756598240469
39.100684261974585,53.763440860215056,1016.6177908113393,19.550342130987293,9.775171065493646,0.0,293.2551319648094
557.1847507331378,957.9667644183774,112.41446725317694,9.775171065493646,180.84066471163246,166.17790811339196,263.92961876832845
166.17790811339196,131.96480938416423,4.887585532746823,645.1612903225806,840.6647116324535,786.9012707722385,14.662756598240469
9.775171065493646,4.887585532746823,112.41446725317694,723.3626588465298,73.31378299120234,58.651026392961874,0.0
4.887585532746823,48.87585532746823,1060.6060606060607,19.550342130987293,4.887585532746823,4.887585532746823,68.42619745845552
381.2316715542522,953.0791788856305,117.30205278592375,14.662756598240469,171.0654936461388,200.39100684261973,391.00684261974584
508.30889540566966,136.85239491691104,9.775171065493646,640.2737047898338,796.6764418377321,801.5640273704789,68.42619745845552
19.550342130987293,9.775171065493646,78.20136852394917,728.2502443792766,63.53861192570871,53.763440860215056,4.887585532746823
4.887585532746823,48.87585532746823,1001.9550342130987,19.550342130987293,9.775171065493646,9.775171065493646,9.775171065493646
185.7282502443793,953.0791788856305,102.63929618768329,4.887585532746823,171.0654936461388,190.6158357771261,312.8054740957967
610.9481915933529,127.07722385141741,9.775171065493646,625.6109481915934,835.7771260997067,821.1143695014663,254.15444770283483
39.100684261974585,14.662756598240469,122.18963831867057,723.3626588465298,78.20136852394917,63.53861192570871,14.662756598240469
9.775171065493646,43.98826979472141,1001.9550342130987,19.550342130987293,4.887585532746823,0.0,0.0
24.437927663734115,826.0019550342131,107.52688172043011,9.775171065493646,156.40273704789834,195.50342130987292,63.53861192570871
552.297165200391,283.47996089931576,4.887585532746823,620.7233626588466,811.3391984359725,757.5757575757576,386.119257086999
161.29032258064515,9.775171065493646,68.42619745845552,703.8123167155426,68.42619745845552,53.763440860215056,63.53861192570871
4.887585532746823,4.887585532746823,982.4046920821114,24.437927663734115,9.775171065493646,4.887585532746823,9.775171065493646
9.775171065493646,620.7233626588466,122.18963831867057,9.775171065493646,136.85239491691104,205.27859237536657,9.775171065493646
400.78201368523946,571.8475073313783,9.775171065493646,596.2854349951125,830.8895405669599,777.1260997067449,317.6930596285435
518.0840664711633,14.662756598240469,73.31378299120234,742.9130009775172,73.31378299120234,58.651026392961874,244.37927663734115
19.550342130987293,9.775171065493646,1021.5053763440861,29.325513196480937,0.0,0.0,14.662756598240469
9.775171065493646,576.7350928641251,112.41446725317694,4.887585532746823,151.51515151515153,210.16617790811338,0.0
200.39100684261973,591.3978494623656,0.0,610.9481915933529,796.6764418377321,786.9012707722385,68.42619745845552
620.7233626588466,19.550342130987293,68.42619745845552,747.800586510264,63.53861192570871,58.651026392961874,391.00684261974584
34.21309872922776,0.0,1016.6177908113393,29.325513196480937,9.775171065493646,4.887585532746823,68.42619745845552
4.887585532746823,571.8475073313783,127.07722385141741,4.887585532746823,156.40273704789834,175.95307917888564,4.887585532746823
39.100684261974585,610.9481915933529,0.0,591.3978494623656,830.8895405669599,796.6764418377321,9.775171065493646
547.4095796676442,14.662756598240469,73.31378299120234,777.1260997067449,73.31378299120234,58.651026392961874,307.91788856304987
175.95307917888564,4.887585532746823,1036.1681329423266,19.550342130987293,4.887585532746823,4.887585532746823,254.15444770283483
14.662756598240469,547.4095796676442,117.30205278592375,4.887585532746823,136.85239491691104,180.84066471163246,9.775171065493646
9.775171065493646,606.0606060606061,14.662756598240469,601.1730205278593,869.9902248289345,801.5640273704789,4.887585532746823
386.119257086999,19.550342130987293,58.651026392961874,762.4633431085044,73.31378299120234,58.651026392961874,87.97653958944282
508.30889540566966,4.887585532746823,1031.2805474095796,19.550342130987293,4.887585532746823,0.0,395.89442815249265
19.550342130987293,547.4095796676442,141.73998044965788,9.775171065493646,117.30205278592375,161.29032258064515,58.651026392961874
4.887585532746823,610.9481915933529,9.775171065493646,591.3978494623656,826.0019550342131,777.1260997067449,0.0
185.7282502443793,19.550342130987293,58.651026392961874,772.238514173998,83.08895405669598,58.651026392961874,9.775171065493646
615.8357771260997,9.775171065493646,997.0674486803518,19.550342130987293,9.775171065493646,4.887585532746823,322.5806451612903
39.100684261974585,532.7468230694037,131.96480938416423,4.887585532746823,136.85239491691104,156.40273704789834,244.37927663734115
4.887585532746823,620.7233626588466,4.887585532746823,566.9599217986315,850.4398826979472,796.6764418377321,14.662756598240469
39.100684261974585,14.662756598240469,68.42619745845552,782.0136852394917,78.20136852394917,68.42619745845552,9.775171065493646
581.622678396872,4.887585532746823,1016.6177908113393,19.550342130987293,9.775171065493646,4.887585532746823,73.31378299120234
195.50342130987292,518.0840664711633,136.85239491691104,0.0,117.30205278592375,127.07722385141741,410.55718475073314
19.550342130987293,625.6109481915934,9.775171065493646,547.4095796676442,806.4516129032257,782.0136852394917,73.31378299120234
4.887585532746823,19.550342130987293,58.651026392961874,767.3509286412512,83.08895405669598,68.42619745845552,9.775171065493646
386.119257086999,0.0,992.179863147605,29.325513196480937,9.775171065493646,9.775171065493646,9.775171065493646
513.1964809384165,537.6344086021505,122.18963831867057,4.887585532746823,83.08895405669598,151.51515151515153,307.91788856304987
24.437927663734115,640.2737047898338,9.775171065493646,547.4095796676442,801.5640273704789,796.6764418377321,249.26686217008796
4.887585532746823,19.550342130987293,48.87585532746823,806.4516129032257,68.42619745845552,68.42619745845552,24.437927663734115
200.39100684261973,14.662756598240469,987.2922776148582,19.550342130987293,9.775171065493646,9.775171065493646,0.0
635.386119257087,513.1964809384165,131.96480938416423,9.775171065493646,131.96480938416423,146.6275659824047,73.31378299120234
34.21309872922776,654.9364613880742,9.775171065493646,542.5219941348973,806.4516129032257,786.9012707722385,405.6695992179863
0.0,19.550342130987293,43.98826979472141,806.4516129032257,73.31378299120234,78.20136852394917,73.31378299120234
29.325513196480937,0.0,874.8778103616814,29.325513196480937,4.887585532746823,4.887585532746823,4.887585532746823
562.0723362658846,518.0840664711633,263.92961876832845,9.775171065493646,83.08895405669598,122.18963831867057,0.0
180.84066471163246,640.2737047898338,9.775171065493646,552.297165200391,830.8895405669599,767.3509286412512,303.03030303030306
4.887585532746823,24.437927663734115,9.775171065493646,791.7888563049853,92.86412512218965,68.42619745845552,249.26686217008796
9.775171065493646,4.887585532746823,703.8123167155426,19.550342130987293,4.887585532746823,4.887585532746823,14.662756598240469
386.119257086999,488.7585532746823,532.7468230694037,9.775171065493646,107.52688172043011,146.6275659824047,9.775171065493646
532.7468230694037,659.824046920821,14.662756598240469,522.9716520039101,826.0019550342131,796.6764418377321,63.53861192570871
19.550342130987293,19.550342130987293,9.775171065493646,830.8895405669599,78.20136852394917,73.31378299120234,405.6695992179863
0.0,4.887585532746823,640.2737047898338,24.437927663734115,4.887585532746823,4.887585532746823,73.31378299120234
190.6158357771261,474.0957966764418,552.297165200391,0.0,112.41446725317694,141.73998044965788,0.0
650.0488758553274,850.4398826979472,14.662756598240469,532.7468230694037,830.8895405669599,782.0136852394917,4.887585532746823
43.98826979472141,48.87585532746823,0.0,796.6764418377321,83.08895405669598,63.53861192570871,298.14271749755625
4.887585532746823,0.0,645.1612903225806,24.437927663734115,9.775171065493646,4.887585532746823,263.92961876832845
14.662756598240469,469.208211143695,537.6344086021505,4.887585532746823,92.86412512218965,131.96480938416423,9.775171065493646
542.5219941348973,874.8778103616814,14.662756598240469,527.8592375366569,816.2267839687195,782.0136852394917,0.0
180.84066471163246,39.100684261974585,4.887585532746823,811.3391984359725,83.08895405669598,63.53861192570871,63.53861192570871
9.775171065493646,9.775171065493646,620.7233626588466,24.437927663734115,9.775171065493646,9.775171065493646,386.119257086999
0.0,175.95307917888564,586.5102639296188,9.775171065493646,122.18963831867057,122.18963831867057,78.20136852394917
386.119257086999,1001.9550342130987,9.775171065493646,488.7585532746823,816.2267839687195,786.9012707722385,4.887585532746823
532.7468230694037,87.97653958944282,9.775171065493646,806.4516129032257,78.20136852394917,78.20136852394917,9.775171065493646
19.550342130987293,0.0,610.9481915933529,29.325513196480937,0.0,4.887585532746823,303.03030303030306
0.0,161.29032258064515,562.0723362658846,4.887585532746823,68.42619745845552,112.41446725317694,268.81720430107526
175.95307917888564,953.0791788856305,14.662756598240469,498.5337243401759,786.9012707722385,796.6764418377321,14.662756598240469
620.7233626588466,83.08895405669598,9.775171065493646,826.0019550342131,92.86412512218965,68.42619745845552,0.0
43.98826979472141,9.775171065493646,630.4985337243402,29.325513196480937,0.0,9.775171065493646,73.31378299120234
0.0,166.17790811339196,620.7233626588466,9.775171065493646,63.53861192570871,127.07722385141741,386.119257086999
19.550342130987293,987.2922776148582,9.775171065493646,469.208211143695,835.7771260997067,791.7888563049853,73.31378299120234
571.8475073313783,87.97653958944282,9.775171065493646,1065.4936461388074,87.97653958944282,78.20136852394917,0.0
195.50342130987292,0.0,591.3978494623656,53.763440860215056,0.0,14.662756598240469,4.887585532746823
14.662756598240469,156.40273704789834,630.4985337243402,9.775171065493646,78.20136852394917,102.63929618768329,298.14271749755625
4.887585532746823,967.741935483871,19.550342130987293,474.0957966764418,869.9902248289345,752.6881720430108,244.37927663734115
381.2316715542522,87.97653958944282,9.775171065493646,1094.8191593352883,83.08895405669598,78.20136852394917,19.550342130987293
537.6344086021505,0.0,586.5102639296188,58.651026392961874,4.887585532746823,9.775171065493646,9.775171065493646
19.550342130987293,146.6275659824047,591.3978494623656,9.775171065493646,34.21309872922776,112.41446725317694,58.651026392961874
0.0,962.8543499511242,14.662756598240469,464.3206256109482,791.7888563049853,801.5640273704789,391.00684261974584
166.17790811339196,92.86412512218965,9.775171065493646,1070.3812316715544,205.27859237536657,78.20136852394917,63.53861192570871
625.6109481915934,0.0,596.2854349951125,58.651026392961874,14.662756598240469,9.775171065493646,4.887585532746823
39.100684261974585,151.51515151515153,625.6109481915934,4.887585532746823,9.775171065493646,107.52688172043011,0.0
4.887585532746823,992.179863147605,14.662756598240469,498.5337243401759,576.7350928641251,777.1260997067449,288.36754643206257
9.775171065493646,97.75171065493646,9.775171065493646,860.2150537634409,386.119257086999,78.20136852394917,244.37927663734115
552.297165200391,9.775171065493646,620.7233626588466,34.21309872922776,19.550342130987293,9.775171065493646,9.775171065493646
185.7282502443793,131.96480938416423,591.3978494623656,9.775171065493646,9.775171065493646,83.08895405669598,0.0
9.775171065493646,977.5171065493646,14.662756598240469,459.4330400782014,337.2434017595308,826.0019550342131,63.53861192570871
4.887585532746823,97.75171065493646,9.775171065493646,1099.7067448680352,845.5522971652003,92.86412512218965,386.119257086999
381.2316715542522,0.0,620.7233626588466,63.53861192570871,48.87585532746823,4.887585532746823,68.42619745845552
552.297165200391,122.18963831867057,650.0488758553274,4.887585532746823,9.775171065493646,63.53861192570871,4.887585532746823
19.550342130987293,977.5171065493646,9.775171065493646,434.99511241446726,293.2551319648094,816.2267839687195,9.775171065493646
9.775171065493646,102.63929618768329,9.775171065493646,1094.8191593352883,816.2267839687195,102.63929618768329,278.5923753665689
156.40273704789834,9.775171065493646,625.6109481915934,68.42619745845552,48.87585532746823,9.775171065493646,278.5923753665689
640.2737047898338,117.30205278592375,586.5102639296188,4.887585532746823,4.887585532746823,83.08895405669598,19.550342130987293
48.87585532746823,957.9667644183774,9.775171065493646,415.44477028347995,293.2551319648094,801.5640273704789,4.887585532746823
0.0,97.75171065493646,4.887585532746823,1089.9315738025416,777.1260997067449,83.08895405669598,63.53861192570871
175.95307917888564,9.775171065493646,566.9599217986315,63.53861192570871,48.87585532746823,9.775171065493646,395.89442815249265
640.2737047898338,112.41446725317694,689.149560117302,0.0,0.0,63.53861192570871,73.31378299120234
48.87585532746823,982.4046920821114,19.550342130987293,425.2199413489736,263.92961876832845,811.3391984359725,4.887585532746823
4.887585532746823,102.63929618768329,9.775171065493646,1080.156402737048,821.1143695014663,87.97653958944282,9.775171065493646
185.7282502443793,4.887585532746823,459.4330400782014,63.53861192570871,48.87585532746823,4.887585532746823,288.36754643206257
625.6109481915934,117.30205278592375,796.6764418377321,9.775171065493646,0.0,83.08895405669598,268.81720430107526
43.98826979472141,987.2922776148582,39.100684261974585,415.44477028347995,263.92961876832845,806.4516129032257,19.550342130987293
4.887585532746823,112.41446725317694,4.887585532746823,1089.9315738025416,811.3391984359725,83.08895405669598,9.775171065493646
29.325513196480937,9.775171065493646,229.7165200391007,58.651026392961874,48.87585532746823,9.775171065493646,53.763440860215056
552.297165200391,87.97653958944282,1006.8426197458455,9.775171065493646,9.775171065493646,48.87585532746823,410.55718475073314
205.27859237536657,977.5171065493646,73.31378299120234,434.99511241446726,303.03030303030306,816.2267839687195,92.86412512218965
9.775171065493646,112.41446725317694,0.0,1109.4819159335289,826.0019550342131,92.86412512218965,4.887585532746823
4.887585532746823,9.775171065493646,259.04203323558164,58.651026392961874,43.98826979472141,4.887585532746823,9.775171065493646
342.1309872922776,92.86412512218965,982.4046920821114,4.887585532746823,9.775171065493646,68.42619745845552,288.36754643206257
562.0723362658846,982.4046920821114,78.20136852394917,395.89442815249265,58.651026392961874,772.238514173998,273.7047898338221
19.550342130987293,112.41446725317694,4.887585532746823,1099.7067448680352,811.3391984359725,87.97653958944282,19.550342130987293
4.887585532746823,4.887585532746823,259.04203323558164,68.42619745845552,97.75171065493646,9.775171065493646,9.775171065493646
190.6158357771261,78.20136852394917,1011.7302052785923,9.775171065493646,4.887585532746823,68.42619745845552,43.98826979472141
659.824046920821,967.741935483871,78.20136852394917,405.6695992179863,34.21309872922776,821.1143695014663,351.9061583577713
53.763440860215056,117.30205278592375,9.775171065493646,1104.594330400782,728.2502443792766,92.86412512218965,175.95307917888564
4.887585532746823,9.775171065493646,234.6041055718475,58.651026392961874,215.05376344086022,0.0,14.662756598240469
151.51515151515153,78.20136852394917,1001.9550342130987,4.887585532746823,9.775171065493646,63.53861192570871,0.0
630.4985337243402,962.8543499511242,83.08895405669598,381.2316715542522,4.887585532746823,801.5640273704789,166.17790811339196
53.763440860215056,122.18963831867057,14.662756598240469,1119.2570869990225,552.297165200391,92.86412512218965,361.6813294232649
4.887585532746823,4.887585532746823,219.94134897360706,68.42619745845552,454.54545454545456,9.775171065493646,39.100684261974585
151.51515151515153,73.31378299120234,1021.5053763440861,9.775171065493646,24.437927663734115,53.763440860215056,9.775171065493646
630.4985337243402,962.8543499511242,87.97653958944282,405.6695992179863,0.0,777.1260997067449,9.775171065493646
43.98826979472141,117.30205278592375,9.775171065493646,1133.919843597263,234.6041055718475,92.86412512218965,298.14271749755625
4.887585532746823,4.887585532746823,249.26686217008796,73.31378299120234,855.327468230694,9.775171065493646,259.04203323558164
19.550342130987293,58.651026392961874,982.4046920821114,9.775171065493646,58.651026392961874,68.42619745845552,19.550342130987293
557.1847507331378,977.5171065493646,73.31378299120234,371.4565004887586,9.775171065493646,806.4516129032257,9.775171065493646
200.39100684261973,122.18963831867057,4.887585532746823,1104.594330400782,254.15444770283483,97.75171065493646,43.98826979472141
9.775171065493646,4.887585532746823,298.14271749755625,68.42619745845552,850.4398826979472,4.887585532746823,351.9061583577713
9.775171065493646,63.53861192570871,972.6295210166178,4.887585532746823,43.98826979472141,34.21309872922776,166.17790811339196
361.6813294232649,972.6295210166178,78.20136852394917,356.7937438905181,9.775171065493646,723.3626588465298,14.662756598240469
522.9716520039101,122.18963831867057,4.887585532746823,1114.3695014662756,39.100684261974585,215.05376344086022,4.887585532746823
19.550342130987293,14.662756598240469,224.82893450635387,73.31378299120234,723.3626588465298,4.887585532746823,161.29032258064515
4.887585532746823,58.651026392961874,1016.6177908113393,4.887585532746823,239.49169110459434,0.0,376.3440860215054
146.6275659824047,962.8543499511242,78.20136852394917,347.0185728250244,14.662756598240469,503.42130987292273,34.21309872922776
620.7233626588466,131.96480938416423,0.0,1129.032258064516,0.0,410.55718475073314,9.775171065493646
34.21309872922776,9.775171065493646,210.16617790811338,73.31378299120234,474.0957966764418,24.437927663734115,4.887585532746823
4.887585532746823,48.87585532746823,992.179863147605,9.775171065493646,713.5874877810362,4.887585532746823,298.14271749755625
14.662756598240469,962.8543499511242,87.97653958944282,351.9061583577713,29.325513196480937,273.7047898338221,288.36754643206257
542.5219941348973,131.96480938416423,0.0,1104.594330400782,9.775171065493646,777.1260997067449,14.662756598240469
195.50342130987292,9.775171065493646,234.6041055718475,73.31378299120234,175.95307917888564,43.98826979472141,14.662756598240469
4.887585532746823,43.98826979472141,1050.830889540567,9.775171065493646,855.327468230694,0.0,34.21309872922776
0.0,840.6647116324535,87.97653958944282,347.0185728250244,63.53861192570871,43.98826979472141,347.0185728250244
356.7937438905181,273.7047898338221,4.887585532746823,1124.1446725317692,4.887585532746823,689.149560117302,171.0654936461388
537.6344086021505,14.662756598240469,215.05376344086022,78.20136852394917,215.05376344086022,205.27859237536657,9.775171065493646
24.437927663734115,4.887585532746823,992.179863147605,4.887585532746823,889.5405669599219,9.775171065493646,0.0
9.775171065493646,591.3978494623656,73.31378299120234,332.35581622678393,58.651026392961874,9.775171065493646,175.95307917888564
146.6275659824047,566.9599217986315,9.775171065493646,1124.1446725317692,0.0,493.6461388074291,356.7937438905181
625.6109481915934,14.662756598240469,190.6158357771261,83.08895405669598,210.16617790811338,439.8826979472141,34.21309872922776
53.763440860215056,9.775171065493646,987.2922776148582,4.887585532746823,826.0019550342131,24.437927663734115,9.775171065493646
4.887585532746823,586.5102639296188,87.97653958944282,342.1309872922776,58.651026392961874,4.887585532746823,4.887585532746823
136.85239491691104,571.8475073313783,4.887585532746823,1129.032258064516,4.887585532746823,254.15444770283483,278.5923753665689
640.2737047898338,14.662756598240469,249.26686217008796,87.97653958944282,229.7165200391007,791.7888563049853,288.36754643206257
53.763440860215056,9.775171065493646,987.2922776148582,0.0,806.4516129032257,58.651026392961874,19.550342130987293
0.0,562.0723362658846,73.31378299120234,312.8054740957967,58.651026392961874,4.887585532746823,9.775171065493646
151.51515151515153,596.2854349951125,0.0,1153.4701857282503,0.0,234.6041055718475,48.87585532746823
654.9364613880742,14.662756598240469,195.50342130987292,87.97653958944282,259.04203323558164,782.0136852394917,386.119257086999
43.98826979472141,4.887585532746823,987.2922776148582,9.775171065493646,869.9902248289345,53.763440860215056,73.31378299120234
9.775171065493646,581.622678396872,83.08895405669598,298.14271749755625,58.651026392961874,4.887585532746823,0.0
4.887585532746823,606.0606060606061,4.887585532746823,1114.3695014662756,9.775171065493646,215.05376344086022,4.887585532746823
522.9716520039101,19.550342130987293,234.6041055718475,78.20136852394917,175.95307917888564,762.4633431085044,288.36754643206257
219.94134897360706,9.775171065493646,1036.1681329423266,0.0,782.0136852394917,53.763440860215056,278.5923753665689
4.887585532746823,547.4095796676442,78.20136852394917,293.2551319648094,58.651026392961874,9.775171065493646,19.550342130987293
9.775171065493646,606.0606060606061,4.887585532746823,1124.1446725317692,4.887585532746823,224.82893450635387,4.887585532746823
332.35581622678393,19.550342130987293,190.6158357771261,87.97653958944282,239.49169110459434,767.3509286412512,43.98826979472141
571.8475073313783,0.0,992.179863147605,0.0,879.7653958944283,48.87585532746823,356.7937438905181
29.325513196480937,576.7350928641251,78.20136852394917,278.5923753665689,68.42619745845552,0.0,171.0654936461388
0.0,606.0606060606061,14.662756598240469,1119.2570869990225,4.887585532746823,254.15444770283483,9.775171065493646
166.17790811339196,19.550342130987293,161.29032258064515,87.97653958944282,175.95307917888564,791.7888563049853,0.0
654.9364613880742,0.0,997.0674486803518,4.887585532746823,884.6529814271751,53.763440860215056,161.29032258064515
53.763440860215056,542.5219941348973,87.97653958944282,278.5923753665689,68.42619745845552,4.887585532746823,366.5689149560117
4.887585532746823,630.4985337243402,4.887585532746823,1163.245356793744,0.0,224.82893450635387,43.98826979472141
136.85239491691104,14.662756598240469,219.94134897360706,92.86412512218965,190.6158357771261,791.7888563049853,4.887585532746823
650.0488758553274,4.887585532746823,1026.392961876833,0.0,830.8895405669599,58.651026392961874,4.887585532746823
48.87585532746823,527.8592375366569,97.75171065493646,283.47996089931576,58.651026392961874,0.0,283.47996089931576
4.887585532746823,645.1612903225806,9.775171065493646,1129.032258064516,4.887585532746823,205.27859237536657,273.7047898338221
175.95307917888564,19.550342130987293,166.17790811339196,83.08895405669598,200.39100684261973,777.1260997067449,29.325513196480937
640.2737047898338,4.887585532746823,1011.7302052785923,9.775171065493646,835.7771260997067,53.763440860215056,0.0
43.98826979472141,522.9716520039101,87.97653958944282,263.92961876832845,63.53861192570871,4.887585532746823,43.98826979472141
9.775171065493646,635.386119257087,4.887585532746823,1143.6950146627566,9.775171065493646,210.16617790811338,356.7937438905181
0.0,14.662756598240469,166.17790811339196,92.86412512218965,175.95307917888564,738.0254154447704,185.7282502443793
518.0840664711633,14.662756598240469,1021.5053763440861,9.775171065493646,835.7771260997067,48.87585532746823,4.887585532746823
219.94134897360706,527.8592375366569,87.97653958944282,259.04203323558164,78.20136852394917,0.0,0.0
14.662756598240469,640.2737047898338,0.0,1138.8074291300097,9.775171065493646,166.17790811339196,151.51515151515153
0.0,19.550342130987293,166.17790811339196,92.86412512218965,175.95307917888564,791.7888563049853,366.5689149560117
347.0185728250244,0.0,987.2922776148582,4.887585532746823,860.2150537634409,68.42619745845552,34.21309872922776
562.0723362658846,488.7585532746823,107.52688172043011,263.92961876832845,73.31378299120234,9.775171065493646,4.887585532746823
24.437927663734115,669.5992179863147,9.775171065493646,1158.357771260997,9.775171065493646,200.39100684261973,9.775171065493646
4.887585532746823,14.662756598240469,312.8054740957967,102.63929618768329,175.95307917888564,777.1260997067449,268.81720430107526
131.96480938416423,0.0,943.3040078201368,0.0,811.3391984359725,58.651026392961874,283.47996089931576
625.6109481915934,488.7585532746823,102.63929618768329,239.49169110459434,68.42619745845552,4.887585532746823,19.550342130987293
48.87585532746823,669.5992179863147,0.0,1163.245356793744,9.775171065493646,175.95307917888564,4.887585532746823
9.775171065493646,24.437927663734115,239.49169110459434,102.63929618768329,166.17790811339196,811.3391984359725,34.21309872922776
131.96480938416423,9.775171065493646,987.2922776148582,4.887585532746823,816.2267839687195,63.53861192570871,361.6813294232649
620.7233626588466,478.9833822091887,92.86412512218965,224.82893450635387,78.20136852394917,0.0,200.39100684261973
53.763440860215056,865.1026392961877,4.887585532746823,1153.4701857282503,14.662756598240469,180.84066471163246,9.775171065493646
9.775171065493646,39.100684261974585,151.51515151515153,102.63929618768329,180.84066471163246,821.1143695014663,4.887585532746823
127.07722385141741,4.887585532746823,982.4046920821114,9.775171065493646,806.4516129032257,68.42619745845552,146.6275659824047
615.8357771260997,185.7282502443793,107.52688172043011,219.94134897360706,73.31378299120234,14.662756598240469,371.4565004887586
43.98826979472141,972.6295210166178,4.887585532746823,1133.919843597263,4.887585532746823,171.0654936461388,39.100684261974585
4.887585532746823,87.97653958944282,195.50342130987292,102.63929618768329,151.51515151515153,786.9012707722385,14.662756598240469
0.0,4.887585532746823,997.0674486803518,9.775171065493646,801.5640273704789,63.53861192570871,4.887585532746823
493.6461388074291,175.95307917888564,102.63929618768329,219.94134897360706,78.20136852394917,4.887585532746823,268.81720430107526
224.82893450635387,972.6295210166178,4.887585532746823,1133.919843597263,9.775171065493646,239.49169110459434,259.04203323558164
14.662756598240469,87.97653958944282,107.52688172043011,97.75171065493646,127.07722385141741,826.0019550342131,19.550342130987293
0.0,4.887585532746823,982.4046920821114,9.775171065493646,850.4398826979472,63.53861192570871,9.775171065493646
327.4682306940371,166.17790811339196,122.18963831867057,219.94134897360706,68.42619745845552,4.887585532746823,19.550342130987293
562.0723362658846,992.179863147605,4.887585532746823,1158.357771260997,9.775171065493646,166.17790811339196,337.2434017595308
29.325513196480937,83.08895405669598,127.07722385141741,112.41446725317694,146.6275659824047,816.2267839687195,205.27859237536657
9.775171065493646,4.887585532746823,1055.7184750733138,4.887585532746823,889.5405669599219,73.31378299120234,14.662756598240469
136.85239491691104,156.40273704789834,112.41446725317694,200.39100684261973,68.42619745845552,9.775171065493646,0.0
650.0488758553274,982.4046920821114,9.775171065493646,1143.6950146627566,9.775171065493646,175.95307917888564,151.51515151515153
43.98826979472141,97.75171065493646,127.07722385141741,102.63929618768329,122.18963831867057,811.3391984359725,356.7937438905181
4.887585532746823,0.0,992.179863147605,4.887585532746823,782.0136852394917,68.42619745845552,34.21309872922776
4.887585532746823,146.6275659824047,92.86412512218965,190.6158357771261,73.31378299120234,0.0,4.887585532746823
518.0840664711633,992.179863147605,14.662756598240469,1153.4701857282503,4.887585532746823,146.6275659824047,4.887585532746823
249.26686217008796,92.86412512218965,102.63929618768329,112.41446725317694,156.40273704789834,782.0136852394917,259.04203323558164
9.775171065493646,4.887585532746823,982.4046920821114,9.775171065493646,821.1143695014663,73.31378299120234,268.81720430107526
0.0,141.73998044965788,122.18963831867057,190.6158357771261,83.08895405669598,4.887585532746823,19.550342130987293
312.8054740957967,977.5171065493646,4.887585532746823,1138.8074291300097,0.0,151.51515151515153,4.887585532746823
571.8475073313783,97.75171065493646,127.07722385141741,117.30205278592375,117.30205278592375,816.2267839687195,34.21309872922776
24.437927663734115,9.775171065493646,972.6295210166178,9.775171065493646,821.1143695014663,63.53861192570871,347.0185728250244
4.887585532746823,131.96480938416423,102.63929618768329,171.0654936461388,87.97653958944282,9.775171065493646,175.95307917888564
122.18963831867057,962.8543499511242,9.775171065493646,1143.6950146627566,4.887585532746823,156.40273704789834,4.887585532746823
654.9364613880742,97.75171065493646,131.96480938416423,112.41446725317694,122.18963831867057,811.3391984359725,4.887585532746823
43.98826979472141,9.775171065493646,1026.392961876833,9.775171065493646,821.1143695014663,68.42619745845552,146.6275659824047
9.775171065493646,136.85239491691104,102.63929618768329,166.17790811339196,92.86412512218965,4.887585532746823,366.5689149560117
9.775171065493646,1001.9550342130987,14.662756598240469,1148.5826001955033,9.775171065493646,146.6275659824047,34.21309872922776
498.5337243401759,102.63929618768329,112.41446725317694,117.30205278592375,117.30205278592375,821.1143695014663,9.775171065493646
249.26686217008796,4.887585532746823,987.2922776148582,4.887585532746823,860.2150537634409,73.31378299120234,4.887585532746823
14.662756598240469,117.30205278592375,102.63929618768329,161.29032258064515,92.86412512218965,4.887585532746823,254.15444770283483
4.887585532746823,957.9667644183774,4.887585532746823,1138.8074291300097,4.887585532746823,122.18963831867057,288.36754643206257
317.6930596285435,97.75171065493646,107.52688172043011,112.41446725317694,131.96480938416423,747.800586510264,19.550342130987293
566.9599217986315,14.662756598240469,1036.1681329423266,14.662756598240469,879.7653958944283,63.53861192570871,4.887585532746823
24.437927663734115,117.30205278592375,102.63929618768329,141.73998044965788,87.97653958944282,9.775171065493646,34.21309872922776
0.0,967.741935483871,4.887585532746823,1133.919843597263,9.775171065493646,151.51515151515153,347.0185728250244
122.18963831867057,107.52688172043011,87.97653958944282,112.41446725317694,53.763440860215056,782.0136852394917,185.7282502443793
674.4868035190616,4.887585532746823,1001.9550342130987,4.887585532746823,840.6647116324535,78.20136852394917,14.662756598240469
53.763440860215056,92.86412512218965,131.96480938416423,156.40273704789834,78.20136852394917,9.775171065493646,9.775171065493646
4.887585532746823,977.5171065493646,4.887585532746823,1148.5826001955033,0.0,127.07722385141741,156.40273704789834
117.30205278592375,107.52688172043011,117.30205278592375,117.30205278592375,117.30205278592375,806.4516129032257,386.119257086999
659.824046920821,4.887585532746823,972.6295210166178,4.887585532746823,826.0019550342131,78.20136852394917,43.98826979472141
58.651026392961874,102.63929618768329,112.41446725317694,127.07722385141741,73.31378299120234,9.775171065493646,14.662756598240469
9.775171065493646,957.9667644183774,9.775171065493646,1133.919843597263,9.775171065493646,112.41446725317694,9.775171065493646
107.52688172043011,107.52688172043011,92.86412512218965,117.30205278592375,92.86412512218965,811.3391984359725,249.26686217008796
650.0488758553274,4.887585532746823,997.0674486803518,0.0,865.1026392961877,63.53861192570871,298.14271749755625
58.651026392961874,87.97653958944282,112.41446725317694,127.07722385141741,83.08895405669598,9.775171065493646,24.437927663734115
0.0,977.5171065493646,4.887585532746823,1124.1446725317692,4.887585532746823,107.52688172043011,4.887585532746823
127.07722385141741,117.30205278592375,87.97653958944282,117.30205278592375,63.53861192570871,801.5640273704789,29.325513196480937
659.824046920821,0.0,972.6295210166178,4.887585532746823,772.238514173998,78.20136852394917,361.6813294232649
53.763440860215056,87.97653958944282,112.41446725317694,136.85239491691104,78.20136852394917,9.775171065493646,180.84066471163246
0.0,967.741935483871,4.887585532746823,1143.6950146627566,4.887585532746823,102.63929618768329,4.887585532746823
117.30205278592375,107.52688172043011,97.75171065493646,122.18963831867057,112.41446725317694,772.238514173998,9.775171065493646
669.5992179863147,9.775171065493646,1016.6177908113393,0.0,816.2267839687195,78.20136852394917,122.18963831867057
58.651026392961874,73.31378299120234,107.52688172043011,117.30205278592375,87.97653958944282,4.887585532746823,371.4565004887586
4.887585532746823,967.741935483871,4.887585532746823,1143.6950146627566,4.887585532746823,117.30205278592375,48.87585532746823
92.86412512218965,112.41446725317694,78.20136852394917,127.07722385141741,92.86412512218965,786.9012707722385,4.887585532746823
640.2737047898338,4.887585532746823,1016.6177908113393,14.662756598240469,889.5405669599219,78.20136852394917,19.550342130987293
58.651026392961874,83.08895405669598,127.07722385141741,117.30205278592375,97.75171065493646,9.775171065493646,347.0185728250244
9.775171065493646,972.6295210166178,4.887585532746823,1138.8074291300097,9.775171065493646,87.97653958944282,195.50342130987292
127.07722385141741,117.30205278592375,87.97653958944282,131.96480938416423,78.20136852394917,791.7888563049853,9.775171065493646
650.0488758553274,4.887585532746823,1089.9315738025416,4.887585532746823,840.6647116324535,73.31378299120234,9.775171065493646
53.763440860215056,73.31378299120234,122.18963831867057,107.52688172043011,102.63929618768329,0.0,131.96480938416423
0.0,987.2922776148582,4.887585532746823,1153.4701857282503,4.887585532746823,112.41446725317694,371.4565004887586
87.97653958944282,117.30205278592375,68.42619745845552,131.96480938416423,68.42619745845552,816.2267839687195,48.87585532746823
664.7116324535679,4.887585532746823,1011.7302052785923,4.887585532746823,879.7653958944283,92.86412512218965,9.775171065493646
58.651026392961874,68.42619745845552,131.96480938416423,87.97653958944282,107.52688172043011,4.887585532746823,24.437927663734115
9.775171065493646,962.8543499511242,9.775171065493646,1133.919843597263,9.775171065493646,78.20136852394917,347.0185728250244
83.08895405669598,131.96480938416423,117.30205278592375,141.73998044965788,53.763440860215056,786.9012707722385,200.39100684261973
630.4985337243402,9.775171065493646,1006.8426197458455,9.775171065493646,826.0019550342131,87.97653958944282,9.775171065493646
58.651026392961874,63.53861192570871,136.85239491691104,87.97653958944282,83.08895405669598,9.775171065493646,0.0
4.887585532746823,982.4046920821114,9.775171065493646,1158.357771260997,4.887585532746823,87.97653958944282,146.6275659824047
117.30205278592375,122.18963831867057,48.87585532746823,141.73998044965788,68.42619745845552,786.9012707722385,391.00684261974584
650.0488758553274,14.662756598240469,948.1915933528836,4.887585532746823,884.6529814271751,78.20136852394917,43.98826979472141
53.763440860215056,48.87585532746823,117.30205278592375,78.20136852394917,87.97653958944282,4.887585532746823,14.662756598240469
0.0,972.6295210166178,14.662756598240469,1133.919843597263,9.775171065493646,63.53861192570871,4.887585532746823
107.52688172043011,131.96480938416423,92.86412512218965,141.73998044965788,107.52688172043011,816.2267839687195,249.26686217008796
645.1612903225806,9.775171065493646,1011.7302052785923,4.887585532746823,938.41642228739,107.52688172043011,322.5806451612903
58.651026392961874,48.87585532746823,107.52688172043011,83.08895405669598,102.63929618768329,9.775171065493646,29.325513196480937
9.775171065493646,977.5171065493646,9.775171065493646,1124.1446725317692,4.887585532746823,73.31378299120234,9.775171065493646
97.75171065493646,131.96480938416423,122.18963831867057,151.51515151515153,73.31378299120234,782.0136852394917,24.437927663734115
635.386119257087,9.775171065493646,982.4046920821114,14.662756598240469,840.6647116324535,92.86412512218965,351.9061583577713
63.53861192570871,34.21309872922776,127.07722385141741,73.31378299120234,97.75171065493646,14.662756598240469,195.50342130987292
9.775171065493646,850.4398826979472,9.775171065493646,1129.032258064516,14.662756598240469,58.651026392961874,4.887585532746823
83.08895405669598,278.5923753665689,87.97653958944282,146.6275659824047,48.87585532746823,801.5640273704789,4.887585532746823
630.4985337243402,19.550342130987293,997.0674486803518,4.887585532746823,850.4398826979472,92.86412512218965,131.96480938416423
63.53861192570871,4.887585532746823,141.73998044965788,68.42619745845552,102.63929618768329,4.887585532746823,391.00684261974584
9.775171065493646,601.1730205278593,4.887585532746823,1163.245356793744,0.0,63.53861192570871,48.87585532746823
92.86412512218965,576.7350928641251,53.763440860215056,146.6275659824047,58.651026392961874,811.3391984359725,4.887585532746823
635.386119257087,14.662756598240469,997.0674486803518,9.775171065493646,796.6764418377321,102.63929618768329,29.325513196480937
58.651026392961874,4.887585532746823,112.41446725317694,73.31378299120234,107.52688172043011,4.887585532746823,361.6813294232649
4.887585532746823,562.0723362658846,4.887585532746823,1124.1446725317692,9.775171065493646,73.31378299120234,205.27859237536657
92.86412512218965,606.0606060606061,87.97653958944282,146.6275659824047,34.21309872922776,777.1260997067449,14.662756598240469
650.0488758553274,14.662756598240469,1045.9433040078202,4.887585532746823,782.0136852394917,87.97653958944282,4.887585532746823
58.651026392961874,4.887585532746823,102.63929618768329,58.651026392961874,224.82893450635387,0.0,112.41446725317694
4.887585532746823,581.622678396872,9.775171065493646,1124.1446725317692,14.662756598240469,43.98826979472141,395.89442815249265
87.97653958944282,606.0606060606061,39.100684261974585,151.51515151515153,9.775171065493646,738.0254154447704,48.87585532746823
659.824046920821,24.437927663734115,874.8778103616814,9.775171065493646,552.297165200391,219.94134897360706,4.887585532746823
63.53861192570871,9.775171065493646,278.5923753665689,58.651026392961874,576.7350928641251,14.662756598240469,24.437927663734115
9.775171065493646,552.297165200391,9.775171065493646,1158.357771260997,14.662756598240469,0.0,347.0185728250244
92.86412512218965,606.0606060606061,9.775171065493646,156.40273704789834,0.0,581.622678396872,210.16617790811338
640.2737047898338,19.550342130987293,718.475073313783,4.887585532746823,571.8475073313783,410.55718475073314,9.775171065493646
63.53861192570871,4.887585532746823,527.8592375366569,53.763440860215056,498.5337243401759,19.550342130987293,4.887585532746823
4.887585532746823,566.9599217986315,9.775171065493646,1109.4819159335289,14.662756598240469,0.0,131.96480938416423
83.08895405669598,610.9481915933529,4.887585532746823,156.40273704789834,0.0,259.04203323558164,376.3440860215054
640.2737047898338,19.550342130987293,718.475073313783,9.775171065493646,498.5337243401759,747.800586510264,53.763440860215056
63.53861192570871,4.887585532746823,527.8592375366569,48.87585532746823,508.30889540566966,43.98826979472141,0.0
9.775171065493646,527.8592375366569,9.775171065493646,1138.8074291300097,9.775171065493646,9.775171065493646,24.437927663734115
87.97653958944282,606.0606060606061,9.775171065493646,166.17790811339196,9.775171065493646,58.651026392961874,342.1309872922776
654.9364613880742,19.550342130987293,650.0488758553274,4.887585532746823,615.8357771260997,821.1143695014663,215.05376344086022
58.651026392961874,4.887585532746823,625.6109481915934,39.100684261974585,503.42130987292273,87.97653958944282,9.775171065493646
0.0,508.30889540566966,14.662756598240469,957.9667644183774,14.662756598240469,4.887585532746823,0.0
78.20136852394917,679.3743890518084,4.887585532746823,366.5689149560117,4.887585532746823,53.763440860215056,117.30205278592375
669.5992179863147,24.437927663734115,601.1730205278593,19.550342130987293,430.10752688172045,782.0136852394917,376.3440860215054
68.42619745845552,4.887585532746823,542.5219941348973,0.0,1031.2805474095796,87.97653958944282,63.53861192570871
9.775171065493646,488.7585532746823,9.775171065493646,659.824046920821,43.98826979472141,4.887585532746823,4.887585532746823
78.20136852394917,537.6344086021505,4.887585532746823,689.149560117302,9.775171065493646,58.651026392961874,24.437927663734115
630.4985337243402,9.775171065493646,635.386119257087,14.662756598240469,249.26686217008796,796.6764418377321,347.0185728250244
63.53861192570871,0.0,645.1612903225806,0.0,806.4516129032257,102.63929618768329,210.16617790811338
4.887585532746823,474.0957966764418,14.662756598240469,650.0488758553274,58.651026392961874,4.887585532746823,4.887585532746823
73.31378299120234,1241.446725317693,4.887585532746823,708.6999022482894,4.887585532746823,39.100684261974585,4.887585532746823
645.1612903225806,58.651026392961874,591.3978494623656,19.550342130987293,215.05376344086022,679.3743890518084,127.07722385141741
68.42619745845552,4.887585532746823,620.7233626588466,4.887585532746823,791.7888563049853,215.05376344086022,386.119257086999
4.887585532746823,508.30889540566966,24.437927663734115,650.0488758553274,48.87585532746823,4.887585532746823,53.763440860215056
83.08895405669598,654.9364613880742,4.887585532746823,728.2502443792766,9.775171065493646,4.887585532746823,9.775171065493646
635.386119257087,14.662756598240469,576.7350928641251,19.550342130987293,259.04203323558164,503.42130987292273,19.550342130987293
68.42619745845552,4.887585532746823,547.4095796676442,0.0,845.5522971652003,434.99511241446726,342.1309872922776
4.887585532746823,498.5337243401759,9.775171065493646,674.4868035190616,48.87585532746823,29.325513196480937,195.50342130987292
83.08895405669598,645.1612903225806,4.887585532746823,747.800586510264,9.775171065493646,9.775171065493646,19.550342130987293
664.7116324535679,14.662756598240469,654.9364613880742,24.437927663734115,205.27859237536657,254.15444770283483,0.0
68.42619745845552,4.887585532746823,518.0840664711633,0.0,821.1143695014663,801.5640273704789,122.18963831867057
0.0,434.99511241446726,14.662756598240469,606.0606060606061,48.87585532746823,58.651026392961874,371.4565004887586
83.08895405669598,830.8895405669599,4.887585532746823,747.800586510264,4.887585532746823,0.0,48.87585532746823
679.3743890518084,48.87585532746823,601.1730205278593,24.437927663734115,171.0654936461388,249.26686217008796,0.0
73.31378299120234,4.887585532746823,615.8357771260997,4.887585532746823,459.4330400782014,782.0136852394917,9.775171065493646
4.887585532746823,518.0840664711633,19.550342130987293,620.7233626588466,78.20136852394917,48.87585532746823,332.35581622678393
78.20136852394917,650.0488758553274,9.775171065493646,742.9130009775172,0.0,4.887585532746823,210.16617790811338
664.7116324535679,14.662756598240469,596.2854349951125,24.437927663734115,9.775171065493646,254.15444770283483,14.662756598240469
68.42619745845552,0.0,625.6109481915934,0.0,1055.7184750733138,796.6764418377321,9.775171065493646
0.0,395.89442815249265,9.775171065493646,601.1730205278593,200.39100684261973,58.651026392961874,122.18963831867057
73.31378299120234,869.9902248289345,4.887585532746823,767.3509286412512,14.662756598240469,4.887585532746823,381.2316715542522
650.0488758553274,43.98826979472141,596.2854349951125,24.437927663734115,9.775171065493646,278.5923753665689,43.98826979472141
68.42619745845552,9.775171065493646,566.9599217986315,4.887585532746823,371.4565004887586,782.0136852394917,4.887585532746823
4.887585532746823,278.5923753665689,14.662756598240469,566.9599217986315,738.0254154447704,48.87585532746823,4.887585532746823
68.42619745845552,1129.032258064516,9.775171065493646,747.800586510264,29.325513196480937,9.775171065493646,263.92961876832845
640.2737047898338,92.86412512218965,571.8475073313783,19.550342130987293,9.775171065493646,215.05376344086022,317.6930596285435
63.53861192570871,9.775171065493646,566.9599217986315,9.775171065493646,268.81720430107526,816.2267839687195,29.325513196480937
14.662756598240469,87.97653958944282,14.662756598240469,596.2854349951125,869.9902248289345,63.53861192570871,4.887585532746823
68.42619745845552,723.3626588465298,4.887585532746823,738.0254154447704,63.53861192570871,9.775171065493646,14.662756598240469
650.0488758553274,107.52688172043011,576.7350928641251,24.437927663734115,4.887585532746823,215.05376344086022,356.7937438905181
68.42619745845552,4.887585532746823,591.3978494623656,9.775171065493646,136.85239491691104,860.2150537634409,229.7165200391007
9.775171065493646,273.7047898338221,14.662756598240469,464.3206256109482,840.6647116324535,53.763440860215056,14.662756598240469
63.53861192570871,1070.3812316715544,4.887585532746823,957.9667644183774,53.763440860215056,9.775171065493646,4.887585532746823
630.4985337243402,92.86412512218965,645.1612903225806,48.87585532746823,4.887585532746823,219.94134897360706,117.30205278592375
68.42619745845552,4.887585532746823,654.9364613880742,0.0,229.7165200391007,791.7888563049853,371.4565004887586
4.887585532746823,278.5923753665689,19.550342130987293,464.3206256109482,816.2267839687195,53.763440860215056,48.87585532746823
73.31378299120234,1080.156402737048,4.887585532746823,1016.6177908113393,53.763440860215056,4.887585532746823,4.887585532746823
645.1612903225806,112.41446725317694,557.1847507331378,48.87585532746823,0.0,239.49169110459434,19.550342130987293
68.42619745845552,9.775171065493646,513.1964809384165,4.887585532746823,224.82893450635387,835.7771260997067,342.1309872922776
9.775171065493646,112.41446725317694,14.662756598240469,566.9599217986315,830.8895405669599,63.53861192570871,219.94134897360706
87.97653958944282,791.7888563049853,9.775171065493646,957.9667644183774,68.42619745845552,9.775171065493646,14.662756598240469
664.7116324535679,127.07722385141741,640.2737047898338,34.21309872922776,4.887585532746823,195.50342130987292,4.887585532746823
63.53861192570871,4.887585532746823,503.42130987292273,4.887585532746823,244.37927663734115,762.4633431085044,107.52688172043011
9.775171065493646,117.30205278592375,24.437927663734115,464.3206256109482,943.3040078201368,53.763440860215056,381.2316715542522
68.42619745845552,904.2033235581623,0.0,1021.5053763440861,78.20136852394917,4.887585532746823,48.87585532746823
620.7233626588466,73.31378299120234,522.9716520039101,48.87585532746823,4.887585532746823,190.6158357771261,9.775171065493646
68.42619745845552,9.775171065493646,645.1612903225806,4.887585532746823,92.86412512218965,742.9130009775172,14.662756598240469
4.887585532746823,307.91788856304987,19.550342130987293,816.2267839687195,738.0254154447704,53.763440860215056,322.5806451612903
63.53861192570871,977.5171065493646,4.887585532746823,552.297165200391,63.53861192570871,0.0,224.82893450635387
625.6109481915934,78.20136852394917,596.2854349951125,9.775171065493646,9.775171065493646,210.16617790811338,19.550342130987293
63.53861192570871,4.887585532746823,826.0019550342131,9.775171065493646,166.17790811339196,816.2267839687195,0.0
14.662756598240469,180.84066471163246,19.550342130987293,263.92961876832845,928.6412512218964,68.42619745845552,131.96480938416423
58.651026392961874,1192.570869990225,0.0,1094.8191593352883,78.20136852394917,9.775171065493646,400.78201368523946
620.7233626588466,112.41446725317694,518.0840664711633,73.31378299120234,4.887585532746823,200.39100684261973,48.87585532746823
63.53861192570871,4.887585532746823,728.2502443792766,14.662756598240469,156.40273704789834,806.4516129032257,9.775171065493646
4.887585532746823,107.52688172043011,19.550342130987293,459.4330400782014,923.7536656891496,63.53861192570871,19.550342130987293
53.763440860215056,884.6529814271751,0.0,1124.1446725317692,97.75171065493646,14.662756598240469,332.35581622678393
650.0488758553274,117.30205278592375,615.8357771260997,122.18963831867057,4.887585532746823,215.05376344086022,234.6041055718475
73.31378299120234,9.775171065493646,332.35581622678393,9.775171065493646,224.82893450635387,464.3206256109482,19.550342130987293
4.887585532746823,166.17790811339196,9.775171065493646,371.4565004887586,791.7888563049853,131.96480938416423,4.887585532746823
63.53861192570871,938.41642228739,0.0,1060.6060606060607,83.08895405669598,4.887585532746823,92.86412512218965
640.2737047898338,73.31378299120234,420.33235581622677,43.98826979472141,4.887585532746823,9.775171065493646,371.4565004887586
83.08895405669598,4.887585532746823,1510.2639296187683,9.775171065493646,117.30205278592375,625.6109481915934,53.763440860215056
9.775171065493646,68.42619745845552,92.86412512218965,166.17790811339196,884.6529814271751,244.37927663734115,4.887585532746823
19.550342130987293,1016.6177908113393,4.887585532746823,982.4046920821114,63.53861192570871,14.662756598240469,9.775171065493646
488.7585532746823,117.30205278592375,679.3743890518084,53.763440860215056,4.887585532746823,4.887585532746823,337.2434017595308
156.40273704789834,4.887585532746823,1158.357771260997,4.887585532746823,122.18963831867057,405.6695992179863,234.6041055718475
4.887585532746823,19.550342130987293,48.87585532746823,39.100684261974585,811.3391984359725,615.8357771260997,4.887585532746823
9.775171065493646,610.9481915933529,0.0,728.2502443792766,63.53861192570871,19.550342130987293,0.0
303.03030303030306,356.7937438905181,547.4095796676442,288.36754643206257,0.0,4.887585532746823,97.75171065493646
400.78201368523946,14.662756598240469,630.4985337243402,9.775171065493646,87.97653958944282,190.6158357771261,386.119257086999
34.21309872922776,14.662756598240469,19.550342130987293,161.29032258064515,811.3391984359725,747.800586510264,58.651026392961874
9.775171065493646,782.0136852394917,9.775171065493646,1554.2521994134897,122.18963831867057,68.42619745845552,4.887585532746823
14.662756598240469,542.5219941348973,9.775171065493646,200.39100684261973,4.887585532746823,9.775171065493646,14.662756598240469
483.8709677419355,14.662756598240469,694.0371456500488,9.775171065493646,127.07722385141741,166.17790811339196,332.35581622678393
298.14271749755625,9.775171065493646,430.10752688172045,0.0,752.6881720430108,625.6109481915934,234.6041055718475
19.550342130987293,625.6109481915934,19.550342130987293,782.0136852394917,112.41446725317694,68.42619745845552,24.437927663734115
0.0,503.42130987292273,58.651026392961874,694.0371456500488,4.887585532746823,4.887585532746823,0.0
562.0723362658846,19.550342130987293,757.5757575757576,24.437927663734115,224.82893450635387,434.99511241446726,112.41446725317694
713.5874877810362,58.651026392961874,278.5923753665689,4.887585532746823,840.6647116324535,664.7116324535679,376.3440860215054
29.325513196480937,948.1915933528836,19.550342130987293,933.5288367546432,112.41446725317694,34.21309872922776,53.763440860215056
4.887585532746823,234.6041055718475,63.53861192570871,518.0840664711633,9.775171065493646,0.0,4.887585532746823
68.42619745845552,14.662756598240469,1173.0205278592375,14.662756598240469,141.73998044965788,0.0,14.662756598240469
317.6930596285435,4.887585532746823,58.651026392961874,0.0,786.9012707722385,801.5640273704789,332.35581622678393
92.86412512218965,596.2854349951125,141.73998044965788,928.6412512218964,122.18963831867057,259.04203323558164,234.6041055718475
9.775171065493646,762.4633431085044,303.03030303030306,904.2033235581623,4.887585532746823,4.887585532746823,9.775171065493646
39.100684261974585,29.325513196480937,1192.570869990225,29.325513196480937,141.73998044965788,4.887585532746823,4.887585532746823
439.8826979472141,4.887585532746823,34.21309872922776,9.775171065493646,811.3391984359725,405.6695992179863,92.86412512218965
210.16617790811338,171.0654936461388,48.87585532746823,762.4633431085044,73.31378299120234,654.9364613880742,381.2316715542522
24.437927663734115,835.7771260997067,210.16617790811338,303.03030303030306,4.887585532746823,29.325513196480937,58.651026392961874
0.0,83.08895405669598,977.5171065493646,19.550342130987293,107.52688172043011,19.550342130987293,14.662756598240469
439.8826979472141,180.84066471163246,449.65786901270775,4.887585532746823,801.5640273704789,263.92961876832845,4.887585532746823
674.4868035190616,997.0674486803518,29.325513196480937,239.49169110459434,78.20136852394917,1119.2570869990225,312.8054740957967
73.31378299120234,376.3440860215054,1700.8797653958943,1598.2404692082112,0.0,97.75171065493646,229.7165200391007
0.0,34.21309872922776,327.4682306940371,131.96480938416423,386.119257086999,9.775171065493646,14.662756598240469
48.87585532746823,0.0,430.10752688172045,0.0,713.5874877810362,694.0371456500488,4.887585532746823
1192.570869990225,865.1026392961877,19.550342130987293,332.35581622678393,83.08895405669598,1231.6715542521995,97.75171065493646
166.17790811339196,205.27859237536657,415.44477028347995,987.2922776148582,4.887585532746823,58.651026392961874,381.2316715542522
9.775171065493646,14.662756598240469,830.8895405669599,112.41446725317694,322.5806451612903,9.775171065493646,58.651026392961874
131.96480938416423,0.0,381.2316715542522,9.775171065493646,816.2267839687195,625.6109481915934,9.775171065493646
361.6813294232649,918.8660801564027,63.53861192570871,557.1847507331378,68.42619745845552,381.2316715542522,9.775171065493646
141.73998044965788,478.9833822091887,1060.6060606060607,777.1260997067449,0.0,34.21309872922776,332.35581622678393
9.775171065493646,219.94134897360706,68.42619745845552,43.98826979472141,175.95307917888564,9.775171065493646,224.82893450635387
63.53861192570871,532.7468230694037,4.887585532746823,14.662756598240469,918.8660801564027,0.0,14.662756598240469
865.1026392961877,430.10752688172045,1236.5591397849462,366.5689149560117,92.86412512218965,782.0136852394917,9.775171065493646
156.40273704789834,703.8123167155426,659.824046920821,1241.446725317693,9.775171065493646,234.6041055718475,107.52688172043011
9.775171065493646,19.550342130987293,356.7937438905181,78.20136852394917,219.94134897360706,19.550342130987293,381.2316715542522
4.887585532746823,24.437927663734115,19.550342130987293,9.775171065493646,772.238514173998,4.887585532746823,58.651026392961874
215.05376344086022,1295.2101661779081,337.2434017595308,87.97653958944282,117.30205278592375,977.5171065493646,4.887585532746823
327.4682306940371,337.2434017595308,640.2737047898338,1432.0625610948193,9.775171065493646,239.49169110459434,4.887585532746823
19.550342130987293,19.550342130987293,698.9247311827957,63.53861192570871,127.07722385141741,19.550342130987293,317.6930596285435
0.0,4.887585532746823,14.662756598240469,4.887585532746823,782.0136852394917,347.0185728250244,244.37927663734115
34.21309872922776,386.119257086999,92.86412512218965,200.39100684261973,73.31378299120234,576.7350928641251,14.662756598240469
532.7468230694037,317.6930596285435,2130.987292277615,1021.5053763440861,9.775171065493646,43.98826979472141,0.0
298.14271749755625,24.437927663734115,63.53861192570871,73.31378299120234,127.07722385141741,4.887585532746823,87.97653958944282
24.437927663734115,4.887585532746823,205.27859237536657,9.775171065493646,850.4398826979472,39.100684261974585,391.00684261974584
9.775171065493646,0.0,249.26686217008796,483.8709677419355,112.41446725317694,4.887585532746823,63.53861192570871
283.47996089931576,107.52688172043011,953.0791788856305,1388.0742913000977,4.887585532746823,747.800586510264,4.887585532746823
596.2854349951125,1539.5894428152492,43.98826979472141,78.20136852394917,48.87585532746823,180.84066471163246,4.887585532746823
24.437927663734115,34.21309872922776,9.775171065493646,9.775171065493646,869.9902248289345,78.20136852394917,322.5806451612903
9.775171065493646,557.1847507331378,122.18963831867057,342.1309872922776,83.08895405669598,73.31378299120234,239.49169110459434
562.0723362658846,83.08895405669598,2233.626588465298,1099.7067448680352,9.775171065493646,1412.512218963832,9.775171065493646
376.3440860215054,3054.7409579667647,102.63929618768329,53.763440860215056,239.49169110459434,58.651026392961874,9.775171065493646
19.550342130987293,92.86412512218965,9.775171065493646,4.887585532746823,904.2033235581623,4.887585532746823,87.97653958944282
9.775171065493646,782.0136852394917,464.3206256109482,356.7937438905181,117.30205278592375,161.29032258064515,376.3440860215054
303.03030303030306,874.8778103616814,542.5219941348973,943.3040078201368,4.887585532746823,997.0674486803518,58.651026392961874
537.6344086021505,102.63929618768329,215.05376344086022,68.42619745845552,63.53861192570871,83.08895405669598,4.887585532746823
19.550342130987293,0.0,4.887585532746823,9.775171065493646,982.4046920821114,4.887585532746823,9.775171065493646
4.887585532746823,317.6930596285435,337.2434017595308,347.0185728250244,87.97653958944282,210.16617790811338,332.35581622678393
9.775171065493646,1031.2805474095796,1515.1515151515152,1133.919843597263,9.775171065493646,708.6999022482894,229.7165200391007
278.5923753665689,117.30205278592375,83.08895405669598,39.100684261974585,73.31378299120234,239.49169110459434,14.662756598240469
542.5219941348973,127.07722385141741,4.887585532746823,9.775171065493646,894.4281524926687,14.662756598240469,0.0
14.662756598240469,39.100684261974585,4.887585532746823,43.98826979472141,122.18963831867057,347.0185728250244,87.97653958944282
4.887585532746823,728.2502443792766,1383.1867057673508,1637.3411534701856,9.775171065493646,493.6461388074291,381.2316715542522
263.92961876832845,19.550342130987293,566.9599217986315,185.7282502443793,68.42619745845552,19.550342130987293,53.763440860215056
351.9061583577713,923.7536656891496,97.75171065493646,9.775171065493646,1075.268817204301,9.775171065493646,9.775171065493646
19.550342130987293,557.1847507331378,439.8826979472141,0.0,102.63929618768329,273.7047898338221,14.662756598240469
0.0,259.04203323558164,566.9599217986315,527.8592375366569,4.887585532746823,1119.2570869990225,342.1309872922776
175.95307917888564,48.87585532746823,78.20136852394917,855.327468230694,0.0,366.5689149560117,249.26686217008796
962.8543499511242,0.0,14.662756598240469,24.437927663734115,865.1026392961877,24.437927663734115,19.550342130987293
73.31378299120234,742.9130009775172,278.5923753665689,9.775171065493646,283.47996089931576,9.775171065493646,4.887585532746823
4.887585532746823,405.6695992179863,1466.275659824047,596.2854349951125,9.775171065493646,586.5102639296188,87.97653958944282
175.95307917888564,24.437927663734115,73.31378299120234,566.9599217986315,4.887585532746823,591.3978494623656,391.00684261974584
694.0371456500488,1119.2570869990225,9.775171065493646,19.550342130987293,576.7350928641251,19.550342130987293,58.651026392961874
97.75171065493646,532.7468230694037,219.94134897360706,4.887585532746823,518.0840664711633,39.100684261974585,0.0
9.775171065493646,175.95307917888564,1173.0205278592375,762.4633431085044,9.775171065493646,1187.683284457478,9.775171065493646
19.550342130987293,43.98826979472141,68.42619745845552,439.8826979472141,4.887585532746823,117.30205278592375,322.5806451612903
464.3206256109482,97.75171065493646,39.100684261974585,24.437927663734115,757.5757575757576,9.775171065493646,244.37927663734115
420.33235581622677,356.7937438905181,757.5757575757576,4.887585532746823,576.7350928641251,0.0,19.550342130987293
19.550342130987293,972.6295210166178,581.622678396872,327.4682306940371,14.662756598240469,342.1309872922776,9.775171065493646
0.0,24.437927663734115,19.550342130987293,1060.6060606060607,0.0,1129.032258064516,78.20136852394917
210.16617790811338,4.887585532746823,4.887585532746823,73.31378299120234,615.8357771260997,58.651026392961874,400.78201368523946
508.30889540566966,366.5689149560117,215.05376344086022,9.775171065493646,713.5874877810362,4.887585532746823,68.42619745845552
19.550342130987293,2170.0879765395894,1021.5053763440861,420.33235581622677,24.437927663734115,351.9061583577713,9.775171065493646
0.0,58.651026392961874,356.7937438905181,1094.8191593352883,4.887585532746823,610.9481915933529,9.775171065493646
122.18963831867057,4.887585532746823,19.550342130987293,63.53861192570871,694.0371456500488,24.437927663734115,327.4682306940371
664.7116324535679,117.30205278592375,444.77028347996094,0.0,483.8709677419355,0.0,259.04203323558164
87.97653958944282,1177.9081133919844,1085.0439882697947,92.86412512218965,29.325513196480937,63.53861192570871,14.662756598240469
4.887585532746823,400.78201368523946,107.52688172043011,1803.5190615835777,0.0,708.6999022482894,0.0
4.887585532746823,293.2551319648094,14.662756598240469,102.63929618768329,327.4682306940371,361.6813294232649,78.20136852394917
620.7233626588466,215.05376344086022,391.00684261974584,4.887585532746823,918.8660801564027,19.550342130987293,405.6695992179863
102.63929618768329,1881.720430107527,909.0909090909091,337.2434017595308,58.651026392961874,136.85239491691104,68.42619745845552
4.887585532746823,107.52688172043011,48.87585532746823,1119.2570869990225,9.775171065493646,708.6999022482894,4.887585532746823
14.662756598240469,87.97653958944282,0.0,92.86412512218965,371.4565004887586,175.95307917888564,9.775171065493646
381.2316715542522,1744.868035190616,840.6647116324535,0.0,943.3040078201368,4.887585532746823,312.8054740957967
469.208211143695,293.2551319648094,777.1260997067449,513.1964809384165,73.31378299120234,180.84066471163246,234.6041055718475
39.100684261974585,14.662756598240469,19.550342130987293,1021.5053763440861,4.887585532746823,918.8660801564027,14.662756598240469
4.887585532746823,0.0,4.887585532746823,43.98826979472141,366.5689149560117,34.21309872922776,0.0
63.53861192570871,821.1143695014663,488.7585532746823,4.887585532746823,962.8543499511242,9.775171065493646,92.86412512218965
562.0723362658846,640.2737047898338,782.0136852394917,342.1309872922776,58.651026392961874,4.887585532746823,405.6695992179863
87.97653958944282,19.550342130987293,24.437927663734115,1202.3460410557186,9.775171065493646,664.7116324535679,63.53861192570871
9.775171065493646,327.4682306940371,9.775171065493646,92.86412512218965,420.33235581622677,342.1309872922776,0.0
4.887585532746823,464.3206256109482,464.3206256109482,4.887585532746823,953.0791788856305,24.437927663734115,9.775171065493646
454.54545454545456,68.42619745845552,1021.5053763440861,391.00684261974584,68.42619745845552,9.775171065493646,332.35581622678393
488.7585532746823,78.20136852394917,43.98826979472141,1045.9433040078202,9.775171065493646,180.84066471163246,254.15444770283483
14.662756598240469,1334.3108504398826,4.887585532746823,87.97653958944282,234.6041055718475,855.327468230694,14.662756598240469
14.662756598240469,586.5102639296188,141.73998044965788,4.887585532746823,918.8660801564027,63.53861192570871,9.775171065493646
342.1309872922776,73.31378299120234,1207.2336265884653,161.29032258064515,68.42619745845552,9.775171065493646,87.97653958944282
351.9061583577713,48.87585532746823,68.42619745845552,1402.737047898338,0.0,376.3440860215054,420.33235581622677
29.325513196480937,376.3440860215054,0.0,175.95307917888564,239.49169110459434,865.1026392961877,63.53861192570871
9.775171065493646,1520.039100684262,39.100684261974585,4.887585532746823,1124.1446725317692,43.98826979472141,4.887585532746823
0.0,73.31378299120234,410.55718475073314,146.6275659824047,48.87585532746823,9.775171065493646,4.887585532746823
493.6461388074291,9.775171065493646,1422.2873900293257,1011.7302052785923,0.0,131.96480938416423,307.91788856304987
97.75171065493646,337.2434017595308,34.21309872922776,185.7282502443793,278.5923753665689,874.8778103616814,249.26686217008796
9.775171065493646,615.8357771260997,73.31378299120234,9.775171065493646,987.2922776148582,303.03030303030306,14.662756598240469
4.887585532746823,58.651026392961874,1045.9433040078202,263.92961876832845,68.42619745845552,14.662756598240469,4.887585532746823
478.9833822091887,9.775171065493646,444.77028347996094,1026.392961876833,9.775171065493646,19.550342130987293,73.31378299120234
498.5337243401759,488.7585532746823,24.437927663734115,83.08895405669598,175.95307917888564,821.1143695014663,420.33235581622677
14.662756598240469,215.05376344086022,4.887585532746823,0.0,1050.830889540567,185.7282502443793,68.42619745845552
0.0,889.5405669599219,928.6412512218964,259.04203323558164,83.08895405669598,9.775171065493646,4.887585532746823
210.16617790811338,19.550342130987293,610.9481915933529,1182.7956989247311,4.887585532746823,9.775171065493646,4.887585532746823
542.5219941348973,337.2434017595308,34.21309872922776,87.97653958944282,185.7282502443793,474.0957966764418,307.91788856304987
34.21309872922776,718.475073313783,14.662756598240469,9.775171065493646,938.41642228739,806.4516129032257,259.04203323558164
4.887585532746823,14.662756598240469,586.5102639296188,234.6041055718475,58.651026392961874,29.325513196480937,14.662756598240469
4.887585532746823,63.53861192570871,826.0019550342131,1133.919843597263,9.775171065493646,9.775171065493646,4.887585532746823
386.119257086999,1221.8963831867059,24.437927663734115,102.63929618768329,215.05376344086022,307.91788856304987,73.31378299120234
503.42130987292273,566.9599217986315,4.887585532746823,0.0,953.0791788856305,894.4281524926687,391.00684261974584
14.662756598240469,9.775171065493646,865.1026392961877,454.54545454545456,73.31378299120234,53.763440860215056,58.651026392961874
4.887585532746823,224.82893450635387,434.99511241446726,1358.7487781036168,0.0,4.887585532746823,0.0
298.14271749755625,1681.329423264907,29.325513196480937,102.63929618768329,268.81720430107526,254.15444770283483,9.775171065493646
395.89442815249265,434.99511241446726,9.775171065493646,4.887585532746823,1070.3812316715544,874.8778103616814,337.2434017595308
43.98826979472141,19.550342130987293,869.9902248289345,190.6158357771261,58.651026392961874,68.42619745845552,254.15444770283483
14.662756598240469,4.887585532746823,298.14271749755625,1182.7956989247311,9.775171065493646,0.0,14.662756598240469
151.51515151515153,610.9481915933529,39.100684261974585,73.31378299120234,249.26686217008796,513.1964809384165,9.775171065493646
650.0488758553274,576.7350928641251,4.887585532746823,9.775171065493646,928.6412512218964,571.8475073313783,87.97653958944282
73.31378299120234,29.325513196480937,410.55718475073314,200.39100684261973,78.20136852394917,24.437927663734115,395.89442815249265
4.887585532746823,9.775171065493646,1055.7184750733138,1114.3695014662756,9.775171065493646,0.0,68.42619745845552
127.07722385141741,0.0,107.52688172043011,92.86412512218965,229.7165200391007,386.119257086999,0.0
464.3206256109482,1045.9433040078202,4.887585532746823,0.0,938.41642228739,742.9130009775172,9.775171065493646
136.85239491691104,43.98826979472141,156.40273704789834,136.85239491691104,73.31378299120234,78.20136852394917,312.8054740957967
9.775171065493646,4.887585532746823,1041.0557184750733,1143.6950146627566,9.775171065493646,4.887585532746823,254.15444770283483
0.0,1246.3343108504398,156.40273704789834,107.52688172043011,34.21309872922776,312.8054740957967,24.437927663734115
259.04203323558164,992.179863147605,14.662756598240469,4.887585532746823,928.6412512218964,933.5288367546432,0.0
405.6695992179863,43.98826979472141,166.17790811339196,219.94134897360706,175.95307917888564,73.31378299120234,68.42619745845552
48.87585532746823,4.887585532746823,1177.9081133919844,1197.4584555229717,4.887585532746823,0.0,391.00684261974584
9.775171065493646,1026.392961876833,161.29032258064515,102.63929618768329,24.437927663734115,122.18963831867057,73.31378299120234
146.6275659824047,738.0254154447704,4.887585532746823,0.0,855.327468230694,786.9012707722385,0.0
513.1964809384165,58.651026392961874,0.0,273.7047898338221,342.1309872922776,63.53861192570871,4.887585532746823
34.21309872922776,0.0,806.4516129032257,1099.7067448680352,19.550342130987293,4.887585532746823,317.6930596285435
4.887585532746823,1896.3831867057672,361.6813294232649,107.52688172043011,4.887585532746823,24.437927663734115,263.92961876832845
9.775171065493646,1608.0156402737048,14.662756598240469,4.887585532746823,562.0723362658846,786.9012707722385,14.662756598240469
650.0488758553274,58.651026392961874,4.887585532746823,239.49169110459434,562.0723362658846,141.73998044965788,4.887585532746823
151.51515151515153,14.662756598240469,865.1026392961877,933.5288367546432,19.550342130987293,4.887585532746823,68.42619745845552
4.887585532746823,957.9667644183774,938.41642228739,146.6275659824047,4.887585532746823,34.21309872922776,386.119257086999
4.887585532746823,312.8054740957967,29.325513196480937,9.775171065493646,483.8709677419355,615.8357771260997,68.42619745845552
454.54545454545456,24.437927663734115,9.775171065493646,151.51515151515153,884.6529814271751,283.47996089931576,9.775171065493646
503.42130987292273,0.0,625.6109481915934,1114.3695014662756,34.21309872922776,19.550342130987293,4.887585532746823
19.550342130987293,601.1730205278593,713.5874877810362,146.6275659824047,9.775171065493646,9.775171065493646,303.03030303030306
4.887585532746823,522.9716520039101,24.437927663734115,9.775171065493646,185.7282502443793,527.8592375366569,249.26686217008796
127.07722385141741,9.775171065493646,9.775171065493646,117.30205278592375,1055.7184750733138,518.0840664711633,14.662756598240469
659.824046920821,4.887585532746823,552.297165200391,1075.268817204301,83.08895405669598,9.775171065493646,9.775171065493646
53.763440860215056,821.1143695014663,381.2316715542522,112.41446725317694,0.0,4.887585532746823,73.31378299120234
9.775171065493646,1070.3812316715544,58.651026392961874,4.887585532746823,239.49169110459434,356.7937438905181,391.00684261974584
175.95307917888564,39.100684261974585,4.887585532746823,210.16617790811338,982.4046920821114,738.0254154447704,78.20136852394917
571.8475073313783,0.0,982.4046920821114,1104.594330400782,83.08895405669598,53.763440860215056,14.662756598240469
34.21309872922776,136.85239491691104,566.9599217986315,102.63929618768329,0.0,9.775171065493646,4.887585532746823
4.887585532746823,1666.6666666666665,19.550342130987293,9.775171065493646,92.86412512218965,356.7937438905181,307.91788856304987
9.775171065493646,87.97653958944282,9.775171065493646,107.52688172043011,928.6412512218964,772.238514173998,239.49169110459434
371.4565004887586,0.0,581.622678396872,1143.6950146627566,83.08895405669598,29.325513196480937,9.775171065493646
483.8709677419355,356.7937438905181,869.9902248289345,112.41446725317694,4.887585532746823,0.0,0.0
29.325513196480937,547.4095796676442,19.550342130987293,9.775171065493646,224.82893450635387,175.95307917888564,68.42619745845552
4.887585532746823,34.21309872922776,4.887585532746823,53.763440860215056,1021.5053763440861,967.741935483871,381.2316715542522
185.7282502443793,4.887585532746823,645.1612903225806,1300.0977517106548,92.86412512218965,39.100684261974585,58.651026392961874
503.42130987292273,259.04203323558164,811.3391984359725,117.30205278592375,0.0,4.887585532746823,9.775171065493646
58.651026392961874,1207.2336265884653,19.550342130987293,9.775171065493646,171.0654936461388,19.550342130987293,9.775171065493646
4.887585532746823,39.100684261974585,9.775171065493646,171.0654936461388,953.0791788856305,694.0371456500488,298.14271749755625
161.29032258064515,0.0,689.149560117302,1060.6060606060607,92.86412512218965,249.26686217008796,239.49169110459434
459.4330400782014,4.887585532746823,782.0136852394917,83.08895405669598,4.887585532746823,14.662756598240469,14.662756598240469
175.95307917888564,508.30889540566966,19.550342130987293,4.887585532746823,210.16617790811338,0.0,0.0
4.887585532746823,532.7468230694037,9.775171065493646,127.07722385141741,997.0674486803518,376.3440860215054,68.42619745845552
14.662756598240469,19.550342130987293,669.5992179863147,1221.8963831867059,87.97653958944282,664.7116324535679,381.2316715542522
483.8709677419355,14.662756598240469,430.10752688172045,146.6275659824047,4.887585532746823,24.437927663734115,58.651026392961874
381.2316715542522,0.0,24.437927663734115,9.775171065493646,156.40273704789834,4.887585532746823,9.775171065493646
24.437927663734115,3225.806451612903,0.0,127.07722385141741,1016.6177908113393,283.47996089931576,9.775171065493646
4.887585532746823,200.39100684261973,376.3440860215054,1173.0205278592375,97.75171065493646,654.9364613880742,283.47996089931576
107.52688172043011,19.550342130987293,1036.1681329423266,141.73998044965788,9.775171065493646,58.651026392961874,244.37927663734115
518.0840664711633,303.03030303030306,117.30205278592375,4.887585532746823,122.18963831867057,4.887585532746823,14.662756598240469
39.100684261974585,141.73998044965788,0.0,117.30205278592375,992.179863147605,83.08895405669598,9.775171065493646
4.887585532746823,1089.9315738025416,322.5806451612903,1124.1446725317692,87.97653958944282,977.5171065493646,83.08895405669598
4.887585532746823,29.325513196480937,1006.8426197458455,112.41446725317694,0.0,73.31378299120234,386.119257086999
434.99511241446726,650.0488758553274,73.31378299120234,4.887585532746823,58.651026392961874,9.775171065493646,63.53861192570871
283.47996089931576,669.5992179863147,9.775171065493646,92.86412512218965,1001.9550342130987,102.63929618768329,0.0
19.550342130987293,29.325513196480937,454.54545454545456,1177.9081133919844,92.86412512218965,821.1143695014663,14.662756598240469
0.0,4.887585532746823,1085.0439882697947,112.41446725317694,0.0,58.651026392961874,303.03030303030306
73.31378299120234,342.1309872922776,78.20136852394917,9.775171065493646,175.95307917888564,4.887585532746823,254.15444770283483
562.0723362658846,1246.3343108504398,9.775171065493646,58.651026392961874,928.6412512218964,156.40273704789834,14.662756598240469
43.98826979472141,102.63929618768329,244.37927663734115,1187.683284457478,92.86412512218965,909.0909090909091,4.887585532746823
9.775171065493646,4.887585532746823,1124.1446725317692,87.97653958944282,14.662756598240469,78.20136852394917,53.763440860215056
19.550342130987293,141.73998044965788,127.07722385141741,4.887585532746823,161.29032258064515,4.887585532746823,391.00684261974584
464.3206256109482,786.9012707722385,9.775171065493646,171.0654936461388,977.5171065493646,161.29032258064515,68.42619745845552
229.7165200391007,83.08895405669598,239.49169110459434,1094.8191593352883,87.97653958944282,962.8543499511242,0.0
14.662756598240469,19.550342130987293,1011.7302052785923,97.75171065493646,9.775171065493646,107.52688172043011,9.775171065493646
0.0,29.325513196480937,83.08895405669598,9.775171065493646,127.07722385141741,4.887585532746823,293.2551319648094
190.6158357771261,777.1260997067449,9.775171065493646,58.651026392961874,923.7536656891496,97.75171065493646,273.7047898338221
488.7585532746823,371.4565004887586,224.82893450635387,1094.8191593352883,83.08895405669598,1036.1681329423266,14.662756598240469
68.42619745845552,24.437927663734115,1392.9618768328444,151.51515151515153,9.775171065493646,58.651026392961874,9.775171065493646
14.662756598240469,938.41642228739,63.53861192570871,4.887585532746823,73.31378299120234,9.775171065493646,63.53861192570871
87.97653958944282,728.2502443792766,0.0,63.53861192570871,1031.2805474095796,205.27859237536657,395.89442815249265
610.9481915933529,464.3206256109482,190.6158357771261,1133.919843597263,112.41446725317694,752.6881720430108,73.31378299120234
24.437927663734115,29.325513196480937,1011.7302052785923,136.85239491691104,4.887585532746823,73.31378299120234,4.887585532746823
4.887585532746823,195.50342130987292,102.63929618768329,4.887585532746823,63.53861192570871,4.887585532746823,9.775171065493646
48.87585532746823,1021.5053763440861,4.887585532746823,53.763440860215056,977.5171065493646,166.17790811339196,293.2551319648094
527.8592375366569,102.63929618768329,249.26686217008796,1207.2336265884653,117.30205278592375,835.7771260997067,263.92961876832845
63.53861192570871,9.775171065493646,987.2922776148582,146.6275659824047,9.775171065493646,78.20136852394917,19.550342130987293
4.887585532746823,410.55718475073314,83.08895405669598,4.887585532746823,156.40273704789834,9.775171065493646,4.887585532746823
14.662756598240469,757.5757575757576,9.775171065493646,122.18963831867057,997.0674486803518,83.08895405669598,43.98826979472141
469.208211143695,127.07722385141741,244.37927663734115,1070.3812316715544,97.75171065493646,1148.5826001955033,347.0185728250244
122.18963831867057,9.775171065493646,1080.156402737048,171.0654936461388,4.887585532746823,102.63929618768329,141.73998044965788
9.775171065493646,43.98826979472141,127.07722385141741,4.887585532746823,127.07722385141741,4.887585532746823,0.0
0.0,874.8778103616814,14.662756598240469,53.763440860215056,997.0674486803518,141.73998044965788,0.0
68.42619745845552,356.7937438905181,298.14271749755625,1075.268817204301,102.63929618768329,865.1026392961877,175.95307917888564
410.55718475073314,19.550342130987293,1041.0557184750733,136.85239491691104,4.887585532746823,87.97653958944282,366.5689149560117
190.6158357771261,14.662756598240469,68.42619745845552,4.887585532746823,73.31378299120234,4.887585532746823,43.98826979472141
9.775171065493646,1608.0156402737048,4.887585532746823,83.08895405669598,977.5171065493646,161.29032258064515,4.887585532746823
9.775171065493646,219.94134897360706,224.82893450635387,1173.0205278592375,117.30205278592375,1173.0205278592375,0.0
317.6930596285435,4.887585532746823,1099.7067448680352,166.17790811339196,9.775171065493646,83.08895405669598,303.03030303030306
547.4095796676442,58.651026392961874,83.08895405669598,9.775171065493646,136.85239491691104,0.0,263.92961876832845
9.775171065493646,957.9667644183774,0.0,24.437927663734115,987.2922776148582,298.14271749755625,14.662756598240469
4.887585532746823,151.51515151515153,219.94134897360706,992.179863147605,112.41446725317694,782.0136852394917,4.887585532746823
244.37927663734115,24.437927663734115,1446.7253176930597,351.9061583577713,9.775171065493646,53.763440860215056,63.53861192570871
464.3206256109482,4.887585532746823,73.31378299120234,19.550342130987293,83.08895405669598,4.887585532746823,386.119257086999
34.21309872922776,469.208211143695,4.887585532746823,9.775171065493646,923.7536656891496,43.98826979472141,73.31378299120234
4.887585532746823,1045.9433040078202,254.15444770283483,684.2619745845552,107.52688172043011,703.8123167155426,4.887585532746823
9.775171065493646,83.08895405669598,1041.0557184750733,635.386119257087,4.887585532746823,205.27859237536657,4.887585532746823
439.8826979472141,9.775171065493646,83.08895405669598,19.550342130987293,68.42619745845552,4.887585532746823,283.47996089931576
337.2434017595308,659.824046920821,9.775171065493646,9.775171065493646,1026.392961876833,4.887585532746823,244.37927663734115
19.550342130987293,566.9599217986315,293.2551319648094,645.1612903225806,112.41446725317694,835.7771260997067,24.437927663734115
4.887585532746823,19.550342130987293,1050.830889540567,874.8778103616814,4.887585532746823,283.47996089931576,4.887585532746823
171.0654936461388,4.887585532746823,87.97653958944282,24.437927663734115,58.651026392961874,14.662756598240469,63.53861192570871
581.622678396872,92.86412512218965,4.887585532746823,4.887585532746823,1036.1681329423266,0.0,395.89442815249265
43.98826979472141,1075.268817204301,405.6695992179863,645.1612903225806,122.18963831867057,371.4565004887586,63.53861192570871
4.887585532746823,68.42619745845552,972.6295210166178,767.3509286412512,9.775171065493646,845.5522971652003,4.887585532746823
87.97653958944282,0.0,68.42619745845552,24.437927663734115,78.20136852394917,53.763440860215056,4.887585532746823
591.3978494623656,361.6813294232649,9.775171065493646,9.775171065493646,1006.8426197458455,4.887585532746823,293.2551319648094
131.96480938416423,816.2267839687195,210.16617790811338,444.77028347996094,122.18963831867057,307.91788856304987,259.04203323558164
4.887585532746823,19.550342130987293,1050.830889540567,987.2922776148582,4.887585532746823,860.2150537634409,24.437927663734115
24.437927663734115,210.16617790811338,87.97653958944282,63.53861192570871,73.31378299120234,92.86412512218965,9.775171065493646
508.30889540566966,219.94134897360706,9.775171065493646,14.662756598240469,982.4046920821114,0.0,34.21309872922776
131.96480938416423,1383.1867057673508,312.8054740957967,782.0136852394917,122.18963831867057,347.0185728250244,351.9061583577713
19.550342130987293,102.63929618768329,1168.1329423264906,650.0488758553274,14.662756598240469,840.6647116324535,141.73998044965788
0.0,9.775171065493646,48.87585532746823,9.775171065493646,4.887585532746823,58.651026392961874,4.887585532746823
180.84066471163246,205.27859237536657,4.887585532746823,4.887585532746823,889.5405669599219,4.887585532746823,0.0
337.2434017595308,1182.7956989247311,224.82893450635387,821.1143695014663,249.26686217008796,200.39100684261973,171.0654936461388
29.325513196480937,107.52688172043011,1085.0439882697947,684.2619745845552,4.887585532746823,796.6764418377321,351.9061583577713
9.775171065493646,9.775171065493646,83.08895405669598,24.437927663734115,9.775171065493646,43.98826979472141,34.21309872922776
9.775171065493646,620.7233626588466,9.775171065493646,4.887585532746823,625.6109481915934,9.775171065493646,9.775171065493646
483.8709677419355,772.238514173998,224.82893450635387,596.2854349951125,532.7468230694037,9.775171065493646,9.775171065493646
337.2434017595308,29.325513196480937,1026.392961876833,777.1260997067449,14.662756598240469,615.8357771260997,293.2551319648094
19.550342130987293,4.887585532746823,166.17790811339196,19.550342130987293,14.662756598240469,268.81720430107526,268.81720430107526
4.887585532746823,552.297165200391,4.887585532746823,9.775171065493646,659.824046920821,14.662756598240469,19.550342130987293
87.97653958944282,259.04203323558164,175.95307917888564,630.4985337243402,562.0723362658846,9.775171065493646,4.887585532746823
513.1964809384165,19.550342130987293,1045.9433040078202,777.1260997067449,9.775171065493646,596.2854349951125,53.763440860215056
48.87585532746823,4.887585532746823,131.96480938416423,29.325513196480937,9.775171065493646,410.55718475073314,381.2316715542522
4.887585532746823,4.887585532746823,4.887585532746823,4.887585532746823,645.1612903225806,19.550342130987293,68.42619745845552
83.08895405669598,1143.6950146627566,166.17790811339196,615.8357771260997,591.3978494623656,9.775171065493646,4.887585532746823
508.30889540566966,347.0185728250244,1070.3812316715544,679.3743890518084,14.662756598240469,337.2434017595308,14.662756598240469
