HandOpen,HandClose,Wrist Flexion,Wrist Extension,Supination,Pronation,Rest
1.6104384070173756e-05,1.55630602358822e-05,1.0961807644403986e-05,1.353309585728887e-07,2.977281088603552e-06,2.706619171457774e-06,1.353309585728887e-07
0.0001748212238768542,0.00017601393264140598,0.00012741832111946223,1.4611252703096133e-06,3.038545348536394e-05,2.75985339033176e-05,2.002449104601168e-06
0.0009505262137277403,0.0010012893213959188,0.0007460036263762094,7.927823099855037e-06,0.0001548761558484943,0.00014048163491909383,1.7561591021134377e-05
0.0035021717321530896,0.0038696960153691944,0.0029686980795862444,3.0101275063176787e-05,0.0005349168396446225,0.00048467207699671734,0.00010570135611986967
0.009962252257624257,0.011552497706922193,0.009122794368819956,0.00010186949307679823,0.0014304659245389822,0.001295796793283391,0.00046611324322071846
0.02356291100557238,0.028637097091326107,0.023255439109654462,0.0003585706842600251,0.0031970966519755716,0.002898512333905018,0.0016021495094486922
0.04858650549535978,0.061706879528062,0.05145694740287203,0.0012626300889741241,0.00627077271257858,0.005694503174040932,0.004524608318198712
0.09019558688620771,0.11924278817758252,0.10191956667179095,0.004033046540322224,0.01116315954523528,0.010157144309779754,0.010939537163012323
0.15420895616641775,0.21131102019286097,0.1847302682550219,0.01122886899213621,0.018508813575532853,0.016871923669853475,0.02336202481228845
0.24686923875562297,0.3491460419781884,0.3114825661013491,0.02733420276976413,0.029226757176925917,0.02668707180234854,0.04512225579548707
0.3746242916527851,0.5447158668224417,0.4948164942055068,0.059164754690731104,0.044831913179075575,0.041013980452011475,0.0802696109390298
0.5439338658770053,0.8103132945139733,0.7479609098483155,0.11597241955048924,0.06785241892121482,0.062237067816027135,0.13341230894132838
0.7611170953050416,1.1581903318319875,1.0843106588300493,0.20923479076455495,0.10223586880671154,0.09411986545654298,0.209534924836011
1.032276633610849,1.6002536608731526,1.517055099038848,0.3522210857599112,0.15361259800620564,0.14207875582929463,0.31382093181479126
1.3633464516459555,2.147868268210196,2.05888987574874,0.5594612274704497,0.22933333941804873,0.21323986543761267,0.45149182219230716
1.760275545445,2.811841275222064,2.7218775352030002,0.8462103880417688,0.33828434480931946,0.31627376691849357,0.6276677811808558
2.229290998311074,3.602620950635936,3.5175229931438197,1.2279534237312366,0.490554323109816,0.46107488823990245,0.847258610585439
2.7771360622295553,4.530651291134256,4.45705678803607,1.7199683507373824,0.6970432548468586,0.6583759442560783,1.1149063301833364
3.4111844749982687,5.606742197268284,5.551816798682208,2.336973109110755,0.9690746205250391,0.9193625022678108,1.435006633334338
4.139384289767802,6.842300922315824,6.813567703750622,3.092914630082897,1.3180399508082306,1.2553178019302313,1.8118142277778035
4.970053727772919,8.249326393270008,8.254622091448542,4.000980282183532,1.7550881275837829,1.6773107425659495,2.249595825560458
5.9115957819570895,9.840166298252138,9.887708102201193,5.073856069896838,2.290878862532163,2.1959460764298946,2.7527668823500404
6.972196599705263,11.627120163463672,11.725628059938094,6.324141163193723,2.9354490300752567,2.821219657944797,3.325953579043553
8.15954578013327,13.621992849544208,13.780823092417068,7.764737327454832,3.698251486922292,3.562530531854904,3.9739550940485224
9.48059339790531,15.835699709672793,16.064995128923208,9.409016346318525,4.588372503542634,4.428860044978027,4.701621611829195
10.94136075329186,18.278033979937756,18.58891381563997,11.27065769171912,5.614830810823549,5.429039709845261,5.513686688664704
12.546848986681624,20.957613481617518,21.362371821460908,13.363241248349844,6.786777689540903,6.57194203077029,6.41459151405601
14.301064380898305,23.88184555710061,24.394101171136853,15.69984376114723,8.113454478210558,7.866448408918135,7.408324474128076
16.20707765860577,27.05679304000555,27.6915993833465,18.292814163844987,9.603955915768294,9.321229644298775,8.498292465255227
18.26701938239266,30.487061855267513,31.26102727465075,21.153637549245303,11.26700811963001,10.944533788365257,9.687253347111373
20.482048219704883,34.17582374040255,35.10723074739978,24.292711631315054,13.110868640824133,12.74408448786591,10.977332510794033
22.852400589894362,38.12485126981554,39.2337222788883,27.719076403503983,15.14323429655857,14.726988465295003,12.370081788544809
25.37750968857168,42.334447034962125,43.642566412621925,31.44027581086963,17.37106471356585,16.899572640834265,13.866497089977779
28.05606838344212,46.80338416006319,48.33433360201106,35.462348607276326,19.80043347922498,19.267254786537617,15.466978308327436
30.88600600650774,51.52897372887615,53.30817865911046,39.789770867300746,22.436500343508435,21.834528134562436,17.171304579857168
33.86449478462809,56.50714365838777,58.561877663196455,44.425324307015636,25.28349075356592,24.604950598277046,18.97867672946791
36.98803883764511,61.73241183613274,64.0917649946171,49.37005196257368,28.344584173541108,27.58104881193855,20.887778774898827
40.25254297094266,67.19786413034072,69.8927331166018,54.62332291919011,31.62182084510522,30.764237555208204,22.89678634831458
43.65330045615518,72.89526068962125,75.95834864701334,60.182842367884106,35.11612440470969,34.15483959508151,25.00333911957829
47.18499406469582,78.81517005746205,82.28091985543801,66.04458339258618,38.827331419748084,37.75210802614722,27.204554393782566
50.841771228593956,84.94699141246231,88.85146082437481,72.20280279846922,42.75413207592012,41.55417294631768,29.49709472249964
54.61730397000541,91.27893557598337,95.65971581324888,78.65016396964808,46.89403127455628,45.5580162227403,31.8772160155525
58.504777024174665,97.79811487991849,102.69429907730401,85.37780216944076,51.24342240459638,49.759553845764444,34.34075421692047
62.49689547692237,104.49070929339163,109.94278029561346,92.37530512838978,55.797659433746546,54.153715118028025,36.88310936596124
66.58596945228804,111.34206281735177,117.3916438705556,99.63076987587627,60.55103102930379,58.734427240288774,39.49929624105767
70.76398410493874,118.33672106153796,125.02629439266073,107.13096130684919,65.49674837607083,63.49460798808243,42.1840331721643
75.02259609767617,125.45854448664865,132.8312100486951,114.86141039480219,70.62704277125454,68.42625708971123,44.93178389373812
79.35314850549554,132.6908813584006,140.7900857689152,122.80643072914857,75.93326231876355,73.52054747465013,47.73673833336846
83.74676341137776,140.0166611102045,148.88584751650555,130.9492323845603,81.4058708705613,78.76783068511442,50.5928091256263
88.19441804322129,147.41842167445026,157.10067797868663,139.27216422302808,87.03445876266007,84.15765781488781,53.49369528445187
92.68694206361569,154.87841079790604,165.41616859770022,147.75688511020127,92.80786186396459,89.67889937316767,56.432962786251494
97.21502851368874,162.37875047164152,173.81346208933482,156.38440347732538,98.71427780136949,95.31985741847113,59.40406968599372
101.76932038196037,169.9015250570874,182.27327491526677,165.1351743452209,104.74128037964923,101.06828176560373,62.40035348039672
106.34048102788293,177.42880298589836,190.77594000544838,173.98931729148376,110.87584167735598,106.91139219520034,65.4150586756685
110.9191867897708,184.9427320190104,199.30158274556305,182.9267683316086,117.10445968816737,112.83599190417858,68.44141748459201
115.49613159590322,192.42569798098032,207.83028519648684,191.9273006308002,123.41328028577703,118.82857313520626,71.47270843476828
120.06210366181783,199.8604031686188,216.3421161895263,200.9705979825114,129.78810989435587,124.8753355544265,74.50225282598227
124.60804603897881,207.22986985579078,224.817161288154,210.03644418887433,136.21442509516095,130.96221979433847,77.52341221288978
129.1250442643886,214.5175105449751,233.23566951355554,219.1048451959695,142.67749393661714,137.07503497695282,80.52964670688249
133.60433241887839,221.7072603018372,241.57818868207542,228.15602386439693,149.16251830101734,143.19957204757822,83.51458969598215
138.037374708134,228.7836311589783,249.825578076513,237.17047408661605,155.65466883873586,149.32161236185567,86.47206393452927
142.41592723338167,235.7316932822756,257.9590261214387,246.12913547693714,162.13907262140793,155.42693248765295,89.39605337371961
146.7320178734615,242.5371231266912,265.9601840317404,255.01349951421182,168.6008840039787,161.50140838575442,92.28070784429946
150.9779376289604,249.1863161483468,273.8112881437907,263.80558365832275,175.0254090774973,167.53113518728105,95.12039689718326
155.14630681185608,255.66642557490718,281.4951598118985,272.4879626458749,181.39815667070866,173.50245007641874,97.90974503487068
159.23012588751845,261.96532985169506,288.99521066773866,281.0439206824938,187.70482313245338,179.40191924871928,100.64361227448062
163.22275044003277,268.07166686140545,296.2955655279878,289.45753406731257,193.9313503711716,185.21640594557115,103.31708026741282
167.11788084280866,273.97493170455755,303.3811753485878,297.7136187585096,200.06408498764557,190.933183298725,105.92550006458563
170.90962485503226,279.6654996092393,310.2378070680551,305.7977333583142,206.08989179279595,196.53997334579242,108.46455584997011
174.59253999005264,285.13457775096265,316.8520382428046,313.69630557459163,211.99616074405878,202.0249269894488,110.93026910588023
178.16159632291,290.3742272008249,323.2113693967302,321.3966938548423,217.77084148462356,207.37667685938334,113.318957881249
181.61215340155746,295.3774531984421,329.30432415974764,328.88711592703953,223.40256786962595,212.58448098938726,115.62722948414081
184.94001229018164,300.138219210836,335.1204231324338,336.15663243940594,228.88073875964497,217.6383105443927,117.85202280443428
188.14144995614885,304.6513814370309,340.6501587050646,343.1952554293802,234.1954923879414,222.52881429361634,119.9906298440307
191.21317408375742,308.91268596416023,345.8850805774762,349.9939942658561,239.33770777516392,227.2472883713901,122.040658818212
194.15229041907517,312.91883220196155,350.817864212174,356.5447687007651,244.2990961153352,231.78574259690362,124.0000012313376
196.95634582177013,316.66746160433854,355.4422527406442,362.8403760595026,249.07224942363132,236.13695896603465,125.86686151479061
199.6233565273096,320.15706852467855,359.75299940022,368.8745831422339,253.65058377500986,240.29444893083038,127.63980423508981
202.15175814324823,323.3869744752801,363.7459243588074,374.6421555071129,258.028309959293,244.2524018505494,129.31774333930164
204.54036765080372,326.3573706962707,367.4179648589444,380.13875326923545,262.2004968123394,248.00572062568693,130.89988714932613
206.78842248993723,329.06929029127434,370.76710867727815,385.3608812806183,266.16309829298666,251.55006463302652,132.38571691587055
208.89560749184758,331.52450665929126,373.7923402191332,390.3059660408644,269.9128800209873,254.88180384932107,133.77501703386065
210.86200445775896,333.72549866153184,376.4937137612166,394.9723730332717,273.44737292362737,257.997958264999,135.06788788386308
212.68805296058625,335.67548832648225,378.8724134323679,399.3592927893709,276.7649181613658,260.89623343420214,136.26470162949664
214.37458580940768,337.37841152627726,380.93066626545846,403.46668351674765,279.86467694193453,263.5750964005208,137.36605993798756
215.92284973424137,338.8388149177619,382.671633109093,407.2953440729616,282.7465416560331,266.0337610674423,138.37281189172927
217.3344489536215,340.0618188187201,384.09941705534766,410.846928435329,285.41107357530234,268.27209973510645,139.28609054831958
218.61130186444996,341.0531536521984,385.21908909185447,414.1238243589456,287.85953083699957,270.2906218496911,140.10729434190435
219.75567291516373,341.81912997675124,386.0365919151021,417.1290818721482,290.09386568441374,272.0905497928388,140.8380255631511
220.77018814270292,342.36653816317926,386.55860206318795,419.86646834980144,292.11663279028204,273.67385705368895,141.48006318751703
221.6577698347726,342.70263203609244,386.7925035303362,422.3404674727606,293.9309342104191,275.0432116121071,142.03538851838817
222.42158059990226,342.8352086811552,386.7464288135101,424.5561492276735,295.54045988268393,276.2019450054369,142.50619421748044
223.06504308511268,342.77260656522117,386.42921551367715,426.519096337537,296.94949238407474,277.15410107136614,142.89483686109202
223.59184845753512,342.52356937430983,385.85030171952826,428.2354605621974,298.16280948884634,277.9044438158491,143.2037925062021
224.0058924069682,342.0971474133839,385.0197033353331,429.71196220887805,299.1856124968219,278.45837531871,143.43567353596828
224.31123000183632,341.5027246366505,383.9480476609655,430.9557577323946,300.0235488856829,278.8218887923999,143.59326373967446
224.5121098186686,340.75002309281587,382.6465165265097,431.9743610504753,300.6827076710821,279.0016056260257,143.67949687737857
224.61299130235324,339.8489893970396,381.1267207451775,432.7756948365713,301.16952701212637,279.0047667174324,143.69739212363004
224.6184814692377,338.8097017357672,379.40065126408734,433.36808798446697,301.4907407058942,278.8391251700992,143.65002502107487
224.53328596053902,337.64239254746406,377.4806904348441,433.76014275379976,301.6534210454281,278.512872679297,143.54055310044956
224.36223862956086,336.35745112451656,375.3795485722976,433.9606556751911,301.6649817797165,278.0346595260202,143.3722264610967
224.11031535839825,334.96531276004566,373.1101564372502,433.97867087496866,301.53307439929864,277.41357871714285,143.14834062631573
223.78256867589687,333.4763716681901,370.6856537594227,433.82348189980723,301.2655119137418,276.6590513620537,142.87218820309278
223.38407867343935,331.9010122616586,368.11943088884374,433.50450054445446,300.8702929026975,275.78073747872816,142.54707083888263
222.91998463350544,330.24961968238864,365.425066406681,433.0311750299099,300.35559810116933,274.78853394264934,142.17633582541967
222.3955006452551,328.53247132077087,362.61619028590553,432.4130413645882,299.72969001161096,273.6925420175402,141.7633636491297
221.81584628959126,326.7596474048056,359.70642666522207,431.6597295378085,299.00084744281196,272.5029502513164,141.31151369627162
221.1861844697497,324.94106158248815,356.70940022045204,430.78084423192774,298.17740725581484,271.2299528185961,140.82410220682974
220.5116363154341,323.0864772739782,353.6386648173722,429.78590092186073,297.26777799082925,269.88375769875313,140.30443191171577
219.79728792448492,321.205410792893,350.5075740517812,428.6843963452591,296.2803438552619,268.4745644844491,139.75580622854412
219.04812602470577,319.3070538698437,347.3292468785606,427.4858270728558,295.22338207671004,267.01245828538146,139.18148825564367
218.268991291615,317.4003116368021,344.1166207883235,426.1995724924675,294.1050711021804,265.5073433251783,138.58466126674026
217.4646114489335,315.4938220192718,340.88242963887745,424.83482713927685,292.93347866117256,263.96897137425776,137.96844660082084
216.63962194272477,313.59586032773024,337.63909316277017,423.4006679025513,291.71646928253386,262.40693760910926,137.3359381017159
215.79850943567104,311.7142642634353,334.3986665433273,421.90607382637774,290.4616536488943,260.8305838340388,136.69018344010513
214.94556965858425,309.85647830106274,331.1728604998218,420.3598125808055,289.1764418739382,259.2489341217872,136.03412682610627
214.0849443595661,308.02958433916467,327.9729956548255,418.7703730165431,287.8680683488369,257.670723808189,135.37058810463856
213.2206455254741,306.2402202430824,324.80989251739624,417.1460293591796,286.5435120455899,256.10439878491223,134.70229521623224
212.3565016269808,304.49452020913964,321.6938299328748,415.4948610738594,285.2094370230468,254.55802257517183,134.03190195082325
211.49611852234273,302.7981764485824,318.6345641923001,413.8246463596424,283.8722308161754,253.03921207831982,133.3619503121078
210.64292254399007,301.15648757394683,315.64128345159924,412.14280671857625,282.5380228348072,251.5551673040993,132.69483358121636
209.8001935816625,299.57429162082906,312.72252254717165,410.45648401393777,281.21261427391767,250.11267940311524,132.03281860145586
208.97101741830497,298.05591629053794,309.8861741385171,408.7725698311611,279.90144573089225,248.7180577667213,131.37808854798593
208.15824497311834,296.60524786733475,307.1395658313187,407.09760306649554,278.6096700867385,247.37709819092078,130.73273315162928
207.3645276038406,295.22578569437485,304.48945193823533,405.43771676778016,277.34219406058276,246.09515076522013,130.0986975816372
206.59234422757942,293.92057948697163,301.941936674984,403.7987215735243,276.10361066600234,244.87715674142817,129.4777661186548
205.84395665206688,292.69218183422043,299.50247552772544,402.1861451828007,274.8981530718141,243.72758558304147,128.87159842088914
205.12138101707293,291.54271948727916,297.17594253641215,400.6051374392141,273.72974761136874,242.6503957782222,128.28174909784698
204.4264386996916,290.4739526058422,294.96662368063056,399.0604194911142,272.60204266922585,241.6490876812408,127.70962706092682
203.760794926079,289.4872190297162,292.8781518105846,397.55636806086557,271.51834493984285,240.7267309105218,127.15644783232851
203.1259187928315,288.583393947286,290.91352409359354,396.0970575628318,270.4815920249363,239.885904863511,126.62324689097862
202.52305796474926,287.76296733822414,289.0751868154867,394.686169611491,269.4944290441829,239.1286739869184,126.11093338339373
201.95329593929185,287.0261084594076,287.3650442250752,393.3269472298402,268.5592529208565,238.45665953034805,125.62030510398513
201.4175959087557,286.3726139891676,285.7844040297013,392.0222839709556,267.6781461174537,237.87108298180715,125.15200595904363
200.91675892874045,285.8018694465749,284.3340022001299,390.77477110556276,266.852829169019,237.37271677601257,124.70649734666368
200.45138949932482,285.3129275771262,283.0140940270582,389.5866135578264,266.08471441546254,236.96186699856776,124.28409990353873
200.021941602401,284.9045750058383,281.8244679504576,388.4595917168852,265.3749427795712,236.6384535899032,123.88506077590235
199.6287564592009,284.5752826985347,280.7643942434453,387.3951582114388,264.7243278920321,236.40206251025646,123.50956625329152
199.2720221495628,284.32316815272065,279.8326506714582,386.394491331257,264.1333265937572,236.25189956076775,123.15770516443315
198.95174327966643,284.1460754410527,279.0276124819586,385.4584137858615,263.60211004726625,236.1867664108127,122.82945942750166
198.667789268913,284.0416465084138,278.34726618835805,384.5873539849686,263.13061252347296,236.20513018112004,122.52474396045146
198.41993296081935,284.00727685582405,277.7891641818141,383.7814429603922,262.71847929513643,236.3051711742411,122.24343112374116
198.2078113012869,284.04008154958166,277.3504671625328,383.0405729736308,262.36503574767175,236.4847391623944,121.98532180330916
198.03089676083107,284.13697865063034,277.02805887062254,382.3643275237785,262.0693582009935,236.7413312528241,121.7501205060662
197.88854777955103,284.2947645303935,276.8185777423934,381.7519594346999,261.8303265680572,237.07215979206674,121.53747003880432
197.7800491499689,284.51007343271505,276.7183698409283,381.2025067651552,261.64658134374673,237.4741991044423,121.34700311681237
197.7045742530873,284.7793452308713,276.72351236815433,380.7148631364633,261.516505765489,237.94414408054973,121.17833811146114
197.66115864269162,285.09890810270775,276.82990474233804,380.2877040555067,261.43830723729326,238.47839190937512,121.03103187862206
197.64875269234125,285.4650518182236,277.03328475004065,379.9194476724978,261.4100732195814,239.07311478437663,120.9045656151567
197.6662632142422,285.8739843468112,277.3291782754219,379.60835021453056,261.42972451898083,239.72431400515856,120.79838250671091
197.71251597162615,286.3217967103217,277.7129254730907,379.3525640402138,261.4949887947277,240.42779003135558,120.71191070576904
197.78622860082334,286.8045449549404,278.17977310579886,379.15006238796366,261.6034725184184,241.1791412203132,120.64452847681699
197.88606142080093,287.3183246182819,278.7248885752784,378.99860311534314,261.7527113485189,241.97385579856837,120.5955214190949
198.01065681594957,287.85922807081204,279.3433038113821,378.8958264361813,261.94012120413885,242.80737824896673,120.56409853755838
198.15860110958184,288.4233093859254,280.02993222250865,378.8393138565847,262.1629683411002,243.67508224530178,120.54944938082596
198.32840072042757,289.00666675267644,280.77965269712337,378.8265130164392,262.4184361210008,244.57227092847594,120.55076291839643
198.51854050892848,289.60551669693615,281.5873219593842,378.85470180509895,262.7036723561636,245.49427363998245,120.5671848349014
198.72753133669548,290.21614742765286,282.4477262756955,378.9210888429843,263.01573929458397,246.43651474793378,120.59778280160778
198.9538757155167,290.8348746152838,283.3556158122748,379.0228785070788,263.35158081432587,247.3944765209292,120.64157692497055
199.19604159887362,291.4581122704752,284.3058101026034,379.1572034985048,263.70808678410447,248.36366944861797,120.69759286836945
199.45251362210152,292.0824377803212,285.2932226511251,379.32109526201464,264.08214423970304,249.3396857953929,120.76486365464532
199.72183126660352,292.7045408055337,286.3128051199136,379.51158686899794,264.47060080928264,250.31823480293167,120.84239093855462
200.00254406412375,293.32117836815377,287.35955670731096,379.72577525994234,264.8702561615544,251.2951002194876,120.92914151008762
200.29317344685433,293.92924671285476,288.42859968723604,379.96074611054684,265.2779540702215,252.26613316754532,121.0240962332715
200.59225293151675,294.5258460461887,289.51518190005623,380.21353681549465,265.6906494354139,253.2273401303177,121.12628027802312
200.89836143636995,295.10822560413817,290.61461071374623,380.4812394101618,266.1053686732305,254.17494127525924,121.23473029597301
201.21008164843067,295.673733124051,291.72226109199033,380.761067950569,266.5191856318951,255.10532658652946,121.34845352754992
201.52597003742508,296.21988360782774,292.8336560159486,381.05028291526475,266.92929676097845,256.0150319710082,121.46644812749807
201.8446058898711,296.7444247833205,293.94447743965486,381.34614233304455,267.33307723941033,256.9008122180607,121.58776256994067
202.1646311598935,297.2452787734743,295.0505080610168,381.64598642295437,267.7280341280626,257.75969049309634,121.711512768648
202.48471334459745,297.720473315947,296.14764417142254,381.9472909506989,268.11177253523135,258.5889038690594,121.83683822561439
202.80352041346117,298.1681891150942,297.23197797077154,382.24758781411504,268.4820585478478,259.38586114160324,121.96287067307998
203.1197749708627,298.5868261913305,298.29980714845635,382.54442168595745,268.83686423095793,260.148194745091,122.0887710403905
203.43229535402284,298.97495473145676,299.3475710841574,382.83544603838976,269.1743127395891,260.873796640458,122.21378780937088
203.73995327727783,299.3312248562845,300.3718540660506,383.1184870184078,269.4926394733692,261.5607616796384,122.3372591625834
204.04163938559407,299.65438226539635,301.3694569474956,383.3914676518616,269.79025103436976,262.2073496317228,122.45856942897521
204.33630845645223,299.9433502102954,302.33739876569393,383.6523614059506,270.0657663263217,262.8120404606078,122.57713761632687
204.62301581055058,300.19723257564783,303.27285513889154,383.89928183453986,270.31795976124414,263.37357049272697,122.69245749412156
204.90087504656182,300.4152561867264,304.1731981462646,384.13053893834024,270.5457225486877,263.89087635543916,122.80411967992835
205.16902499799892,300.5967887332104,305.0361475850621,384.3445558333662,270.74812017281346,264.36306210790366,122.91177443493659
205.42667520419155,300.74141391066456,305.8598363445455,384.53982095359675,270.92442811973575,264.7894631919087,123.01509420652492
205.67314177938496,300.848925567402,306.6427249988634,384.7149894864975,271.07406607029753,265.1696869431099,123.11379780603284
205.90780245004677,300.91925729627496,307.38354513587853,384.8689563073044,271.1965501961386,265.50355084730444,123.20769801594497
206.13005597858472,300.9524864979895,308.081363303699,385.00077637991654,271.29154872298415,265.79103870518264,123.29669576859132
206.33935682880693,300.9489000874578,308.7356129503669,385.1095995133405,271.35892182643477,266.0323562340732,123.38072695381942
206.53524358263294,300.908984587569,309.34600377352353,385.1947393569197,271.3986548619857,266.227966977959,123.45974011741637
206.71729482685697,300.83335273021027,309.9124539489313,385.25571738170544,271.41079821825707,266.37852461570264,123.53373102365211
206.88509457838035,300.72274462176244,310.4351367943652,385.2921713779889,271.39550482629903,266.48481675773036,123.60276542697723
207.03827069690036,300.57809242662233,310.91450372878444,385.3037896198998,271.35306023484577,266.5478032996771,123.66694179532784
207.176522712744,300.4005090806746,311.3512024600269,385.2903801468209,271.2838258202568,266.56863860751736,123.7263491150308
207.29957780079397,300.1912101232515,311.7460400569938,385.25191495931017,271.1882035512383,266.54860029949737,123.78108465754815
207.40716348274228,299.95150754658766,312.10007204943645,385.1884430298201,271.06669458996186,266.48903835244795,123.83129760661714
207.49906121745707,299.68286752376986,312.4146521193411,385.10003581623073,270.91993449671514,266.3914218592697,123.87718378097217
207.5751485237493,299.3868951727067,312.69134430424253,384.9868708431499,270.7486268081643,266.2573678280285,123.91893846034263
207.63535916808127,299.0652566074989,312.9318542487639,384.8492847668508,270.5534938704936,266.088570017301,123.95674340527434
207.67965092541945,298.719676832741,313.1380782689094,384.68768523833603,270.3353316586781,265.8867400637252,123.9908077371214
207.70805195337044,298.35200336492886,313.31212275094316,384.50248886593226,270.0950525403345,265.65364543957844,124.02139136079985
207.72069786854203,297.9641943797425,313.45620314672607,384.29419892290366,269.83362592704367,265.39113657217183,124.04876777542604
207.71778953744388,297.5582377165513,313.572572757134,384.06345726769194,269.55203159333905,265.1010815206494,124.07318571263177
207.699559270378,297.136139466024,313.663574026614,383.81095380714237,269.25131589524506,264.785316998951,124.09489251457683
207.66631441842011,296.6999759434449,313.73166486470154,383.53735743606865,268.93263555614453,264.44569615306517,124.11418134064182
207.61847044639478,296.2518727255261,313.77933010981803,383.24338959302924,268.59719711144396,264.0841216405846,124.13138585101842
207.55650567283047,295.79391967679663,313.8090274235447,382.92988096914485,268.2462055940305,263.7024795206404,124.14683017569118
207.48092726447075,295.3281610990228,313.82325530524247,382.59768893056565,267.8809153009621,263.3025803761547,124.1608132679912
207.3923164122222,294.85665463348033,313.82458797213786,382.2476292657449,267.50267067723956,262.88619200747223,124.17365057599616
207.29136046823885,294.38145977904975,313.81558196667424,381.8805398407571,267.11284310695675,262.4550647690908,124.1857006630085
207.1788005077876,293.90456124727854,313.79870407364706,381.49732401831756,266.71277369150727,262.0108740728082,124.1973287927885
207.0553857200206,293.42786693195836,313.7763768578342,381.09886232332,266.30381693618176,261.5551824349726,124.20886491650901
206.92190927337927,292.9532757331377,313.75099966697064,380.68594960791785,265.8873771396794,261.08949320085014,124.22062229582772
206.77923780521058,292.48267264685086,313.72485632006334,380.25937075655816,265.4648445444725,260.6152866272727,124.23294280600648
206.62826076460323,292.01785085460324,313.70005545816633,379.8199561055147,265.03754094145734,260.13396090369895,124.24619236236764
206.46984640151982,291.5605007230989,313.67859224482277,379.36850189702045,264.60676724078206,259.64678819476774,124.2607108153291
206.30487799475733,291.1122683862272,313.6623833640323,378.90571468442744,264.1738424093425,259.15496800361706,124.27679327952299
206.13428501539443,290.6747483494795,313.65318405090215,378.43229478289277,263.74004106752216,258.6596701003554,124.2947279362599
205.95899656127415,290.2494105966343,313.65253321075585,377.94899875627465,263.3065395145084,258.1619832904156,124.31482170970662
205.7799018691188,289.83760041257557,313.6618184351878,377.456562185617,262.87446264023873,257.6628748006171,124.33736669188185
205.59788932244484,289.44061060506243,313.6823169232491,376.95563920574256,262.44492407963384,257.16324117128937,124.36260457196748
205.41387744817476,289.0596837301434,313.7151210561504,376.446878146936,262.01896900849783,256.663946051163,124.39075603176168
205.22876593352848,288.69594036831495,313.7610917945783,375.930979232254,261.597525714847,256.16576663838,124.42207732382225
205.04339533004097,288.350374290193,313.8209307016974,375.408616059293,261.18145380170256,255.66935606538289,124.45685986453735
204.85858971473212,288.0239191542346,313.89522566038175,374.8803755204107,260.77158270575586,255.17530213677392,124.49537529585629
204.6751931722413,287.7174480048382,313.98437708375764,374.346834649331,260.36865404876073,254.68417543449726,124.53784783130483
204.4940240507208,287.4317023952516,314.0885552048079,373.8086190945417,259.97327458860724,254.1964857210259,124.58448350998005
204.31583345021394,287.1672913253991,314.2077918682948,373.2663243413359,259.58596689126796,253.71265366735963,124.63548960740162
204.1413415769454,286.92476459252913,314.3420564532355,372.72045643178944,259.20721214017647,253.2330775518292,124.69103747058759
203.9712667385886,286.70461834389175,314.49120466313093,372.1715139843813,258.8373982129452,252.75818422309953,124.75122509156789
203.80627591501835,286.50723033963425,314.6549408780912,371.6200550432345,258.4767790387366,252.28838112116097,124.81610517892162
203.64694357551113,286.3328836642314,314.8328958193043,371.06662330730114,258.12553226454685,251.82401883378827,124.885741985932
203.49379125919418,286.1818927036638,315.0246774881181,370.5116870759315,257.78380671057835,251.36544944853904,124.9602149036228
203.34732199833388,286.05465688636883,315.2297989900071,369.9557160065902,257.45167011496983,250.91307335012692,125.03957040531343
203.2079775003859,285.95159929280993,315.4476291221313,369.39924386597744,257.1290672156865,250.46728837526229,125.1238005496059
203.07610511833784,285.87313890049654,315.67746478540795,368.842794926915,256.8158814854853,250.0284477533383,125.2128759455657
202.95200643454547,285.8197305292631,315.9185815535833,368.28682763564836,256.5119917509662,249.5969132953488,125.30676763731555
202.8359776996828,285.79184216045155,316.17016499787934,367.73181659696996,256.2172269872814,249.17309747736152,125.4054116399387
202.72826682264372,285.7898645910644,316.431270588337,367.17831611535814,255.93132294201587,248.75740846416502,125.50867026091404
202.6290339970023,285.8141088443683,316.7009136488506,366.62688129049826,255.653976013786,248.35020528125432,125.61635424299308
202.5383910661101,285.86490749651085,316.97813870323495,366.0780014940576,255.3848932812183,247.95184940047682,125.72827119116968
202.4564351763844,285.9426412369447,317.2619569375671,365.5321710627944,255.12374144548045,247.56274498785004,125.84422271692382
202.38320367997952,286.0476321196164,317.5512920179464,364.9899456000098,254.87009032314833,247.18327937192186,125.96395438744827
202.31863521424114,286.18007412653526,317.84504238495657,364.4518613180442,254.62345345362195,246.81376991361842,126.08713662046941
202.2626116064285,286.3400928503025,318.14212683425717,363.91837115725264,254.38334219864555,246.45450792552305,126.21340348134312
202.21499763766735,286.52778580800316,318.44141523948196,363.38992316810305,254.14922378962186,246.10579762897316,126.3423825928909
202.17560433131288,286.7431449955626,318.7416819439373,362.8670267324684,253.9204494633954,245.7679004590577,126.47366774170183
202.14415796086882,286.98600123607076,319.0416789356402,362.3501761589128,253.6962760327788,245.44098328801726,126.60678560526486
202.12034678939878,287.2560874946758,319.34019048627243,361.8397822885756,253.47594706724678,245.12515802701594,126.74122117346286
202.10386006697507,287.55308359306713,319.63597357879587,361.3362430829051,253.25870463289377,244.8205164929551,126.87647186038538
202.0943469316638,287.87654673631505,319.92772337032414,360.84000466659325,253.04373701762978,244.5270783720471,127.01205449364217
202.09138369644836,288.2258650194551,320.21415727849677,360.35148280105153,252.83020206885084,244.24475427381026,127.14746614681003
202.09452391089374,288.60032910831626,320.49407352402255,359.8709947849441,252.61735017531927,243.97340727913294,127.28217342827257
202.10334215463354,288.99918494877124,320.7662858327585,359.3988343526554,252.40459620293734,243.71290474419277,127.41565460938337
202.1173955860144,289.42157090522744,321.0295782151514,358.93534010692775,252.19148213778155,243.46306904573524,127.54742714159713
202.13619002569334,289.8664743340101,321.28278192456776,358.4808231138446,251.97766613404522,243.2236315237729,127.67701550084385
202.1592251335931,290.33280324782623,321.52483244432085,358.03550093750454,251.76299896160214,242.99428213378383,127.80391600326271
202.18603322950193,290.81943730495834,321.7547006851481,357.599570701491,251.54756015007897,242.77471555488117,127.92762358456608
202.21613926068582,291.32516078740167,321.97133553510974,357.17327396589036,251.33160240837017,242.56458736434396,128.04768459287905
202.24902849856045,291.84861378053836,322.173724385076,356.7568228159312,251.11553960242176,242.36348333808468,128.16369660254568
202.28419467730146,292.3883632310685,322.36094111334137,356.35033639620093,250.90002862074653,242.17098617754993,128.2752602286126
202.3211803723686,292.9429614547847,322.5320811555638,355.95391969812,250.68599384425377,241.98673000312857,128.38196209109526
202.3595340874553,293.510889882843,322.68621769950084,355.5677343876746,250.47451738290158,241.81035153298438,128.4834142639857
202.39877053923712,294.09051763762545,322.8224793849488,355.1919253609163,250.2667380617277,241.64144405625242,128.57928130642554
202.43841079197006,294.68017491743774,322.9401120549351,354.8265475661357,250.06386441093895,241.47960782387176,128.66924764211194
202.47801862733633,295.27820990040686,323.038422357491,354.47162789589424,249.8671904488983,241.3244965998738,128.75298002268693
202.5171564217482,295.88292782189234,323.1167405666642,354.1272225146439,249.67801098847715,241.17576978401578,128.83015030574128
202.55534220602337,296.492544612559,323.17450127858206,353.7933418964673,249.4975353245501,241.0330490106965,128.90048620900654
202.5920900094592,297.1052595327326,323.2113004747246,353.46988705545533,249.326905404716,240.89596707074315,128.9637728790445
202.6269594013272,297.71931582586086,323.22682994667446,353.156724071092,249.16723222525297,240.7642092681365,129.01980721096584
202.6595228321609,298.33294415358915,323.22083050112883,352.8537502417694,249.0195354436002,240.63746010986554,129.06838183879495
202.68931183567517,298.944318006757,323.19316267517814,352.5608219802043,248.8846513072849,240.51535803743985,129.10932558520253
202.71585312518906,299.5516248607325,323.1438543433609,352.27769114690074,248.76323537754038,240.3975492234757,129.1425327882588
202.73876361331736,300.15312350736957,323.07302504234923,352.0040814906145,248.65582688325156,240.28373840885212,129.16793329174968
202.75777315826585,300.7470829707725,322.9808276368652,351.7397582954028,248.5628425249249,240.17364418684906,129.18545689063208
202.772648025081,301.33173248232026,322.867512484628,351.48445679398736,248.48450007453528,240.06695980925102,129.1950573766324
202.78313064205713,301.90532951198816,322.7334762084607,351.23781495183135,248.420809563441,239.96341046070734,129.19676243281043
202.78896889614958,302.4662180716875,322.5791869712601,350.99944743209875,248.37166642003083,239.86280306126193,129.19067069508526
202.7899547688461,303.01276974640183,322.4051191920356,350.7690176134189,248.3369106568642,239.76497046228383,129.17689891231973
202.78588419274644,303.54333503764184,322.21180391417215,350.5461701177116,248.31629792915115,239.66970475340588,129.15555915741146
202.7764988337432,304.05631319097057,321.99986673128467,350.3304647189639,248.3095162262626,239.5767840380021,129.12679562399498
202.7615181914651,304.55021326505346,321.7699551515293,350.12144815173014,248.31630317982874,239.48601628154768,129.0908123664198
202.74073146030548,305.02359850619973,321.52268921430516,349.918723492274,248.3365159440624,239.39719436516262,129.04784002699904
202.71401936362034,305.47504087161917,321.25873416902243,349.7218815958964,248.37007950004937,239.31002797206878,128.9980947584199
202.68127789520454,305.9031924541376,320.9788566103112,349.5304353284103,248.41695042177875,239.22418444430178,128.94179744089683
202.64235826091846,306.30684624519034,320.6838598630858,349.3438917578558,248.47717357953843,239.1394075925152,128.87922225323302
202.59709751685176,306.6848787482895,320.3745365707923,349.16182114446747,248.5509077081821,239.05555808796558,128.81069652366915
202.5453619237946,307.0362004607339,320.0517432166077,348.9837872220265,248.6383530981855,238.97255111614103,128.7365523690918
202.48701407116684,307.35982102387464,319.7164557646757,348.8092795313198,248.73970919890232,238.89033414995652,128.6571063033374
202.42186158099307,307.6549039999214,319.3696981549817,348.63778381780014,248.8552293735786,238.80895601980046,128.57269479552528
202.3496945039624,307.92070570999664,319.0124819340715,348.46885069850424,248.98524558631902,238.72860206392258,128.48369958990796
202.2703798281555,308.1565251420708,318.6458651214855,348.3020220905969,249.13009640047784,238.64954355591928,128.3905140761098
202.18388807247743,308.36177302083917,318.27099637599594,348.13674876691186,249.29008642727234,238.57212787921458,128.29350395763748
202.0902424893338,308.53603271685694,317.88904052709165,347.97245115520826,249.4655441793646,238.49686048833436,128.1930294992608
201.98950897131166,308.6790017311803,317.5011194251356,347.80860990785396,249.65684882229513,238.42444112213644,128.089498394449
201.88186004408414,308.7904384737914,317.10837084266177,347.6447204690204,249.86435803110493,238.3556896471202,127.98336883578804
201.76760045678455,308.87022486124346,316.71199078787043,347.48019230498915,250.0883660705071,238.29149222201085,127.87509964173087
201.6470972105498,308.9184202753433,316.3131557071134,347.3143711170836,250.32915920108752,238.23283798008808,127.76512316132461
201.52071494358444,308.9351956717443,315.91296065683304,347.1466458128104,250.58703918406079,238.18082900322784,127.65387272518483
201.38883818349376,308.9207708561029,315.5124807479425,346.9764642067707,250.8622473398782,238.13660263939582,127.5418029332426
201.25190530979805,308.87546682156994,315.1128212033687,346.8032695921855,251.15492093344395,238.10128632115817,127.42935469660368
201.1103650393513,308.79975267384054,314.7150476507069,346.62652306117775,251.46515545067996,238.07604612383705,127.31691534641273
200.96461700713158,308.6941777809199,314.32013010789495,346.4457989151041,251.7930421548329,238.06210770672752,127.2048390892603
200.81504888748884,308.5593120960888,313.9290082963327,346.26078861024746,252.13860141231518,238.06068843762242,127.09349781437326
200.66213754281446,308.3958049095502,313.5426448713791,346.07122704216937,252.50173482146315,238.07296188277965,126.98328344268425
200.5064783968205,308.20443703797815,313.16195786766394,345.8769053560594,252.88227338436508,238.10011239938353,126.87455955451439
200.34872442453224,307.9860535540337,312.78776462142037,345.677754890065,253.28000445492182,238.1433547297035,126.76763856240511
200.1895568805653,307.74150194103856,312.42084657580256,345.47383754264814,253.69460770994658,238.20385826784909,126.66281469359184
200.02973138445455,307.4716906740164,312.0620024723498,345.26525886535325,254.12562128847216,238.28270140349724,126.56038846411872
199.87009143591166,307.17764450201054,311.7119800685175,345.052171061577,254.57250775900795,238.3809204279431,126.46063461917713
199.71149055443126,306.86044003842966,311.37142041932873,344.83485329668446,255.03469515635507,238.49952914095496,126.36376473200089
199.5547209292379,306.52114288184407,311.040925287817,344.61370313240593,255.5115195736434,238.6394408079487,126.2699492456489
199.40052909356268,306.16086200578854,310.72111257096685,344.38914908741555,256.00219360309336,238.8014148925603,126.17936938592365
199.24964550194716,305.78080160463065,310.4125500511354,344.16164991291316,256.5058755006616,238.98610168846537,126.0922204886207
199.1027388285352,305.3821951554914,310.1157065231494,343.9317731127423,257.0217139500666,239.19406839140797,126.0086631436359
198.96035016818115,304.9662411210522,309.83103174381796,343.70018782779357,257.5487897265353,239.42573774182694,125.92879898525185
198.82291540469078,304.5341564601882,309.55902148971194,343.4675779504992,258.08607481323423,239.6813569779705,125.85270471265042
198.69085109136833,304.0872300992517,309.3001472664147,343.2346395940228,258.6324867748152,239.96106235176316,125.7804605214906
198.56457908586745,303.6267605164439,309.05478632785565,343.00215713825406,259.18692280698303,240.264916210438,125.71212175251966
198.4444713669659,303.15399416553555,308.8232721151039,342.77099274510164,259.748202353232,240.5928490838039,125.64768439447866
198.33083022424896,302.67017925738685,308.6059389409353,342.54199342039084,260.3150388692469,240.94463086118654,125.58711067865602
198.22394509567167,302.17661791705757,308.4030526056041,342.3159807801954,260.88611346385034,241.3199402883783,125.53038352110876
198.12411902408388,301.6745993051104,308.2147577806497,342.0938218749055,261.46012554415,241.7184075643231,125.47750973601067
198.0316034969234,301.16532556248063,308.04114692206946,341.8764184852618,262.0357401787451,242.13955658668067,125.42846972003292
197.94653648270966,300.6499559027778,307.8823133284431,341.6646167415516,262.6115519744804,242.5827663550626,125.38319125087438
197.8689653776172,300.12967201702804,307.7382767394269,341.45919778464673,263.18614564065433,243.04732263287937,125.34158111846676
197.79888464675702,299.60562982795875,307.6089158301948,341.26094720813023,263.7581367164872,243.53244608438627,125.30355224261318
197.7362006514738,299.0788732253471,307.49402476903094,341.0706440286541,264.3261151518196,244.03723434852253,125.26899640225636
197.68068029050988,298.55035916886874,307.39336762894806,340.88897224983094,264.88861033914264,244.5606360552305,125.23775235083373
197.63199118933207,298.02105066646334,307.3066170927723,340.7165165522399,265.44415683799787,245.10151869948197,125.20963319622392
197.58980420940432,297.49192428374215,307.2333047066515,340.5538423476781,265.99134180336074,245.6587090105758,125.18448056593658
197.55382979010406,296.9639089358966,307.17289462785345,340.401497729343,266.52875259553156,246.23094134682546,125.16216694639309
197.52377131953494,296.4378995109277,307.1248479517022,340.25993431935353,267.05494058708405,246.81683551613756,125.14254618619073
197.4993135678589,295.91483319829194,307.08856127611466,340.12950893285637,267.5684804260574,247.4149687478677,125.12543028990001
197.48018571231185,295.39568748562215,307.0633127907654,340.01056828955643,268.068010890401,248.0239185398826,125.1106248128922
197.46618904003995,294.88141120515326,307.0483348655722,339.90345256547266,268.55218338395144,248.64220820913053,125.09795839599224
197.45713002015154,294.3729310208289,307.04288157422934,339.8084139620277,269.0196359366424,249.26827727770342,125.08725513104929
197.45275748627762,293.871224071145,307.04617231147284,339.7256158070534,269.4690669335639,249.90054765559387,125.07830003578019
197.45278652945018,293.3773133885383,307.0573429815045,339.6552180368739,269.89928603835773,250.53746605480367,125.07086373053198
197.45693808476256,292.8921924359811,307.0755229243058,339.5973830067459,270.3091628417965,251.1774521155295,125.06475564803141
197.46490480874706,292.4168209063225,307.09990428089003,339.5521946471323,270.69759651557644,251.81887186098382,125.05982739323045
197.4762960415078,291.95218780066836,307.1296835821096,339.51965636751345,271.06358926058266,252.4601064584985,125.05592666261683
197.49066830640658,291.49930285899484,307.1640078825745,339.4997739042433,271.40629859031185,253.09959470559062,125.05287946725524
197.50761633388908,291.0591214847222,307.20204746684783,339.4925581840385,271.72497966032336,253.73577617329653,125.05052869000524
197.52680041735093,290.6325422219033,307.2430648319479,339.4979429589818,272.0189377937261,254.3670542638258,125.04876078906511
197.54789270590655,290.2204718822715,307.28635575011657,339.515782655891,272.2875813957091,254.99185371246455,125.0474722281519
197.57055873975753,289.82381890805897,307.3311879685057,339.5459362377081,272.53046237818955,255.60865767227196,125.04653144406608
197.5945155993353,289.44341876824,307.3768595986987,339.588270584597,272.7472205532202,256.2159530430747,125.04580312872498
197.6195589026084,289.0800304596413,307.42275450477024,339.64257512363025,272.93754710552395,256.81220051274573,125.04520100477282
197.64549871919857,288.7344010082232,307.46827819016596,339.7085542659331,273.101248449958,257.39590160489587,125.04468949391953
197.67210364918756,288.40725853037765,307.512801272542,339.78590874028504,273.23829033004904,257.96564409438406,125.0442352064111
197.69913680978848,288.09923573152935,307.5557279805576,339.8743400809689,273.34873552134667,258.520047862768,125.04378697648778
197.72640785326723,287.8108639500317,307.59656012683365,339.9734647249373,273.4326913024489,259.05772594295377,125.04331543751081
197.7537437007021,287.5426382083042,307.6348350228388,340.08280189928746,273.4903543229513,259.57734048764195,125.04284481863101
197.7809296015405,287.29501465757915,307.6700627332086,340.2018512929351,273.52204188524166,260.07764412125124,125.04242362425104
197.8077325272495,287.0683411353721,307.7017825331232,340.33010025012635,273.5281238870115,260.55743158263215,125.04208492026939
197.8339864831615,286.862860890315,307.72961545518484,340.4669466933673,273.508965151086,261.0155128517423,125.04186424007911
197.85961602964028,286.6787882107402,307.7531962365044,340.61169946903635,273.4649651177935,261.45078040440524,125.04184685565343
197.8845804393814,286.5163132004786,307.77210945965567,340.7636694582555,273.3965896170599,261.8622551338246,125.04216677373392
197.90885570426244,286.3755339025879,307.78594822532864,340.9221858808879,273.30431405875754,262.2490353246514,125.0429553359223
197.9324937478962,286.2564572561606,307.79437188347447,341.0865209524977,273.188586574184,262.61026309817646,125.0443167490455
197.95564590215844,286.15907157775945,307.7970406386089,341.2558879149295,273.049887846765,262.94518476597113,125.0463632749355
197.97848860851,286.08334901846575,307.79354413448016,341.42953033219686,272.8887716847564,263.2531913830032,125.04924350420484
198.00115279332772,286.02917419273024,307.7834525165723,341.60673861801996,272.70580366357206,263.5337608272253,125.05310934633728
198.0237435018121,285.9963406130824,307.7663863040505,341.7867756004952,272.501514314444,263.78641228033797,125.05807216984104
198.046377093312,285.9846199329542,307.7419689033972,341.96887313008733,272.2764564141627,264.0107527150586,125.06421750658188
198.06914262063128,285.99376336750936,307.7097479816809,342.1523156114632,272.0312541245037,264.2065091873954,125.07165119664167
198.0920414531442,286.02342962883193,307.6692356060864,342.33644771055197,271.7665532872687,264.37347348341075,125.08049927423235
198.11501630442424,286.0731798929365,307.6200085024128,342.52059132087993,271.4829821952089,264.5114698629395,125.09085884734016
198.1380450407492,286.14254755985405,307.5617116491559,342.70403823532837,271.1812094603732,264.6204185578022,125.10277608334454
198.16116990271,286.2310427679091,307.49399641031,342.88613767595035,270.86198730236464,264.7003790060767,125.11628344019674
198.184442430449,286.3380872431186,307.4165405038931,343.066311417432,270.5260952957386,264.7514951119263,125.13143017555043
198.2079054715682,286.46303433746886,307.32912503997625,343.2439732312755,270.1742987300374,264.77395566658646,125.14825212170575
198.23165666584578,286.6052884850527,307.23162603749637,343.41851669429883,269.8074073387165,264.7680468572844,125.16673130263848
198.25587921667926,286.76435457023933,307.12394515052233,343.5893936988989,269.42631938154335,264.7341850843738,125.18681531375643
198.28077141578189,286.93978187418764,307.00602167758643,343.75612219737485,269.03196258402716,264.67285502437386,125.20846864489585
198.30647234814342,287.13116601558556,306.8779015805536,343.91820421019037,268.62524421787924,264.58456588494107,125.23167549932772
198.33307398688072,287.338246036744,306.7397224167463,344.0751170810415,268.2070995338584,264.46990216827515,125.25638969817754
198.36065407828016,287.56092549648406,306.59163957445725,344.2263973284346,267.778530324247,264.3295570300906,125.28250920404568
198.38923825389037,287.7991614166205,306.4338378794621,344.3716523356825,267.34054882244413,264.16427166853526,125.30991023665054
198.4187419469444,288.0528943095256,306.266606258579,344.5104760795608,266.8941364058556,263.9747925827178,125.33847813446441
198.4490016203225,288.32210908734817,306.09032948634535,344.6424311674156,266.44029862430506,263.7619246912093,125.36808208127322
198.4798716340253,288.6068731716353,305.90541433566676,344.7671239361311,265.98010168045266,263.5265686542406,125.39854186025407
198.51125692475557,288.90725085831906,305.71229274765625,344.88421457484515,265.5146031445879,263.2696622208524,125.42965386233782
198.54305896672497,289.2232346331682,305.5114850429902,344.9933377373874,265.04478961526496,262.9921361508339,125.46124768591105
198.57515372795422,289.5547933995107,305.3035844651464,345.09409329854014,264.57161459584995,262.6949655002118,125.49319275164079
198.60744813472135,289.901903731253,305.089185694532,345.1861317939607,264.09603246887406,262.37920650298196,125.5253508443264
198.63990738226929,290.26447154955395,304.8689014063094,345.2691716807323,263.6189393111021,262.0459395754841,125.55755239580311
198.6724887433154,290.64228185590963,304.6434439669924,345.34292595136367,263.141127028544,261.6962288525441,125.58963036997723
198.70507945969908,291.0350686223909,304.41361994857857,345.4071181303568,262.66334075828274,261.331176995443,125.62144776142532
198.7375265990889,291.44256215513934,304.180251705655,345.46162207892826,262.1863291122087,260.9519636952076,125.65286684849194
198.76968719659283,291.86441585849695,303.9441772211273,345.5065286710162,261.7107946593513,260.55978560073737,125.68370978248072
198.80140092742354,292.3001523940417,303.70631918098337,345.5420809770078,261.23735689446005,260.1558042635443,125.71377742801786
198.832435139716,292.74922829577895,303.467675850718,345.56866879800543,260.76662005032796,259.7411843883237,125.74289891679825
198.8625149279676,293.2110796689129,303.2292410076203,345.5869430074581,260.2992280518458,259.31712153294455,125.77093537517784
198.89141764753685,293.6850511110171,302.99199596042774,345.59785758946947,259.8358054603698,258.88478361472914,125.79773425299307
198.91900294880784,294.1703449743633,302.7569651060177,345.60257575405666,259.3768972567155,258.44527258518696,125.82310766522895
198.9451549223711,294.6660895590802,302.5251962350091,345.6024304469934,258.9230195301295,257.9996828628737,125.84686663227092
198.96975518953238,295.1713904977337,302.29768052735875,345.59900441615673,258.47472369478095,257.5491446528609,125.86884889692817
198.99273519622963,295.6852679465611,302.07535566741836,345.5941448538141,258.0325533148911,257.0947690751313,125.8888891430173
199.0141007872951,296.2066171700445,301.85917741704554,345.589848359802,257.5969673831196,256.63760345981643,125.90677998312086
199.0338629912002,296.73429060973166,301.6501127887674,345.58818780313845,257.1683552877808,256.17867968174136,125.92228992061654
199.05196985067596,297.2671608972424,301.4490666016593,345.59133514503264,256.747097148516,255.71904927457075,125.93521141111974
199.0683270287231,297.80406137007395,301.2568854920205,345.6015229533078,256.33354462808046,255.25972463643342,125.94536303777558
199.08283951371564,298.34374053359187,301.0744245317326,345.6209173035854,255.9279499330443,254.8016366979026,125.95254308894066
199.09538060866888,298.88493375823566,300.9025330754996,345.65158575198296,255.53048965546154,254.34569439877572,125.95650945121585
199.1057384598519,299.42641776021907,300.7419792472555,345.6956005836906,255.14139392510114,253.89283330637204,125.9570176674431
199.11365156926192,299.96694557847655,300.59346205186074,345.75507575140165,254.76101819475892,253.4439604986555,125.9538536804556
199.1189110642814,300.50519748975324,300.45769331534126,345.8320689018861,254.38980084351604,252.99990470151948,125.94680938784465
199.1213980713693,301.03985246640786,300.3353953999562,345.9285393416713,254.0282491076807,252.5614670727346,125.93564892608337
199.12103041963917,301.56964660319335,300.2272257131412,346.0464334797026,253.67701404342526,252.12946805851684,125.92013314060662
199.11773819440256,302.0933129366197,300.13377631794435,346.187710522896,253.3369205997936,251.7046970248618,125.90007716995105
199.11151902278448,302.6095328210348,300.0556355427944,346.3542368213254,253.00889680481933,251.28786709632465,125.87536209689543
199.1024704609855,303.1170024853404,299.9933666758137,346.5477351807837,252.6939355585562,250.87966402223307,125.84589260340881
199.09074561513032,303.614486046958,299.9474215426893,346.7698621537549,252.39314517166082,250.4807846687132,125.81157573257913
199.07653049404456,304.1007540559587,299.91814254068646,347.0222295901473,252.10775847979917,250.09187779000536,125.77235637457652
199.0600958949605,304.5745390172789,299.90584502749755,347.30629960985124,251.8390479665314,249.71349425243184,125.72824693335815
199.04182474917687,305.0346101582821,299.91082114755767,347.62333755441523,251.58828172734027,249.3461368927248,125.67929831454389
199.02216250841835,305.4798340087144,299.93325823485014,347.9744936244859,251.35677777212211,248.9903041826256,125.62556073299567
199.00158877262922,305.909115889485,299.9732313181501,348.3608292128923,251.14592147513594,248.64643775522657,125.56710242667228
198.98066083776604,306.32135559958175,300.0307903040125,348.7832178103808,250.9570850873712,248.3148792167616,125.50406051128101
198.96002706227458,306.71552314947627,300.1059777706147,349.2423042460171,250.79158267579305,247.99592431708868,125.4366454696741
198.94034729612545,307.0907203589492,300.19873527164225,349.73859217306085,250.65072189761398,247.68986683143865,125.36509275219659
198.92221736581521,307.44611860541653,300.3088668940078,350.27247624654683,250.53582226630752,247.3969421517064,125.28963783369655
198.90618448767344,307.78090366442274,300.436131811516,350.84415084456214,250.44814353293256,247.1172783448827,125.21055213154116
198.89278384699907,308.0943388874524,300.58030391640204,351.45358120470496,250.38885649898387,246.85094821483628,125.12817618811769
198.8824994770381,308.3858196898377,300.74111051268187,352.100604055129,250.35910855035033,246.59801749065724,125.0428920080378
198.87569631963353,308.65481051020083,300.91820137537843,352.7849666960218,250.36003938566574,246.35849478404063,124.95508056113837
198.87263716394202,308.90079199421837,301.1112332319983,353.50623145917467,250.39267346924566,246.13228422677426,124.86513533252693
198.8735705318149,309.12332671540156,301.3199187298569,354.26373477855014,250.45782649500856,245.9192318002383,124.77350874472393
198.87876253837496,309.3221138705746,301.5439575079473,355.0566785634134,250.55612461708427,245.71916654416978,124.68071248029196
198.88844629153792,309.4969222198534,301.7830029266314,355.8841706375755,250.68802591486568,245.53185132635133,124.58726209490398
198.90280725531636,309.64752959118715,302.03674773358404,356.74513882433337,250.8537443699057,245.35694712329686,124.4936402139307
198.9220507738268,309.7737814540197,302.3049725584091,357.638300961786,251.05317670119877,245.19407719241383,124.40032415942375
198.9464410514059,309.8756436370075,302.58746944617144,358.5622636460588,251.28593780253195,245.0428817793417,124.3078263887927
198.97625366492275,309.9531380926088,302.8839943065846,359.515564287813,251.55141652420937,244.9029701776178,124.21667909147028
199.01174252686735,310.0062857147131,303.19433845487475,360.49658195739534,251.84873673256885,244.77387668834277,124.12738454899075
199.05318122834987,310.0351665347825,303.5183691842311,361.5035041853603,252.1766927077088,244.65511471094956,124.04040748698696
199.10088498166616,310.039973058285,303.8559504571373,362.53442839700557,252.53378426222187,244.54622551601693,123.95621714238445
199.15515780545311,310.0209458163272,304.20689455781127,363.587413329999,252.91830874261834,244.44672853203434,123.87530428289199
199.21625950518435,309.97831502389414,304.57103534743663,364.66040234132845,253.3283727419634,244.35607408353079,123.79813629017924
199.28444708789934,309.91235954252585,304.9482727185459,365.7512031921978,253.76183119067662,244.27369069948912,123.72511178123948
199.35999210806168,309.82345921806365,305.3384968469776,366.8576001828987,254.2163030355068,244.19902919966782,123.65657906643744
199.44310792305188,309.7120291056239,305.74153970152264,367.97740928727734,254.68929955443846,244.13151605674742,123.59288637078012
199.5338805900937,309.5784606458425,306.1572406781078,369.10839434248885,255.17831566512734,244.07051725585924,123.53438464153678
199.63229086702367,309.42318342138503,306.5854801919826,370.24822932570044,255.68081506559741,244.0153998363621,123.4813760302729
199.73825829896253,309.24672277933286,307.0261022876784,371.3945901946504,256.19424174480565,243.96558448740524,123.43408221642134
199.85161097466374,309.04963829808634,307.47887669381697,372.545196467407,256.716123029054,243.92049295393235,123.39267639560583
199.97202816888174,308.8324665115597,307.94357598084736,373.6977224433067,257.24412447429654,243.8794916469516,123.3573268918618
200.09906573926816,308.59578238447415,308.4200115312806,374.8497598518144,257.77597360590215,243.84193747015559,123.32818558089174
200.2322459001088,308.3402566459931,308.907947374412,375.99891428495556,258.3093833375751,243.80723832233633,123.305344082318
200.37108711700816,308.0665944997701,309.4070491420675,377.1428539149785,258.84208909258854,243.77481266130445,123.28883352321422
200.51505011111604,307.7754772526649,309.91695677830853,378.27922640725166,259.37190786953494,243.7440131907391,123.27867440082919
200.66351445330582,307.4676210730192,310.4373266236405,379.4056251477703,259.8966974958096,243.7141377878216,123.27489984419958
200.8158338433882,307.1438320879904,310.9677498901004,380.51968987730623,260.4142827293255,243.68449337716788,123.27751409772439
200.97136641145565,306.8049430173987,311.5076986393135,381.61916055454077,260.92249477319086,243.6543903578562,123.28644967554912
201.12941481992615,306.4517515417559,312.0565938517031,382.70179775326545,261.4192998718329,243.62307873210443,123.30159154563974
201.28916891509283,306.0850762503748,312.6138490807134,383.76534793505533,261.90284813091074,243.58976039825188,123.3228368126026
201.44973691849785,305.70581097938623,313.1788004485368,384.8076383969276,262.3714054939399,243.55369878213136,123.3501055379714
201.61019727542342,305.3148581879851,313.7506742481106,385.8266247633644,262.82332297570576,243.51427636157277,123.38329130169747
201.76957609306945,304.91305479566194,314.3286807018887,386.82030859555584,263.25711344284605,243.4709262451752,123.42222685397972
201.92679752977753,304.5012172213648,314.91207462672367,387.7867043072696,263.67150246885564,243.42306463903734,123.46671271101066
202.08071859944374,304.0802072184208,315.50008471597886,388.72393890059374,264.065378860306,243.37012897422238,123.51655901165216
202.23023154350383,303.65088199775244,316.09186308582304,389.63030330002186,264.4377746619783,243.3116320053615,123.57157341751329
202.3743070346237,303.21400304910514,316.68655199516564,390.5041680419344,264.787946211161,243.24712126167682,123.63151752681124
202.511950251386,302.77025279097546,317.2833225395969,391.34394342064394,265.11541959161576,243.17610840714678,123.69610705702772
202.64218396741896,302.32032002339577,317.88129450492283,392.14817331412735,265.41992312870013,243.09808771984564,123.76506051998678
202.7641095057721,301.86490596393367,318.47948449035374,392.9155846281974,265.701339305227,243.0126080575139,123.83812027688712
202.8769460429142,301.4046668204857,319.07687563730934,393.64500396900917,265.9597534982633,242.91927277288605,123.9150100560426
202.97999216887166,300.94023136868634,319.6724659083716,394.3353198425615,266.195475065685,242.81767444164697,123.99539109181629
203.07260477268807,300.47227806637795,320.26520545168853,394.9855781103961,266.40896175735827,242.7074014471265,124.07888365127621
203.15425250635806,300.0015328694287,320.8539662269057,395.5950299369345,266.6007729484164,242.58814506235032,124.16512521093354
203.22454906067586,299.5287020272797,321.4376266130712,396.16304155407596,266.7716178958405,242.45976456744634,124.2537835883925
203.28320954748062,299.05447997449875,322.0151193825752,396.6890473897444,266.9223736991405,242.3222484273282,124.34451384161015
203.3300264418043,298.5796211816992,322.58535539092253,397.17264131917256,267.0540122333399,242.17569854058013,124.43693275092267
203.364921398291,298.1049366647284,323.14717506813446,397.61362591908255,267.16756848629615,242.02040100481662,124.53064903925774
203.38797061996186,297.6312264087756,323.6994218632675,398.0119214899564,267.26421149574884,241.8568600180388,124.62529037327047
203.39933209849,297.15928845363237,324.2409928040859,398.367509584657,267.34527573387317,241.6857327526454,124.72047473437982
203.39916695669044,296.6899933106008,324.7707770338188,398.68050731971414,267.4121761884986,241.5077883445214,124.81577361777434
203.3876480751317,296.2242801642346,325.28763025056406,398.95120118364514,267.46633752930563,241.32395549022365,124.91073574896575
203.3649955201356,295.7630820262645,325.7904708952203,399.17994890169973,267.5092179983732,241.13534071676955,125.0049454524263
203.33144260952403,295.3073214451434,326.2783402228824,399.3671243561959,267.5423153364993,240.94315718538147,125.09803405536131
203.28717372248275,294.85797208640577,326.75033009891666,399.5131994608565,267.56709315325924,240.74868324563965,125.18963350983672
203.23234538895233,294.4160483351938,327.20553083670984,399.61878747888545,267.58495304371996,240.55330949360527,125.27934773526849
203.16717877417537,293.98253084421003,327.64309843060994,399.68455055128146,267.59731235353104,240.35855388463105,125.36678825094393
203.091995669183,293.55836782072396,328.06229739320617,399.71114447832554,267.6056455446014,240.16598885378878,125.45162116871856
203.00716647162702,293.14454267917876,328.46242390942786,399.69929871102954,267.61141162001843,239.9772055474749,125.53355638242074
202.91308737752917,292.7420647458222,328.84275304593865,399.64986060638336,267.6160043361535,239.79387154827822,125.61230193275225
202.81023902824904,292.3518896814552,329.2026071700777,399.5637080851455,267.62080867090964,239.61775229976845,125.68756117307417
202.6992207269757,291.97491378754887,329.54140496663723,399.4417046383604,267.6272334369281,239.45063439176985,125.75908090164927
202.58070074760008,291.6120392741198,329.8585981266719,399.2847935134095,267.63663781276153,239.29427858060575,125.82667440376014
202.45538193435513,291.26416762453664,330.15364014251037,399.0940529010091,267.65027833156535,239.1504671547847,125.89017982808377
202.32404340177843,290.9321224478072,330.42607731624315,398.8706095942414,267.669355455004,239.02102040025522,125.94941457675111
202.18756388521294,290.6166447941111,330.67560840134496,398.6155852161779,267.6950369042801,238.9077163682487,126.00419348127667
202.04687095025145,290.3184613977237,330.90201281953415,398.330176080702,267.7283855261712,238.8122374889424,126.05438274291824
201.90291186654133,290.03828300065635,331.1050958937931,398.01569532724955,267.77031740967584,238.7362113951845,126.09990868114768
201.75669838201134,289.77673019707163,331.28475411075186,397.6734798158999,267.8216617543238,238.6812263540565,126.14070935857013
201.60932209403921,289.53432766635933,331.4410182434368,397.30483512980703,267.88319473962963,238.64875595943684,126.17670366414767
201.4618719276495,289.31156926881295,331.57397559065447,396.9111183633058,267.9555726849022,238.64011011950552,126.20782598083186
201.31534734686736,289.1089152750406,331.6837160615477,396.49378585691994,268.03929057502097,238.65647494170898,126.23407380744598
201.17066065543696,288.9267216822571,331.77040169471763,396.05430385641785,268.13474311396715,238.69892530082106,126.25549627301605
201.02866924253766,288.7652409315556,331.83431363594326,395.594092875602,268.2422648895281,238.76834944406224,126.2721444517766
200.89014156987415,288.6246928702918,331.8757747277488,395.1146076226221,268.3620724212207,238.8654068624522,126.28406232191529
200.7556962978166,288.5052633264417,331.89509159489177,394.61738242255007,268.49423151505454,238.99058762411644,126.29132865577456
200.62582480439445,288.40702768428497,331.89261913467163,394.10394169165545,268.6387269439349,239.1442536935666,126.29407511833364
200.50098416745377,288.329943585466,331.86881201915236,393.5757480347223,268.7955086132505,239.32659020399268,126.29244179809275
200.3816321589624,288.2739207181279,331.824172391848,393.034289723943,268.964433692583,239.53758092873193,126.28653025003729
200.26817149796997,288.2388252072594,331.7592285125052,392.48113218956075,269.14522637000067,239.77707384140572,126.2764204964033
200.16091841299018,288.22440908057956,331.6746185814679,391.91782687642257,269.33753393039973,240.0448185823267,126.26222409823771
200.060151369113,288.23030693789246,331.571130846417,391.3458513441628,269.5409613105701,240.34041018254925,126.24409271788112
199.96614301539412,288.25611038369846,331.4496219989448,390.7666900565645,269.75501011179813,240.66326114750862,126.22216958909016
199.8791176277164,288.3013787553008,331.31096701424815,390.1818843114357,269.97904197877904,241.0126718273617,126.19655889258595
199.79922557067925,288.365579579499,331.1561274020981,389.59294092634156,270.21234200592335,241.38787645315418,126.16736338944112
199.7265914548503,288.4481134877762,330.9861866928376,389.0012694004343,270.45416352708133,241.78799210644607,126.13473836491943
199.6613448395817,288.54843718419795,330.8022582275516,388.40825853199743,270.70367820175034,242.21199308713923,126.0988866565311
199.60357643824472,288.6661055309035,330.6054128262094,387.81532520046153,270.959947696288,242.6587844709681,126.06001213431881
199.55330987666136,288.80067883015874,330.39672982730235,387.2238249668004,271.22198971511784,243.12725225487253,126.018310621993
199.51054532072322,288.95166808113686,330.17733482260456,386.63498985709106,271.48881935997787,243.6162135610711,125.97401143001095
199.47528167295386,289.1186064683072,329.94832602017317,386.05000280891505,271.7593911583506,244.12438442066076,125.92739659498412
199.44744914904314,289.301097221499,329.71072649303034,385.47004532718597,272.0325610763849,244.65043923683672,125.87875766211356
199.42683836449163,289.49874273229585,329.46555576535894,384.8962108480808,272.3071470206468,245.19304906661364,125.82834705999248
199.41311598425233,289.71109580585585,329.21387483388065,384.3294475003394,272.58197180527907,245.75083498440975,125.77638877214987
199.40587081290155,289.9377276297951,328.9567014269728,383.7706371139171,272.85581028656816,246.32235703774037,125.7231223371598
199.4045956177197,290.1782725388245,328.6949379862794,383.22064636885,273.1273581591959,246.90619887808245,125.66880447164127
199.4086403786155,290.43235525769734,328.42942443025413,382.6802440958691,273.3953026417656,247.50101540939102,125.613656973607
199.41724502440186,290.69954172698385,328.1609845000651,382.150051400018,273.65837548808565,248.10547155053794,125.55783158247522
199.42964227273464,290.9794090638818,327.8903592373138,381.630632331863,273.91530699175115,248.7182011569401,125.5014416228406
199.44510555355885,291.2715925056876,327.6181626332351,381.122555667024,274.16480349319363,249.33786550545682,125.44461418097217
199.46290847248136,291.57571156838793,327.3449648261068,380.6263140774655,274.40562955055856,249.96319197342456,125.3874894565036
199.48230921286432,291.8913168829324,327.0713590720589,380.1422662230056,274.6366661627292,250.59291679909313,125.33018024924318
199.50261367581268,292.21795726509777,326.7978980958365,379.6707160511439,274.85685453878745,251.22574985157524,125.27276666622468
199.52321278793224,292.55522730546875,326.52503654587815,379.2119666484036,275.06514410974034,251.86043495058138,125.2153383727112
199.543522199893,292.90269530724413,326.25319053461294,378.76623675407023,275.2605344454259,252.49578530630515,125.15801287602284
199.56291637243748,293.25985077952464,325.98278218013826,378.3336045634177,275.4421052056166,253.13061773807948,125.10089206738597
199.580752324468,293.6261726054027,325.71416443471855,377.9140928337796,275.6089592851271,253.76370446656063,125.04401533204431
199.59642326262608,294.00117903230876,325.4475608952104,377.5077312493622,275.7601922689839,254.39382196524383,124.98737424767708
199.6093400659484,294.3843574175791,325.18312881688723,377.11447998761844,275.89496165159653,255.01978439259125,124.93096284485839
199.61887508698592,294.7751111291429,324.92101426514296,376.7341755959759,276.01253428451435,255.64038671148558,124.8747862764273
199.62438185483848,295.17282572598936,324.6612911858842,376.3666141980432,276.11222918846346,256.25437198777774,124.81881575641833
199.62528642331444,295.57691885008506,324.4039126298943,376.01161158616867,276.1933742586813,256.8604966757676,124.76296086976278
199.62112517742955,295.9867718375513,324.1487782024379,375.66892478980134,276.2553639046547,257.4575755250724,124.70710562121799
199.61149296594087,296.40167654811194,323.8957877378017,375.33819499377034,276.2977039191717,258.0444296006829,124.65115771150904
199.59601572025156,296.8208989612436,323.64478085917403,375.01902841000214,276.31995773875656,258.61985503326986,124.59504178489624
199.57440484133295,297.2437281506852,323.39549840551103,374.7110563496286,276.32170697191856,259.18268837603597,124.53865707992531
199.5464899551349,297.6694121625607,323.147667403345,374.413857986061,276.30261131881747,259.73185015474235,124.48187558291154
199.51215589392027,298.09711571453334,322.9010678678095,374.1269050336436,276.2624546672186,260.26628995453405,124.424589946684
199.4712721786374,298.5259990417882,322.6554715963679,373.8496456209505,276.20109248481316,260.78495205911827,124.36673738929602
199.42370890205675,298.95527809454234,322.41058901652667,373.58156764201715,276.11841565424845,261.28684015410323,124.30826034226133
199.3693827781712,299.3841591873943,322.1661338094646,373.3221225211987,276.0144165998408,261.77106180958015,124.24906180468821
199.30823531009435,299.8117824589326,321.92187380293404,373.07066765374776,275.88923960859046,262.2367691183461,124.18902219488507
199.2401765147759,300.2372816528945,321.67756372281895,372.82654678313605,275.7431273233507,262.6831071625926,124.12805325222203
199.1651040538188,300.6598324917341,321.43289687237643,372.58915146002516,275.5763828494021,263.10925282305936,124.06610984435775
199.08299155649237,301.07858814082306,321.1875829683043,372.35784439043397,275.3894354901441,263.5144419035473,124.00314483681014
198.99392156371692,301.4926312297766,320.94141084703045,372.13190023281936,275.18288604339295,263.8979142193166,123.93907908935661
198.89802912533816,301.90104350007067,320.6941813606433,371.91058322454205,274.9574350629378,264.2588849497005,123.87383594097871
198.79547319426328,302.3029610055171,320.4456477520874,371.6932076098056,274.7138122037497,264.59661137271263,123.80739128868895
198.68649412129153,302.6975097304979,320.19558115281285,371.47906354751285,274.45280782752843,264.91043973484796,123.73976911375134
198.57145284357748,303.08375298454604,319.9438307470795,371.26736497593754,274.1753009129345,265.1997558433882,123.67100131748802
198.45078566578934,303.4607586911006,319.6902639241919,371.057337036985,273.88219346061896,265.4639530003597,123.60112830710048
198.324971273362,303.82765723260866,319.4347129679101,370.8482831895166,273.574360814387,265.70249617781775,123.53024999855003
198.19457565488344,304.1835814418182,319.1770370363099,370.6395091583612,273.2527023506221,265.9149687947299,123.45855119279288
198.06028076493212,304.5276163060091,318.91717151248497,370.4302604409946,272.91817768430695,266.10102045211255,123.38625960090309
197.9228321182179,304.8588650660172,318.65505875714706,370.2197979690195,272.57174314857633,266.260328006661,123.31359468002884
197.7829983551156,305.17650424189816,318.3905917394806,370.00745901765634,272.21430586698943,266.39265201071635,123.24077648107513
197.64160756237408,305.47972181553297,318.1236792844664,369.79258054988117,271.8467837101787,266.4978766431691,123.16807260280649
197.4995691370075,305.76766773342763,317.8543009623059,369.5744377245588,271.4701515944619,266.575951700747,123.0958041393299
197.35781944981244,306.03952480096734,317.58243972391455,369.35232036625405,271.0853766350618,266.6268493251696,123.0242940307439
197.21728514149677,306.2945703071964,317.3080216933343,369.12559600149865,270.6933515853029,266.6506185264543,122.95383036921577
197.07892518144757,306.5321172613961,317.0309750147681,368.8936388024897,270.29492340718616,266.64742642760626,122.88469537799509
196.94375501803415,306.75146253559194,316.7512812541327,368.6557773672249,269.8909199358531,266.61750173947206,122.81720941785885
196.81279020195666,306.9519523480319,316.4689118779027,368.4113812416038,269.4820932968484,266.5610877970367,122.75171751599223
196.68700714944566,307.133038769318,316.18378038853393,368.15992942433473,269.0690851191665,266.4784884206579,122.68853677223831
196.56738572268864,307.29421777714214,315.89581752178026,367.9009364354722,268.65249213883743,266.370102289534,122.62794223544297
196.45493614231867,307.4349751631227,315.6050331584652,367.6338915109986,268.23291741989516,266.2363669653398,122.57020584174542
196.35064203474937,307.5548504447221,315.3114515610351,367.35833823249015,267.8109218623069,266.07771961973395,122.51561757593988
196.25541292673208,307.65349357645994,315.01505537616185,367.07394249684523,267.3869936356154,265.89465289919474,122.4644492138863
196.17011517560346,307.73060491405084,314.7158553224697,366.78042200751156,266.9616256927054,265.6877555901739,122.4169199173854
196.09559434628946,307.7858842364496,314.413953147827,366.47748729668933,266.53537976366044,265.4576555847152,122.37322233819867
196.03262684518586,307.8190982753652,314.1094826823685,366.16491938294996,266.10883682875186,265.20497383200643,122.33356786831732
195.98188984788953,307.8301394698626,313.80256531473515,365.84263321778207,265.6825482423183,264.9303733474592,122.29817858759031
195.94400766940143,307.81896486588835,313.4933957928866,365.51060130720606,265.2570872091579,264.63459674053996,122.2672403037846
195.91957889745558,307.78554261277566,313.18231417257107,365.16878974947286,264.833092114889,264.31841117356083,122.24089266084607
195.90912155713008,307.7299183674731,312.8697373642762,364.81723455082005,264.4112075893087,263.9825715770586,122.21927082671496
195.91303309746363,307.65227379201104,312.55608687031594,364.4561054982581,263.9920362604316,263.62788454964044,122.20252815073643
195.93163367550872,307.5528626364185,312.24184015147375,364.08562648861465,263.5761983747336,263.2552577704072,122.19080130388875
195.96519968163602,307.43195019390265,311.92758049498434,363.7060027199798,263.1643842480266,262.865644260406,122.18417757482608
196.01391712830372,307.2898716303786,311.6139298499991,363.31748785249096,262.75729586840083,262.45999014607656,122.1827222160054
196.0778431117163,307.1270868478058,311.3014921940184,362.92044514984906,262.35558540069866,262.0392775552758,122.18652386172154
196.1569435721825,306.9441181101088,310.9909180237473,362.51527200996,261.95989136191747,261.6045606566231,122.19568522161848
196.2511227531377,306.74149266422734,310.68295599899216,362.1023347874096,261.5708701855811,261.1569087234376,122.21027508293473
196.3601826196777,306.5198036019111,310.37837298301366,361.6820442209559,261.18913313068816,260.69735916315744,122.23032109651905
196.4838005395173,306.279765059721,310.07786904571964,361.2549215530087,260.8152003578025,260.2269643825813,122.2558571242118
196.6215842584789,306.02214634481436,309.78210889356046,360.8215209243879,260.4495642439201,259.74682689399737,122.28694873551738
196.77310972987428,305.74770798341603,309.4917562539597,360.3823554757099,260.09274487425716,259.25803802272986,122.32365219113541
196.9378789452524,305.45725660207455,309.2074045916231,359.93796222469666,259.7452432159139,258.7616294393726,122.36596455881599
197.11529197340548,305.1516978613399,308.9295264414983,359.48896176307227,259.4075121928956,258.2586283590775,122.41383711945218
197.30469808364185,304.83197112985266,308.6585446540105,359.03598057914326,259.080039138218,257.750108736767,122.46723156138138
197.50543395186853,304.49898675757095,308.39489251076384,358.5795802653954,258.7634101107388,257.23714262831066,122.5261357589641
197.71678367898522,304.1536825892997,308.1389533372921,358.1203258966933,258.45824970140256,256.72075226331344,122.59051729221258
197.93795038347778,303.7970781688658,307.8910113151629,357.65885031835876,258.1651551181264,256.2019543881358,122.66028670726489
198.16810431861623,303.43020482807975,307.65132176353137,357.19578161092596,257.8847315365408,255.68179786048375,122.7353253461938
198.40641900592183,303.05402679522103,307.4201687040215,356.7316752349028,257.6176227818991,255.16130714489788,122.81553088378682
198.65202997229935,302.6694837929732,307.1977997113959,356.26708255324564,257.3644409350871,254.64143393711814,122.9008071797168
198.9040034227336,302.2775572878163,306.98436969400984,355.80261339523196,257.1257035121327,254.12310579127004,122.99101509525347
199.16138109668182,301.8792214529246,306.7800075593641,355.3388613957148,256.9018758772273,253.60726842092615,123.08596385427664
199.42321603363692,301.4753523450726,306.584875588532,354.8763380684328,256.6934105446111,253.0948314706744,123.18545790089293
199.68853466241748,301.0667455873518,306.3991030470009,354.41554965338014,256.5006834716302,252.58662243710583,123.28932432573659
199.95631098412824,300.6542029771772,306.2227207118318,353.95706901542496,256.3239320911144,252.0834405579501,123.39737980010686
200.2255160171032,300.2385365017746,306.05571557839875,353.5014646031077,256.16329399729574,251.58610548864596,123.50939978502194
200.49515459154554,299.82050416597457,305.89808267171077,353.0492298797275,256.0188455495163,251.0954067239845,123.62515042975367
200.76422606639292,299.4008210198195,305.7497621617728,352.60084899737024,255.89054381114235,250.6120549503241,123.74443898964077
201.03169870466468,298.98023596721157,305.61059221500506,352.1568574063162,255.7781736092484,250.13672590074412,123.86710640451463
201.2965621878785,298.55953330618775,305.4803879792472,351.7177642530229,255.68140534481984,249.6700959403445,123.99297535330173
201.5578671760774,298.13946841884115,305.3590069191986,351.2839791177699,255.59986822926314,249.21277981926474,124.12183412921765
201.8146857560439,297.7207789159355,305.24627646446334,350.85587836483404,255.53311668688988,248.76527393475334,124.25347647102235
202.06608412967424,297.3042613302935,305.14191296303875,350.43387054876433,255.48056400963017,248.32800725916363,124.38772543295028
202.31117499185942,296.89077029126076,305.0455681697974,350.0183265044264,255.44152301903551,247.90140711470036,124.52439789325838
202.54915859706801,296.4811469111295,304.9568990588574,349.6095162880346,255.41531354523823,247.48586338437522,124.66326959447689
202.7792838287367,296.0762173521946,304.87552142753134,349.20768787195834,255.401290136605,247.08166180344568,124.80410193371841
203.00081776226358,295.67685651086856,304.8009319622642,348.81314180985237,255.39880009603237,246.68901065691216,124.94668917703507
203.21309066577285,295.2839789432765,304.7325489074676,348.4261611140122,255.40720319060765,246.30811485894768,125.09085108211448
203.4155284933508,294.8984648110748,304.6698112614952,348.0469371265163,255.42594079145402,245.93916499767144,125.23638392887295
203.60760697954242,294.52116067496,304.61218074819055,347.6756315904125,255.45452722740518,245.5822563773097,125.3830482289741
203.78881605499822,294.15294702485886,304.55908538978633,347.3124394040615,255.49247843067394,245.23737998134425,125.53060991413709
203.95870195771732,293.79472998624607,304.50995305866405,346.95751757685787,255.53930629117795,244.90451190948426,125.67886297874135
204.11689994947108,293.4473613491253,304.4642974288225,346.61091919027484,255.59457053748454,244.58365880841475,125.82759284419103
204.26309143990085,293.1116278368964,304.42170714611024,346.2726680784139,255.65787034122076,244.2747924997943,125.976541161368
204.3969732572979,292.7883088699486,304.3817738826309,345.9428326490867,255.72879470463852,243.9778024571048,126.12543311328382
204.5183041126923,292.4781658488884,304.3441139355486,345.6214533422946,255.8069521921537,243.69255500834328,126.27402615637436
204.62693737650605,292.18186584937683,304.30845709054796,345.3084549838764,255.89204983306823,243.41894573636904,126.42210389182569
204.72277325534122,291.8999818101923,304.27464519262975,345.0037005053157,255.98388353691865,243.15684939080472,126.56942579716817
204.80572330455414,291.63307063049746,304.24255247895456,344.70707831772364,256.08226720801076,242.90607100343883,126.71571185643438
204.8757577834995,291.38168213321535,304.2120743474235,344.4184570600076,256.18707455632637,242.6663921918534,126.8606832046929
204.9329440468117,291.1462846287036,304.1831745859944,344.1375833116234,256.29840357287276,242.4376132584333,127.00408902109733
204.97740266299405,290.9272394048295,304.1558579798675,343.8640987825956,256.4166597570022,242.21950202597006,127.14567608801838
205.0092676488043,290.7248342328454,304.1300942509819,343.59764127740556,256.54247833062055,242.01175157765994,127.28515814669298
205.02872114472635,290.53925675376036,304.10583835792744,343.3378556232216,256.6766486736154,241.8140369245583,127.42224510427843
205.03601872808952,290.37053196651675,304.08312163000113,343.08432592774875,256.82013199023856,241.6260664067787,127.55669133683313
205.03143942038304,290.21860386547627,304.0620548324086,342.8365942229037,256.97404879124946,241.44752998849788,127.68828842508242
205.01524739108388,290.083565508963,304.04275258647033,342.5942566300311,257.13957082099296,241.27804003375536,127.8168160332635
204.98773306898926,289.9658001446533,304.02533166014325,342.3569721263015,257.3178444401373,241.11716847961654,127.94203059847949
204.9492462747086,289.8659407426365,304.0099779472281,342.1243916566288,257.5100123498397,240.96449979849936,128.06370947703314
204.90015220326916,289.78481560295734,303.99693665141854,341.8961728243088,257.7172123915909,240.81959086455169,128.18167768553442
204.84079614109808,289.72344962409437,303.98643097340664,341.67207267533183,257.94049440531444,240.68190136892693,128.29577444118968
204.77154471380538,289.68300363470155,303.9786480427724,341.45195220144655,258.1807823355211,240.55081459320766,128.40581814027746
204.69281761823552,289.664646875205,303.9737842002738,341.23570076219977,258.43893763724805,240.42571283332873,128.51163000693444
204.60504354994916,289.66950274817583,303.97202039919335,341.02324956096,258.71578538735264,240.30598131284947,128.6130775879819
204.50862894411532,289.69867372379963,303.9734498343313,340.8146658856554,259.012035047065,240.1909474682317,128.71006594544673
204.40400663652994,289.75320434291746,303.9780907386135,340.61015372326835,259.3282291049159,240.07989251807987,128.80248832695543
204.29167289345455,289.8339769185371,303.98595458454787,340.40996115358945,259.66479146759417,239.97216329656382,128.89021194648853
204.17214300880772,289.94169345193774,303.99702942811854,340.2143662144294,260.02204860429515,239.86724094497652,128.9731163943978
204.04591795351757,290.0769624776839,304.01120651662393,340.0237474385795,260.4001426235222,239.76470495312753,129.05111461034463
203.9135335908128,290.24033007653884,304.02829656150186,339.83857564000147,260.7989356078377,239.66422103639172,129.1241149652602
203.77559944592406,290.43221701836507,304.0481155943313,339.6593242731048,261.21797895432104,239.56561518018097,129.1919833562083
203.63275317126872,290.6529011258065,304.07049112010696,339.4864615081045,261.6564787449699,239.46890956685556,129.2545673620186
203.4856211519199,290.90256621179657,304.0951997325872,339.32052467102494,262.1132210204676,239.37426332473123,129.31174492059904
203.33485817340534,291.18128137420354,304.1219818124115,339.1621118410131,262.58657595560317,239.28194627761147,129.36342322576527
203.18117693516388,291.48890499316394,304.1506216138146,339.01178911938274,263.07465686327845,239.1924043761181,129.4094968649493
203.025295841046,291.8250728320024,304.18094618373675,338.87008071964993,263.57548175798274,239.10628864368758,129.44984006367818
202.86789450023403,292.189297175249,304.21275329088763,338.7375465919265,264.08697430311287,239.0243888751473,129.48435007615788
202.70964928447833,292.5810086173984,304.24581188098665,338.61477991140225,264.606885702944,238.9475991569653,129.51297087907258
202.5512616788231,292.99948989899593,304.27992445172396,338.50231479127046,265.13281632205553,238.8769713916705,129.53565390033063
202.3934081828841,293.44387663047775,304.31491306997185,338.40060792787386,265.6623352053376,238.81372778338053,129.55231314560368
202.23669788288794,293.91329653314256,304.3505434565535,338.3101054580121,266.19303996047165,238.75917480438596,129.56284604291633
202.08170828392792,294.4069581653164,304.3865253011126,338.23123737395815,266.7225189230886,238.7146504954577,129.56719605948982
201.92901493523377,294.9240649317741,304.4225753904284,338.16433370034656,267.2483620079171,238.68157086557065,129.56537108646552
201.77914627443243,295.46369407101537,304.4584071591062,338.10962080534716,267.76827453300547,238.66144788796586,129.5573963696339
201.63254880522462,296.02476905407065,304.4936613559751,338.0673004496915,268.28014441715936,238.65581208113375,129.5432773917658
201.48963069721012,296.6060467905515,304.5279162809358,338.03754714194366,268.78198461393436,238.66616801734196,129.52303274492053
201.35079701820848,297.20606067053734,304.5607633953774,338.02041656380845,269.27188706502056,238.69405039735895,129.49675116298445
201.21640589233905,297.82314000920366,304.5918089171747,338.01584249514264,269.7480766178396,238.7410487265279,129.46459164245857
201.08673025247504,298.4555561889081,304.62061973087737,338.0237495791297,270.2089479016203,238.80872822925178,129.42673460523173
200.96199584402422,299.10162337096733,304.6467594250845,338.04409860840303,270.653011466668,238.8985739747362,129.38336312467226
200.84241299749488,299.7596634297176,304.6698926426599,338.07681755147263,271.07886912059894,239.0120285802074,129.3346959475175
200.7281345375395,300.42800031174926,304.6897972983682,338.1217978796063,271.48528320594255,239.1505025642616,129.28100448527843
200.61922460937717,301.10507790330183,304.7062872074069,338.1790061253368,271.8712119549925,239.3152966471891,129.22257345027802
200.51570608978417,301.78953288118873,304.71918992446376,338.248530367764,272.2357458594182,239.5075638125269,129.159663968702
200.41760025423574,302.48010646680353,304.7283807212794,338.3305130795714,272.5780758457696,239.72837279858675,129.09253962455819
200.32489092507606,303.17553493082676,304.7337523637326,338.4251478811587,272.8975612719452,239.97873887187995,129.02151522231108
200.2375003585806,303.87454104963655,304.73514372999705,338.5327774125465,273.1937679774037,240.2595489783365,128.94695141007838
200.1553431520339,304.57582966745457,304.73235367623846,338.6539071840877,273.4664107782815,240.57150540176727,128.86920353514088
200.07836692364103,305.2780015061836,304.72520870583116,338.78909748412127,273.71533771958497,240.9151608033134,128.78860241604332
200.00650888528259,305.9794956568934,304.7135458133569,338.93892504783827,273.9406239421183,241.29093054555028,128.7054889940734
199.93965576678997,306.6786436517271,304.69713359598717,339.10406602802755,274.14262259362306,241.69901788886716,128.6202346458653
199.8776788488518,307.3737163622226,304.6756771380329,339.28532444471887,274.3218753879066,242.13936763069555,128.5332040429422
199.82046227202179,308.0628890990525,304.64889869641803,339.4835646879164,274.47901073007137,242.61171226614462,128.44471672676963
199.7678571257998,308.74425609440374,304.61655047976734,339.69969512517883,274.6147331747197,243.1155968105211,128.35506913368607
199.71964432521077,309.4159553013634,304.5783674373905,339.93469536013794,274.72981239381846,243.65032290042157,128.2645816068459
199.67557429900583,310.076242004767,304.5341155757695,340.1895298812621,274.8250058134975,244.21493293029326,128.1735958858746
199.63540087620677,310.72343267257355,304.4837272075703,340.4649695818824,274.9010305655335,244.80829538938357,128.08243084080578
199.5988409447532,311.35589255440897,304.4273421082386,340.76152230787466,274.9586498374962,245.42916264452103,127.99137396709763
199.56554117747336,311.97216790260273,304.36523451034185,341.07952154929376,274.99873225007775,246.07612943369804,127.900727544471
199.5351191559805,312.5710837334837,304.29779331821067,341.4191869639256,275.0221944935727,246.7476148394535,127.81083533373163
199.50719710879926,313.151671925167,304.22558169294985,341.78057728477347,275.0299617198443,247.4419384266233,127.72204588669247
199.48136149065206,313.7130736502355,304.14932964551787,342.16360623998276,275.02303851176043,248.15737009878492,127.63467336068462
199.4571333466032,314.25454869426267,304.0698435987599,342.56818594075617,275.00256081530097,248.8920766571378,127.54902050082562
199.43401915583715,314.7754855324637,303.98795514044895,342.9943037228579,274.9697374255769,249.6440618172534,127.46542689501564
199.41155581820456,315.27531958189394,303.9045027560835,343.4419471069292,274.92580107840905,250.41116867934883,127.38426465128157
199.38927668242604,315.7534785499029,303.8202431862397,343.9110571976552,274.8720491221705,251.19107166707147,127.30588524137676
199.36668280501203,316.2094384951921,303.73575398481256,344.4015961638993,274.8098554694029,251.98120495075204,127.23059364250939
199.3432920003642,316.6427551161917,303.65152950594813,344.9135564603503,274.7405813476615,252.77871190051815,127.15867584334175
199.31868092088473,317.0529767700389,303.56826946085374,345.4468251240174,274.6655120972091,253.58049723955358,127.09041553964802
199.29244011867803,317.43958143194453,303.48708363872277,346.00107312356715,274.58590368997613,254.38330656445433,127.02605662803096
199.26411467678454,317.8020469152493,303.4095026038298,346.5757744430691,274.503013712311,255.1837230090513,126.96576697698994
199.2332140598923,318.1399147880544,303.33750891773883,347.17020816271076,274.4180264881414,255.9781299880825,126.90966581784815
199.1992378683177,318.45271398064585,303.273665003655,347.78333359034224,274.33199065042174,256.76276655559974,126.85787634341642
199.16163781138545,318.7398495667775,303.22112853045854,348.41366717506617,274.2458567508601,257.5338576700394,126.81052374736448
199.1197580454524,319.000598497612,303.18349249781005,349.05928964915245,274.16050074817144,258.28767634030015,126.76768470834391
199.0728451639021,319.23415512664036,303.16463446170644,349.71789869789154,274.07664979287597,259.0205099423235,126.72936872436009
199.02011255258543,319.4396101855729,303.1686353922894,350.3868172847225,273.9948269353468,259.7286659088051,126.69555697201406
198.96075775182052,319.615923657463,303.1996310730076,351.06308756585645,273.91540558999003,260.4085721290186,126.66622977840535
198.8939052195108,319.7620176150648,303.2615576937017,351.7437392126905,273.83866326757305,261.05684905893264,126.64133612347028
198.8185686923826,319.8769185586018,303.3579444417869,352.42600856989765,273.7647403167167,261.6702820217615,126.62076095076101
198.73370834776256,319.95978418751525,303.4918693245635,353.10730587985466,273.69360338283354,262.2457968663522,126.60435442013541
198.63831946971766,320.0098476205229,303.66598639603103,353.7850892314668,273.62509883226136,262.78050688904216,126.59198739752362
198.53145523444948,320.02643192826906,303.8824834634216,354.4568824915117,273.55899945424574,263.27174839407195,126.58355506006654
198.41223266370824,320.00901808016897,304.1430145395598,355.12038350724873,273.49497455050255,263.7170721401254,126.57893252440543
198.27994651162228,319.95724699008065,304.4487170666317,355.77347286205884,273.4325926435395,264.11428830663533,126.57795914464955
198.13425222001524,319.87090063750605,304.8002520739764,356.4141557030986,273.3714211203176,264.46157297372906,126.5804753584325
197.975237921361,319.74996783615467,305.19777279504524,357.0405993753855,273.3110938392777,264.7574944196895,126.58634490707225
197.80333199019276,319.59470581778885,305.64092193863956,357.65121408625174,273.2512629404262,265.0009129584566,126.59541949490469
197.61917025554555,319.405567760259,306.12895498247644,358.2446135646932,273.19155487962945,265.1909028633125,126.60750328588927
197.42351473345457,319.1830899670683,306.660859748405,358.81953370931933,273.1316210176313,265.32680562781405,126.62238008738449
197.21718904489182,318.92791291285215,307.235373782164,359.3749099930871,273.0711764692201,265.4083071944136,126.63986564516073
197.00099049425887,318.6408976241353,307.8510372859007,359.91005131417694,273.00994497551113,265.4353989007772,126.6598065073815
196.77562854699056,318.3231431772579,308.50635081488133,360.42467357426005,272.9476176844934,265.4082815757236,126.6820304086043
196.54174044198945,317.97586809375485,309.1998607239539,360.9187866340102,272.8839051420165,265.32736363643295,126.70632636329594
196.29992784036892,317.60032516913105,309.93008191511035,361.39260694806933,272.81856992935764,265.193343837912,126.73248067502976
196.05073732308912,317.1978364050713,310.69543937718447,361.84649738385303,272.7513593714192,265.00723190900993,126.76030271492904
195.79463390252926,316.7698544193242,311.49436402592164,362.28081795905854,272.68195322731617,264.77028827937056,126.78959368802805
195.53207968597755,316.3180211524253,312.32544751644417,362.6957489587893,272.610011123042,264.4840467720445,126.82011019641078
195.26369108453093,315.84428380306616,313.18760663083447,363.0913065901021,272.53521624073124,264.15047083268854,126.8515855818914
194.99031402328868,315.3509815988754,314.08031792405416,363.46758386753953,272.4572505988139,263.77206771416974,126.88377763098062
194.71297699630864,314.84077647975874,315.0038100792748,363.8249394272473,272.375807679777,263.35189888090173,126.91646829611949
194.4328951301436,314.31652284160106,315.95902683651036,364.1639631185988,272.2906803727995,262.8936665382123,126.94941870170473
194.15162609873343,313.7812245085039,316.94741766554773,364.4854001420901,272.2017967594653,262.40190465051336,126.98235428357265
193.87120862776962,313.23801031935557,317.9707710005815,364.7901765213304,272.10916463883007,261.88204318553613,127.01500447592834
193.59412016847048,312.6900159961001,319.0311671494896,365.07939843977806,272.0128607833301,261.34027341439753,127.04713030461458
193.32313751960461,312.1402755787374,320.1309472428832,365.3542587055909,271.91311202566794,260.78338469285677,127.07849449242698
193.06122776933822,311.5917694499032,321.27264438089367,365.6159882186775,271.81032553331937,260.21862882099197,127.10882864780264
192.81145084802407,311.0475596735566,322.45891648308327,365.8658863632843,271.7050060755931,259.6535101418367,127.13786029169367
192.5768419437402,310.51086952672233,323.6924534331171,366.1052799311999,271.5977062758491,259.09550239714923,127.16536428553012
192.3603577183378,309.9851147740807,324.97588598095746,366.33539529535784,271.4890922979594,258.55183880502534,127.19116295909456
192.16494018769077,309.47395091840076,326.3118316135949,366.5573375702992,271.3799885642273,258.02945589306336,127.21508121954886
191.99357409568398,308.98129199175327,327.7030195428042,366.7722271044244,271.27131095994565,257.5349774781622,127.2369327349003
191.84920944409092,308.511233035632,329.152271174659,366.98127018882536,271.16400944466346,257.07462075910183,127.25655935414034
191.734608843324,308.0679747022098,330.6623048072248,367.1856517812763,271.05910266108964,256.6541154130303,127.27385544378613
191.6522459658475,307.65587891728785,332.2355512777176,367.38646111926926,270.95769050433296,256.2787506031199,127.28873205715514
191.60426518419268,307.2795293886835,333.8741077682099,367.58479255012696,270.8608671373595,255.95344926834832,127.30107689827103
191.5924237699737,306.9436019107799,335.57974166782606,367.7818258698885,270.76964714005237,255.68274858403686,127.31077603088063
191.61799741964694,306.6526115138316,337.35383800643234,367.97873176052104,270.68498630506855,255.47075528486434,127.3177644742826
191.6817358373092,306.410715621668,339.1974309415018,368.17656637188657,270.6077912042592,255.32113851248513,127.32202659523304
191.7839296490133,306.2215879010746,341.11144050377476,368.37628841446104,270.53884296563075,255.23707600853692,127.32354708436213
191.9245101751626,306.08826715832924,343.0968665914861,368.5787681154118,270.4787507793689,255.22109901699034,127.32229043790602
192.10307037651503,306.012956531208,345.1547164700759,368.78472447318836,270.4280152458187,255.27491866757725,127.31823765983107
192.3188347291846,305.9968750634335,347.2858332118175,368.99476970536114,270.38707785073035,255.39936108623465,127.3114129470661
192.57069516653962,306.0403246097364,349.4907952253928,369.2096097375826,270.3562596064489,255.59444486175485,127.301851056454
192.85731907663555,306.1429891776665,351.76978474395304,369.430156180573,270.3357045348617,255.8594861517685,127.28955907290434
193.1772202298754,306.30424174882074,354.1223936829715,369.65743615946826,270.32542940190285,256.1931475190706,127.2745387527285
193.52877916625306,306.5233441118629,356.5476196307518,369.8925076757411,270.32537493703484,256.59354802251613,127.2568365161118
193.91030512543168,306.7997841850118,359.04415736839314,370.1364981252048,270.3353755405622,257.0585123345688,127.23654304855633
194.3201220849826,307.1338762500343,361.61064726607947,370.3905998354946,270.3551635619398,257.5857678444777,127.21374470270595
194.75657158091505,307.527282081941,364.2456198841254,370.65593912979205,270.3844781548074,258.17294690335456,127.1885026311463
195.21795017469606,307.9831673731348,366.94731439636587,370.93348572842166,270.42313582460895,258.8175583464513,127.16088594386619
195.70250174206393,308.5060743777556,369.71355684297635,371.22408114120464,270.47096929011855,259.51706728568996,127.13099407010108
196.20847545727594,309.1016043603841,372.5416368648596,371.52843111068177,270.5277740649925,260.268954191912,127.09892331551411
196.73413353365868,309.77598265697713,375.4281678341483,371.8470011677304,270.59337264450477,261.07065022645753,127.06473193249738
197.27765913737238,310.535710034346,378.36909774146176,372.1799852065533,270.6676688510497,261.9194731724767,127.02846663401397
197.83706004674804,311.3873851123334,381.3599092829796,372.5274101467036,270.7505814213153,262.8126649605825,126.99021441673072
198.41017560428696,312.33752998242863,384.395750796563,372.8891800767409,270.8419790316087,263.7474364729916,126.95010137657006
198.9947611990325,313.3923008602205,387.4713422246682,373.26496952514526,270.941727211632,264.72093775137773,126.90824242543808
199.5885303249966,314.55719344768374,390.58088854227395,373.65419191242586,271.0497326009481,265.73022122143857,126.86471966550486
200.1891247262975,315.836871791422,393.71822589650714,374.0561887025802,271.1658844466662,266.77223690478206,126.81961637691924
200.79409939121663,317.2351299272422,396.87704846840427,374.4704034124395,271.2900202412283,267.84378651009524,126.7730410915974
201.4009474738052,318.75495367149966,400.0509853129407,374.8963056176274,271.4220190566455,268.9414454916677,126.72509669070871
202.00709405285576,320.3985983184025,403.23356199000244,375.33320204673953,271.56187743300825,270.06161030717976,126.67585000032862
202.6098627375814,322.1675468469329,406.41814817667006,375.78018652610166,271.7096366220625,271.2007213467478,126.62536531233874
203.20653693674268,324.0623283675495,409.5978550645372,376.23621834116534,271.8652903499165,272.35546042422243,126.57376401832248
203.7945430383929,326.0823497760593,412.7654050698785,376.7001366132934,272.02881955233477,273.5227447508186,126.52122861624844
204.3715907218369,328.22586962882593,415.91315571453293,377.17058097498364,272.200257558212,274.69962004129866,126.46795319323267
204.93567146960672,330.4900695059498,419.03331744281274,377.645964444449,272.37963974901527,275.88324509911376,126.41411999371972
205.48503686201536,332.8711654824475,422.118116240736,378.12450960073346,272.5669057317645,277.0709499643585,126.35993126522582
206.01825001849164,335.36459395536457,425.1597575972797,378.604223044788,272.7619015956288,278.2602390061422,126.30562984463712
206.5342120196706,337.9652009506856,428.1503874915587,379.0828327477843,272.96444644144697,279.4487850804164,126.25146100238882
207.03207955863476,340.6672691071311,431.08219110532633,379.55781711245766,273.1743290615263,280.6345165615881,126.19763101467004
207.5111649252619,343.4643778741598,433.9474827134874,380.02648099752014,273.39127032122195,281.8156785112939,126.14432880992972
207.9709327411826,346.34926837001007,436.7387041781942,380.4859301567121,273.6149879655253,282.99071951799885,126.09177704810979
208.41104945001348,349.3138675231129,439.4484551132753,380.93297809142274,273.8453147416251,284.15811694538513,126.0402331633796
208.83136270805088,352.34943970631736,442.069561557847,381.3641707121457,274.0822057806216,285.31636164703986,125.98994057593875
209.23180915266323,355.4466791419416,444.5950357130764,381.7759551941316,274.3256660325988,286.46410494138337,125.94110725509258
209.6123619460107,358.59572515554646,447.0179368760446,382.1648003740584,274.5757677263075,287.60024737234534,125.89394166303948
209.973046617967,361.7863624669961,449.33133203663306,382.5271942420299,274.8327468399351,288.72386973754027,125.84868018369615
210.31393002861242,365.00847467129813,451.5284367507906,382.8596908897291,275.09701553005107,289.8341485624005,125.80555577236312
210.63504940149093,368.2523795979141,453.60277128643014,383.1590723113813,275.3690920023376,290.9303347863852,125.7647608846402
210.93638365104127,371.5088072996474,455.5482100689558,383.42243119945,275.6495912136041,292.01168978024043,125.7264720797578
211.21791734063294,374.76878083284214,457.3590427548297,383.64709934751414,275.939261310599,293.07733644941385,125.69090326393183
211.47968881217736,378.0236690856008,459.0301193751258,383.83066318019934,276.23892526595165,294.126157499651,125.65830563444803
211.72174193116888,381.2653062239638,460.55692285884754,383.97120003305116,276.5493479795551,295.15683694588824,125.6289140634224
211.944070304612,384.4860279845736,461.93549737008107,384.0674754822435,276.8711991337971,296.16794551360147,125.6029211264231
212.14664197148537,387.6787508977976,463.16239827192754,384.11890420746204,277.20514039374956,297.1579462971749,125.58051141151589
212.32943224766055,390.83719007548655,464.23473884547633,384.1254655910182,277.55186846675355,298.12517510765525,125.56188836469718
212.49237738140437,393.9560278639207,465.1501987679885,384.0877298783227,277.9120530754761,299.0678841252798,125.54724106935026
212.63531240363693,397.0309600338709,465.9069745815915,384.0068471625516,278.2863241379692,299.984280041499,125.53670294818254
212.7579997925607,400.05876439002975,466.5038230232469,383.884421255397,278.67536591921294,300.87249072003857,125.53036895795978
212.86021924592848,403.0373062244365,466.94017349290306,383.72243792969795,279.0799578084955,301.7305631093221,125.52834034329724
212.94179486140996,405.965295493728,467.21611404560565,383.5233042503089,279.50089987197777,302.55655726981206,125.5307208148796
213.00253324016094,408.84194686078746,467.3322505531858,383.28981462027537,279.9389838331307,303.34860124598384,125.53756719455087
213.04217993393138,411.66679607356116,467.2896315908414,383.024988229319,280.39507265502294,304.10481044946386,125.54887259537723
213.06045603039075,414.4396347625755,467.0897718914535,382.73198022077,280.87012953089993,304.8231974096497,125.56460873136146
213.05709267186532,417.16039043043247,466.7346170412734,382.4141477307204,281.36513763561317,305.5017032899443,125.58475645545279
213.0317897973119,419.8289451140535,466.226430390899,382.0750728020554,281.88107258431575,306.1382760248706,125.60927415829103
212.9841727367706,422.4449659923442,465.5677747992448,381.7184426594948,282.41898289776714,306.7308542028974,125.63806112393647
212.91385040619326,425.00776129426407,464.7616173778296,381.3479639554784,282.9800078574772,307.2772817807213,125.67098489688642
212.82053010039627,427.51624385090236,463.81135604416755,380.9673996292013,283.56526162951906,307.7753060485586,125.7079380933597
212.7040601969308,429.9690916800395,462.7206934527873,380.58055443789146,284.17574579024733,308.22269415816703,125.74884266717095
212.56439526730327,432.3649444687091,461.4935547475986,380.19112785074793,284.8123766679237,308.61732571984385,125.7936032047648
212.40158529167232,434.7023972321065,460.1341599954772,379.8026359138147,285.47598708797676,308.95719897848164,125.84209013872729
212.21580129307603,436.9798574426274,458.6470694147142,379.41852158971494,286.1672307721481,309.2404786880947,125.89418195800368
212.00731079675026,439.1955447170496,457.0370486694853,379.0422460276141,286.8865462769376,309.46562932490536,125.94979524065891
211.77638494898383,441.34768445327967,455.308899879114,378.6771915150747,287.63425711408644,309.63147834685066,126.00884989574762
211.52322842654206,443.4346296656933,453.46749870963606,378.32653303448893,288.4106326752975,309.7371435114442,126.07122452248016
211.24798952071802,445.4547632678479,451.5180198645544,377.99323520320894,289.21581270111426,309.78198310957544,126.13677195815387
210.9507832982284,447.4063483895443,449.4660969775259,377.6800581565577,290.04975776068824,309.76567928855593,126.20536569077203
210.63165875255925,449.28745214241576,447.31783960425173,377.38946488353207,290.9123181167879,309.6883268025703,126.27689859902623
210.29057371901513,451.0958635385331,445.0798588436707,377.12355816531226,291.8032655594294,309.5503915430361,126.35123318708801
209.9274734652526,452.8289742277678,442.7592887418313,376.8841337753102,292.72220141183675,309.35262854248344,126.42818192810095
209.54242258249744,454.48372357804476,440.3636677021829,376.67270237393865,293.6684994612725,309.09608650309093,126.50754886305508
209.13565240897023,456.05667145367437,437.9007723186027,376.49039962214493,294.6413807219274,308.782122161544,126.58916279391647
208.70751386063642,457.5441348751574,435.3785894205161,376.3379540297619,295.639965898761,308.41230703130907,126.6728472376626
208.25845732774985,458.9422863352201,432.8053583697881,376.2158022308635,296.6632009758909,307.9883074354531,126.75837993437136
207.78907888950843,460.2472098491387,430.1894890491896,376.12416820288604,297.70979736810176,307.5118968981097,126.84551256144478
207.3001319378875,461.4549513597259,427.53938884999695,376.0629965305237,298.7782845389362,306.9850726411599,126.9340219340676
206.7924477842313,462.5615376725378,424.86339115377893,376.0319123367234,299.86704258000253,306.4100937123925,127.0237127361541
206.26685654233543,463.56302270631903,422.16978688146327,376.030317998964,300.9742324067844,305.78940323828675,127.11436885414598
205.7242130440626,464.45567425182537,419.4667889148871,376.05746627159425,302.09776321606284,305.1255981378651,127.20572999815951
205.1654870978175,465.23618621838995,416.7624268288838,376.112426937231,303.23537737059416,304.4215041740858,127.29752476283794
204.59179185984286,465.9017483118159,414.0645153535962,376.1941326469914,304.38470871832783,303.6802027612817,127.38949530508826
204.00433636471925,466.45011538581576,411.3806632969642,376.3015756072932,305.54323665517194,302.90494187858746,127.48136546969901
203.40440268186472,466.8798445402839,408.7181859621959,376.43392115403265,306.70828858096274,302.0990778273903,127.57280763354903
202.79336943551883,467.19049517051786,406.08398194164346,376.59041309722545,307.87716680013006,301.26612132487605,127.66347481355318
202.17269840839677,467.3825417608715,403.4845117797409,376.77027684491486,309.0472312251553,300.4097567561935,127.75306166616771
201.54387027411275,467.4571223398815,400.9258110628147,376.97276284302166,310.215844423423,299.5337756376375,127.84131159719017
200.9083678698414,467.4158768846114,398.41339742686637,377.19716824117114,311.38033415009704,298.6420393977287,127.92797120161389
200.267742078171,467.260878158283,395.95213548357395,377.4427227551795,312.53806558577304,297.7384949388879,128.01277171474584
199.62365378623053,466.99448974525467,393.54624707526443,377.70850377918214,313.6864829061985,296.82712378254206,128.0954668389685
198.97782540325488,466.61913010863805,391.1994711393028,377.9934921293047,314.82304038945574,295.911823929087,128.1758595759973
198.33198535572276,466.1371137080656,388.9151594369257,378.29660511758743,315.9451655990383,294.9963685277179,128.25376840164347
197.687874222281,465.55065501751034,386.6962122131061,378.61659492427975,317.0503349579726,294.0844640776611,128.32898690974724
197.0472479120449,464.86191550526826,384.54502777824445,378.95197580938765,318.1361142817915,293.1797614869717,128.40130521017173
196.41180844382086,464.0730667391966,382.4635866972848,379.30109897077614,319.2000681040764,292.28577801541775,128.47056239840066
195.78311288260167,463.186506096282,380.4535272802753,379.66221752595914,320.23968050210885,291.4058772773671,128.5366496272073
195.16255293895316,462.20513894866025,378.5161016159776,380.03342713312304,321.25240768010303,290.54335951765194,128.5994601781498
194.5513969105431,461.13246224672093,376.6521604256953,380.4126423381883,322.2357422763721,289.7015002095947,128.6588635082722
193.95080060974684,459.9724823014226,374.8622783080927,380.7977151166427,323.1871628811212,288.88344943001374,128.71473725867727
193.36176402763198,458.72971380889203,373.14685250628304,381.18652238082814,324.1040759472021,288.0921317605792,128.76699360485208
192.7851168935781,457.40924516025984,371.5060256081549,381.5769093087184,324.983884314918,287.3302470549234,128.81554797219235
192.2215659766721,456.0166969721277,369.93956701784066,381.9666554387359,325.8240878598046,286.6002625264292,128.860281486405
191.67171784447083,454.5582152505575,368.44688231293054,382.3535701526272,326.6222652489675,285.9043096514156,128.90106589301595
191.1360306435618,453.04077754477083,367.0270730234944,382.73555362805195,327.37599723415536,285.2440979578028,128.93781993677422
190.61478868207598,451.47262635754385,365.6789047065887,383.11051766953557,328.0828843831617,284.6209446682875,128.9705146940601
190.10817257627969,449.86336630372534,364.40076948338094,383.4763195813584,328.74063314894374,284.035818847686,128.9991242448303
189.61633677554934,448.2236952417188,363.19082218064574,383.8308144153205,329.34706611358774,283.4892912085847,129.02359962693552
189.1393954924739,446.56508500991464,362.0472169765126,384.17188915712813,329.90007099779785,282.98147184198046,129.04389991413302
188.6773833009642,444.89948920231205,360.96820241947927,384.49738581073404,330.3976475298405,282.51204539797936,129.06001791323087
188.23030790725736,443.2389684291214,359.9520618592672,384.80506042573126,330.8380560630197,282.0803390526901,129.07194981574546
187.79826000537423,441.5953014730237,358.9970986381134,385.09268162023125,331.21988111878017,281.6853131389903,129.0796575603909
187.38144418863746,439.9797373804231,358.101694882249,385.3581124108715,331.5419561719499,281.3255258099023,129.0830893087893
186.9801144192921,438.4028525040895,357.2642892817697,385.599251224261,331.8033302703873,280.9991914537902,129.0822293978126
186.59454097309782,436.8743745041236,356.4832625985564,385.813976885185,332.00336614473196,280.7042969891223,129.07710103055163
186.2250633023286,435.4030246084362,355.7568658875599,386.00022046059064,332.1418082305008,280.4386390941031,129.06772002804234
185.8721258703676,433.9965534491456,355.08320006916347,386.15602691092846,332.2187208779654,280.19978963110077,129.05407499733144
185.53623568367135,432.6619137870949,354.4601600293361,386.27949916285786,332.2344454113705,279.9851325497082,129.03616517641697
185.21793007664303,431.4053007680485,353.88540438973587,386.3687712642899,332.18966915806556,279.7919917734714,129.0140322751362
184.91780628715173,430.2320111979772,353.35646984466194,386.4221111216525,332.0854560655299,279.6177070786073,128.98773442075677
184.63652190768153,429.1463956336691,352.8709310881777,386.43799092599585,331.9231398481625,279.4596184718364,128.95730999172764
184.3747059493174,428.15203511526306,352.4264135910559,386.4150128819449,331.7042241880412,279.3150925411976,128.92279653824542
184.13286839738623,427.25189414366594,352.02050679218684,386.3518518694131,331.43040072155213,279.1816283948079,128.88427617807906
183.9114128502333,426.4482587314498,351.6507800075626,386.24733842503275,331.1035641864163,279.0569011213554,128.84187162113523
183.71071512764448,425.7426024145071,351.31490077546636,386.1005262010743,330.72573661036404,278.9386959983747,128.79569300057145
183.53114385083776,425.1355100823537,351.0106700426842,385.9106188288889,330.29903336144827,278.8248882849137,128.745811716145
183.3730029586459,424.6265880583852,350.73595927384747,385.67691997327114,329.82575002164964,278.71354122197533,128.69229175214258
183.23649997880779,424.2143524985787,350.4887237496655,385.3989414799764,329.3084135223112,278.60296609419004,128.63521523208684
183.12177981753825,423.8962512490995,350.26710104100755,385.0765010286651,328.7496981110795,278.49163730922135,128.57465339095273
183.02893849984636,423.66885187665906,350.06942169404374,384.70966218558533,328.1523530142254,278.37809101334,128.51063198156086
182.95797513219367,423.5279793067667,349.8941308710694,384.2986649823903,327.51924498550096,278.2609353935644,128.4431538538003
182.9087626234142,423.4686612556291,349.73979538593045,383.84397395007215,326.85338276463153,278.1388914172803,128.3722487235496
182.8810874211351,423.4850256395967,349.60519278523213,383.34630260841817,326.15783377095386,278.0107398655632,128.2979747725214
182.87468362632575,423.57032859559985,349.48930614155375,382.80651300835274,325.4356723410634,277.8752269593609,128.22037127402808
182.88919523626666,423.71707219876066,349.39121906488833,382.2255557162114,324.6900462775778,277.7310673859818,128.13943696157352
182.92413289825504,423.9170532170232,349.31006116119477,381.60456693074326,323.92421280705344,277.5770356438446,128.0551646238169
182.97891765845912,424.16138356590716,349.24500008043316,380.94494987024194,323.1414485300391,277.41200071736665,127.96756926564211
183.052966187826,424.4408143055323,349.19515410164627,380.24830158793935,322.3449818592001,277.23487107077347,127.87666081975509
183.1456982976242,424.74646558079775,349.1594584598164,379.5163424821248,321.5380502424975,277.04457695817234,127.78240946684755
183.25646291553377,425.07046028006806,349.13666074713,378.7509836171161,320.723937582289,276.8401330689313,127.68476663638162
183.38449315205662,425.4060239099939,349.1254632512359,377.95437887591163,319.9058854130785,276.6206605336156,127.58371444155406
183.52893397481748,425.7472557676803,349.1246132754744,377.12883082447644,319.0870172118522,276.385319545976,127.47927053577143
183.68885648391435,426.0889594324544,349.13285545276034,376.2767014147785,318.27038278566874,276.1332888276758,127.37144740101812
183.86320061329477,426.42661971036557,349.1489106723893,375.4004566704804,317.45898610333523,275.8638688411062,127.2602385345884
184.0507220903039,426.7564173279122,349.17156649920554,374.50269829235003,316.65568900355163,275.5765660077858,127.14565852673434
184.25002595766142,427.075222667533,349.1997267136668,373.5860606171591,315.8631285292915,275.2710500886667,127.02777182596407
184.45963664509117,427.38054928418853,349.23235722077584,372.6531277322333,315.0837625790688,274.9471039590339,126.90666257110703
184.67800146919149,427.67039810938934,349.26849640229693,371.7064969242809,314.31991490556806,274.6046656947806,126.78239854070658
184.9034321831427,427.943031749847,349.30738494736664,370.74883048367417,313.57371161910214,274.24385696334895,126.6550549853529
185.1340886057093,428.1968800874271,349.34852146108483,369.7827623678065,312.84703476575106,273.8649217133385,126.52476725921707
185.3680426023191,428.4306241857884,349.39156231119915,368.810814310699,312.1415877512353,273.46819739416014,126.39173325335763
185.60333073337603,428.64323233455514,349.43625558202405,367.8354555645788,311.45894173826804,273.0541952820412,126.2561625675895
185.83793024412878,428.8338137574877,349.48251560996465,366.8591559670306,310.80047262987847,272.6236554443512,126.11824889386314
186.06973277626318,429.00144585723336,349.5304690028343,365.8843060920485,310.1673235962073,272.1774896064243,125.97820015024408
186.29659511068107,429.1451078691979,349.5803610078527,364.91315393107664,309.56048418004787,271.7167475835783,125.83626414884138
186.51641206250807,429.26362206507855,349.63247519991756,363.94787332899676,308.9808461396414,271.2426980921413,125.69269772698235
186.72711835765134,429.3555136568015,349.6871697765221,362.99060888889403,308.4291364930673,270.7568833971465,125.54772844826955
186.92664286556615,429.41890246260715,349.7448863076587,362.0433787246281,307.905861593142,270.26104704939235,125.40157672990065
187.11291610643303,429.4515408930934,349.8060526414592,361.1079895617395,307.4113633222008,269.7570741113947,125.25451049976948
187.28394677206484,429.4509270665606,349.87106021012886,360.18609554867106,306.9458602075026,269.247049467752,125.10685199260317
187.4378722593111,429.4144221202777,349.94040681657344,359.2792587283991,306.5093778822215,268.73329798365063,124.95893081401346
187.5729402103344,429.3394381420213,350.0147899665523,358.3888791963085,306.1017050607966,268.21830143598106,124.81105948840184
187.68750578578792,429.2236823065326,350.0950094369194,357.51613383966463,305.722480459362,267.70461382188734,124.66356610031441
187.7800944383837,429.0652852704818,350.18185667385114,356.66205356230626,305.3712702535467,267.19486437657025,124.5168210670501
187.84944218549927,428.86275097147194,350.27612939491723,355.82759515215383,305.0475157725575,266.6917401457915,124.37120565808729
187.8944530249325,428.61488484741363,350.37863558095154,355.0135759573952,304.75048127983536,266.19788284697535,124.22707114356831
187.91415692352862,428.3208107880744,350.4900896209782,354.22062092048463,304.47932139410267,265.71582111488203,124.08475628309407
187.90773540509844,427.9799659831655,350.61104257847484,353.44925818752023,304.2331473419207,265.2480093152842,123.9446364010757
187.874543530001,427.59199796571534,350.7419331988491,352.70001045819464,304.0109856996983,264.79684620476945,123.80712502011691
187.8140632941899,427.15669112253664,350.8831119734943,351.9733393414335,303.81175502083255,264.36459622723777,123.67261990844256
187.72585391870777,426.6739851958622,351.0347552985213,351.26958488795316,303.63435669208945,263.95335827681527,123.54146726853811
187.6095681249587,426.1439492902991,351.19682701931674,350.5890346032818,303.47774142211745,263.5651776325623,123.41398661799283
187.46497912797616,425.56664063295864,351.36917646708997,349.9319841586618,303.34084973240874,263.20213920296874,123.2905036150473
187.29193864655954,424.94199208082773,351.5516103478989,349.2986605373214,303.22256659977216,262.8663115876566,123.17132811885544
