HandOpen,HandClose,Wrist Flexion,Wrist Extension,Supination,Pronation,Rest
142.36130612146903,322.680970651421,350.9175737778909,350.3092521521753,248.26253150456068,280.94216840771224,130.058507209653
142.13004310489103,321.9988733709535,351.88093947592245,349.811943128376,247.91947313625192,281.0380426973658,130.06706486304836
141.90798176148402,321.2812091026553,352.83706518923515,349.2777514909434,247.58607263315045,281.11620499036866,130.07649658345946
141.69544749692542,320.5290569804021,353.7850804894551,348.7078636847816,247.26290717391905,281.1761542275061,130.08666038938964
141.4928350570917,319.7437533106898,354.7243070357815,348.1035907261973,246.9504966725785,281.2173684044906,130.09737644528337
141.3006147482436,318.9268216986426,355.6541461358826,347.4663059170589,246.64923948112502,281.23939498510435,130.10845354076108
141.11927415254698,318.0800250960892,356.5740026042127,346.797347490577,246.35944941516502,281.24191799240424,130.11974817405144
140.94929333784341,317.2054101059391,357.48333140351883,346.09804693258656,246.0814051618499,281.2247113527098,130.1311719827045
140.79118815293876,316.3052417391062,358.3816451626576,345.3698264280313,245.81530267832537,281.18758220642775,130.1426416766871
140.6455346007348,315.3819796941352,359.26841273238693,344.6142000477351,245.56118025389173,281.1303835099366,130.15405184336404
140.5129148376056,314.438396904563,360.1430250293829,343.83270461193297,245.31893416746067,281.0530072715427,130.16530713119218
140.3938542882216,313.47765972533324,361.0049047663635,343.02690630128683,245.08838296788048,280.95530267611264,130.17634829782546
140.2888313063703,312.50324596003327,361.8535735359554,342.19845534219417,244.86925843139213,280.83703367487806,130.18711888002514
140.198322734518,311.5188674339279,362.6885811682767,341.3490464270488,244.6611385769374,280.6979505992579,130.19752637448855
140.12279561686125,310.5285147265925,363.50946649078503,340.4803167659843,244.4634556489828,280.537852199957,130.20746965436527
140.06264549365403,309.5364711812837,364.3158328391661,339.5938585840294,244.27559900541956,280.3565477795822,130.21690141004638
140.01816440625646,308.5471940252673,365.10737125821686,338.69135684604197,244.09697631628325,280.15383973293757,130.2258389459748
139.98956521207876,307.5652218439573,365.883758651089,337.7746569341131,243.9269837418193,279.92961200384366,130.23431551651157
139.97699111483715,306.59521834368974,366.6446061312751,336.8457018303819,243.7650109477262,279.6838959791451,130.2423523479159
139.9804665977836,305.6420074860975,367.38953558587104,335.9065196733834,243.61053118678026,279.41681986742935,130.24999068896952
139.99985419478162,304.7105085106508,368.1182119768396,334.95933163515673,243.46314229199132,279.12855909812265,130.25731945964358
140.03488897925448,303.8057128461199,368.83025285029873,334.00659981191814,243.32249095736563,278.8193792167025,130.26444163968935
140.08525067912305,302.9327595767159,369.52518688612304,333.0509312740923,243.18821259335704,278.4896656878241,130.27143077586186
140.15057633762018,302.09692808662845,370.2025410452692,332.0950032979953,243.05997960032204,278.13985951867727,130.27835169913402
140.2304011409512,301.3034653938511,370.8618827864538,331.1415970335038,242.93754544678802,277.77040320638463,130.28531743367716
140.3241135522051,300.55743089508536,371.5027306545156,330.19359794959445,242.82068388913729,277.38177660707265,130.2924960548311
140.43098428193724,299.86367892732693,372.1245008677805,329.25390178873755,242.70912233993744,276.97452509591557,130.30005851350955
140.55021981508165,299.2268355210446,372.72657886698784,328.32538585516215,242.60257593365336,276.5492089841198,130.30814689034725
140.6809606700493,298.65116013694393,373.30835668791997,327.4110065551802,242.50079915229546,276.1063729381726,130.31690282105146
140.8222375364671,298.1404531835626,373.8691566840611,326.51384164871183,242.4035430828522,275.64660116713424,130.32649307285243
140.97297370526368,297.6981509115156,374.40820517320174,325.63699525444105,242.31048165835924,275.17055289732866,130.337076269333
141.13205746226419,297.3274432527015,374.92473095957536,324.78354370121644,242.22122716143377,274.6789053696769,130.34876022595623
141.29839590794523,297.0312115491121,375.41801569484636,323.95661124362056,242.1353994200792,274.17230668522876,130.3616206556805
141.4708889259838,296.8118760848162,375.88731213115665,323.1594022389405,242.05262185859362,273.6514146971522,130.3757529983459
141.64838872598918,296.67135555383896,376.33179959626204,322.3950999235596,241.97245063754912,273.1169212065482,130.39127533813442
141.82972612842647,296.6111226653193,376.7506657914331,321.6668026942947,241.8943750778292,272.569479495303,130.4082772507124
142.01377182420163,296.63219978739767,377.14315693181345,320.9775877531902,241.8179201866098,272.00963741659825,130.42679220224602
142.19944440804304,296.7351027511706,377.50852183311736,320.330534332865,241.74270990242186,271.4378775661366,130.44682829621777
142.3856617002116,296.91985955759066,377.8460172273032,319.7286186119816,241.66842924486912,270.85467758089294,130.468393862742
142.5713234558474,297.18606476421405,378.1550390480109,319.17464720246477,241.59481354430602,270.2604783106318,130.49146627139643
142.75536391606698,297.53284388588327,378.4351874277867,318.6713165833922,241.52172785373295,269.65563060933385,130.515956426801
142.93679707085514,297.9587865164255,378.6861771782642,318.2212327667392,241.44920874920342,269.04044320795174,130.541738263351
143.1146912344551,298.4619773995441,378.90778124431574,317.82680417680837,241.37740046078153,268.4152803046733,130.568710760513
143.2881340216361,299.0400640064077,379.0999119479812,317.49017152682814,241.30650473531648,267.78056837347316,130.59680685358038
143.45627134706538,299.6902161188703,379.2626669085948,317.21326174247685,241.23681283927692,267.1367236855095,130.62594379277704
143.61838430751394,300.4090163536462,379.39622995316705,316.997806493992,241.16870834730898,266.484147719591,130.6559951230103
143.77390141189926,301.19247503368007,379.50078804240104,316.845241608241,241.1025722993836,265.8233232589126,130.68682106076082
143.92233361077916,302.03621915176615,379.576573485018,316.7566481387814,241.0387070221132,265.1548708949898,130.71829361871738
144.06322647736602,302.93565232223136,379.62388835688984,316.73282135828043,240.9773735304544,264.4795105842691,130.75026420212632
144.1961940914623,303.8859475529056,379.64303242102517,316.7743085936906,240.91884355418586,263.79807106366695,130.78252507327713
144.3209783245272,304.88199916487963,379.63430046099677,316.8813303431657,240.86334912116186,263.11161147777517,130.81483384604493
144.437444017004,305.91844424766623,379.5981199542385,317.0537453806069,240.81099861986968,262.42149808386193,130.84697155978208
144.54552491967112,306.98966341253185,379.5351264492725,317.29114463206287,240.76179559201114,261.72935413616483,130.8787511635813
144.64520859295362,308.08969071574757,379.4460559111298,317.592906862166,240.71573449414024,261.03702903899614,130.9099695216542
144.73657348016715,309.21213928815,379.33162068058124,317.95812225464584,240.67282694238108,260.3466611244498,130.94038203140585
144.81979727549862,310.35025919874727,379.1925042456037,318.38554508792686,240.63304069123348,259.6606944146767,130.96973843451912
144.8950997874893,311.49706632556587,379.0293634906968,318.8736713982591,240.5962945524821,258.9817871093283,130.9978159625226
144.96268949975902,312.64540316394545,378.84275001163235,319.420788556632,240.56255432321805,258.3127529187868,131.02439311835835
145.02277949217267,313.78796245336423,378.6330739773765,320.0249114291927,240.5318909278863,257.6565955883221,131.04921163646344
145.07563435514032,314.9174436086669,378.4006803943599,320.6837663440509,240.5044357715949,257.01649952325226,131.0719962587825
145.12156555932822,316.02683246709836,378.14588816788046,321.39490662538225,240.4803568864108,256.39572012186363,131.0925068816616
145.1608755869648,317.10958929593016,377.8689185596358,322.15578613659926,240.45991806018836,255.79751243248944,131.11054387791722
145.1938334001816,318.15968983595894,377.56988841223495,322.96369171485725,240.44349608260293,255.2251586586896,131.1259001934054
145.22071181845044,319.1716558254893,377.2489600053416,323.8156987752631,240.43148459277947,254.6819600521836,131.13833626563533
145.2418124718153,320.14057225790043,376.9064530265585,324.7087525129218,240.4242140098533,254.17113392951345,131.1476133150185
145.25742544961116,321.0619891867829,376.5427918853361,325.6397228827577,240.42199760299783,253.69575171689183,131.1535217089841
145.26778444093895,321.93178995734604,376.15845389060104,326.6053412914135,240.425202921883,253.25877993523667,131.1558514506483
145.27308862751613,322.7462202264175,375.75403228163003,327.6021745403776,240.43420910758954,252.86308881978613,131.1543555067458
145.27355432327002,323.50206965666473,375.330260288555,328.6267265740538,240.44929848334655,252.51136313508266,131.14877540805904
145.26941305822672,324.1967781114069,374.88789181311756,329.6755071343187,240.47062919935556,252.20604704073276,131.13890071647586
145.26085744770236,324.828387622034,374.4275899818984,330.74497011920226,240.49829764554318,251.94938877670208,131.12458003438385
145.24801219388556,325.3955254201329,373.94994210507554,331.8314780776415,240.53235936379414,251.74345293126848,131.1056754371594
145.23095975739716,325.89749016796577,373.4554796034792,332.9313902861068,240.57277326189123,251.59003167393445,131.08203597840193
145.2097596071175,326.33425776704945,372.9446114173267,334.0411208458549,240.61939113577577,251.49059009707165,131.05352772772315
145.18441170044636,326.706306242885,372.4176132052658,335.1570708022622,240.6720338700668,251.44632251191604,131.0200608006997
145.1548109169205,327.01440661350495,371.87476093630875,336.2755889208143,240.73052388607815,251.45818681669482,130.9815607595869
145.12076678819037,327.2595349634353,371.3164339969794,337.39305949170193,240.79460348649545,251.52683567175924,130.93793166976272
145.08207206431806,327.44287017685645,370.7430659835414,338.5059640229453,240.86385559065516,251.65257216647845,130.8890792267845
145.03853359253287,327.56577341607,370.1550968084896,339.61081851978685,240.9377295489533,251.83540875094698,130.83496678916967
144.98994887495894,327.6297808772715,369.55303811098935,340.70413879811076,241.01559339849152,252.07510516319374,130.77562167262056
144.93610803987812,327.636664407645,368.9375075050514,341.78253055847887,241.09670347072998,252.3711135316855,130.71108294751636
144.87685307576618,327.5884505595927,368.30913798803937,342.84275207468477,241.18015463310752,252.72255839907078,130.64137037609066
144.81211595213009,327.4873253467675,367.66852012075356,343.8816555434993,241.26495375272444,253.1283205298887,130.56652220725834
144.74188540753363,327.3355663224561,367.0162771808598,344.8961585628247,241.3501896754265,253.58709048378145,130.48664514889197
144.6661765676958,327.13558910143644,366.35311992163975,345.8833341733734,241.4351168353459,254.09731706326278,130.4019044100402
144.58508134839863,326.88996399797094,365.6797989944429,346.8404622851022,241.5190979719932,254.65718218331378,130.31247889204846
144.49884710286744,326.6013140806049,364.99713800437695,347.764950055117,241.60155448962328,255.26467929255102,130.21856140742892
144.40788008257454,326.27225012315137,364.3062259769264,348.65428102412744,241.68200659994102,255.91766564587527,130.12040928451054
144.31267903635091,325.905449776224,363.6085361880464,349.5060962852983,241.76009699748997,256.61380426600965,130.0183649867793
144.2137981428622,325.5037234476639,362.9058274434049,350.31825426029894,241.83553802574195,257.3505068191956,129.91280807148493
144.11187614813292,325.0699329755016,362.20000605364504,351.0887620672445,241.9080929861421,258.12495279593566,129.80410471668486
144.00765432287213,324.60689313383654,361.4930918335743,351.8157278159188,241.97764487612986,258.9340894918358,129.69262587589893
143.90192121946492,324.1173832091168,360.7871749208355,352.4974407406181,242.0442281827853,259.77455565462895,129.57880294861417
143.79543596456185,323.6041570442469,360.08427842458065,353.1324309535703,242.10795697653467,260.64264010610844,129.46313447681607
143.68891324276075,323.0698503507077,359.38625957192073,353.7194037327502,242.16896676628542,261.5343542282715,129.3461310093097
143.58305999211223,322.5169147147774,358.69483889139747,354.2571964885787,242.22744331204493,262.4455111218338,129.22827597666281
143.47858039313482,321.94768580398136,358.0116201432274,354.74485970779995,242.28363614347964,263.3717105108027,129.1100527224572
143.37612820618187,321.36444972441876,357.33800901323724,355.18170914514155,242.33779647928833,264.3083191595771,128.9919857597708
143.27628240100898,320.769386189429,356.6751731657888,355.56724281838257,242.3901509287274,265.25055521849464,128.8746265054929
143.17958519028178,320.16451291934385,356.0241310311619,355.9010719325418,242.44097214592293,266.19359829724203,128.7585075813285
143.08657265779746,319.5517462395869,355.385810840437,356.18297600478394,242.49062345354463,267.1326009200972,128.64414401598285
142.99774098277052,318.9329532576505,354.7609817819481,356.41294181635203,242.53950673265692,268.06265744501604,128.5320847357943
142.9135106805552,318.3098827940736,354.1502165766659,356.5910835282168,242.58803917505514,268.9788777072088,128.42293209582937
142.8342707281481,317.6840980239426,353.55398773507204,356.7175899187608,242.6367313818163,269.876547699,128.3172905006671
142.76046056335386,317.0570233902882,352.972736575906,356.7928018436938,242.68623104191704,270.7512066779245,128.21571084190688
142.69258547120452,316.42998819105696,352.4068064463228,356.8172669274727,242.73724538887487,271.59859277060133,128.1187036102319
142.6311657319718,315.8041505966013,351.8563964785781,356.79165917029354,242.7904760723272,272.4146052620106,128.0267922626331
142.57671866642133,315.1804026223554,351.3216451363597,356.7167105083807,242.84666599955435,273.19536538621963,127.94052020623721
142.52980544605313,314.5593729199905,350.80269058399443,356.5932676685458,242.90664160861962,273.9372570098288,127.8603967499527
142.49105647140195,313.9414538464951,350.2996003292581,356.42233466821364,242.97126200705148,274.63685926198997,127.78686042200087
142.461116166251,313.3267516088031,349.8123258578657,356.2049942522009,243.04137808070087,275.29087811966986,127.72030955007932
142.44057195507162,312.7150357578826,349.34079376847217,355.9423510990974,243.11786256262937,275.8961835752508,127.66114429381263
142.42995203792702,312.105808410959,348.88497511324164,355.63560394608515,243.20159995160597,276.44987449355966,127.60974821523835
142.42976787440656,311.49842923145286,348.44481099553036,355.2861002244702,243.2933809990429,276.9492542378839,127.56643559363954
142.44051238568184,310.892144302676,348.0201417447204,354.89526075459554,243.39383782163435,277.3917672905138,127.5314465031041
142.46260133995287,310.2860406845256,347.6107603037076,354.4645178115061,243.50352431897068,277.775036875356,127.50499725808514
142.49634095241234,309.67908631205376,347.21645386341453,353.9953794014096,243.6230199707312,278.09699685577266,127.4873059794458
142.54196371047058,309.07026916788465,346.8369266198596,353.48947980287124,243.7529044742177,278.35596452737644,127.47855461209265
142.59966163151353,308.45866460906655,346.4717459793398,352.94850818400033,243.89366408975596,278.55061511217457,127.47885352811485
142.66955216134414,307.8433679563406,346.1204178385671,352.37415814679457,244.04566325930887,278.6799840755806,127.4882686299334
142.7516298531203,307.22345466124386,345.7824434274393,351.7682042881333,244.20915387258393,278.7435284725516,127.50686597937116
142.845793653189,306.598070270813,345.4572492568216,351.13255677551047,244.38421951153327,278.74112330658664,127.53470088874501
142.95193129246894,305.96651068876173,345.14413750067047,350.4691818869584,244.57068054632458,278.672965949219,127.57177082528705
143.06995375013616,305.328175734648,344.8423649479072,349.78003507469145,244.76807675468868,278.53953267877023,127.61801250680034
143.19974907415414,304.6825187301409,344.55120289787243,349.0671212524755,244.97573982468816,278.3416479518524,127.67335317127852
143.34114690609084,304.0291095705633,344.26986986195527,348.33253926396395,245.19283732050164,278.0805279202536,127.73773570328633
143.49394860879502,303.3676976654042,343.99748520485883,347.57839620813536,245.41833052769618,277.7577152273218,127.81107512510171
143.65795438217685,302.6981586861613,343.733152638602,346.8067378888314,245.65094304221063,277.3750245462441,127.89321051257593
143.83293762845008,302.0204235300229,343.47602763075383,346.0196166914517,245.88921520519358,276.93457602765875,127.98392342354511
144.01863293160258,301.334492257496,343.22526596265493,345.21915281515425,246.1315662907469,276.4388035356938,128.08299287436168
144.2147806102306,300.6404451826302,342.98000226545867,344.40746417526015,246.37630444517447,275.8903707007917,128.19020227992098
144.42115166251142,299.93837583716856,342.7394527965773,343.58660252188,246.62167832211696,275.29211890759416,128.3052867690328
144.63749668041484,299.22836193928646,342.50297976714654,342.758614059637,246.86602000610736,274.6471231996345,128.42790039157174
144.86349200317719,298.5105589984378,342.27000958280234,341.92558707354476,247.10784830336755,273.95872714644594,128.5576553310126
145.09877521986658,297.78527866172493,342.0399591701993,341.0895708923775,247.34585174328242,273.23046720400316,128.69417767267902
145.34303539397928,297.0529381105081,341.8122842189002,340.25250307409976,247.57886725337747,272.46600943392207,128.83710136869792
145.5960442131715,296.3140058440879,341.58651260008,339.41626118105853,247.80593285266173,271.66919028477395,128.98601986844363
145.85760634175574,295.56905910286304,341.36216433575333,338.58270672779264,248.02630934237834,270.8440409327278,129.14047789529852
146.1275226586148,294.8188349827828,341.1387037614176,337.7536100954646,248.23941302909287,269.994701984189,129.30001568883623
146.40561461827141,294.06416646119646,340.91562325061204,336.93059270034075,248.44478857598708,269.1253449787516,129.46418842332102
146.69173996603774,293.3059243226448,340.69250406455365,336.11519792284815,248.64219075712617,268.24019255119015,129.632519952306
146.9857455860268,292.54507394982807,340.4689442152446,335.3089501220813,248.83162819204097,267.3435267464503,129.8044544695829
147.28742472655816,291.7827249265876,340.2445038962282,334.51328466089757,249.0132626598735,266.439601335371,129.97937728802594
147.5965592927005,291.0200637773875,340.01878119590907,333.72948751688574,249.187283434064,265.53257034377384,130.1566757625468
147.9129984570315,290.25828946078957,339.79146984208205,332.95876300197216,249.353886765275,264.6265153489883,130.33575447918295
148.2366610648196,289.4986606111588,339.56228408365524,332.20229249122883,249.5132971360442,263.72545912485924,130.51598944426004
148.5674494779301,288.7425414995028,339.33089424965146,331.4611669742436,249.6657137794944,262.83328374349077,130.69669739958172
148.90517203653891,287.9913440292518,339.09698728579093,330.73633334832476,249.811226712396,261.9536663694143,130.87717158864132
149.24955025767534,287.24647609507394,338.860314356916,330.0286727722023,249.9498393220503,261.09011542845616,131.0567325859563
149.60027390415883,286.50939195574284,338.62061789704956,329.3390673696503,250.0815882842969,260.24599426126787,131.23472174841905
149.95701404486044,285.7816284560009,338.37758248790124,328.6683304396127,250.20659724454117,259.42445036388057,131.410457987792
150.31939946526947,285.06472643002877,338.13092091385886,328.01713849914006,250.3250117749367,258.62836477039286,131.5832377216542
150.68705433115744,284.3601594965139,337.8804452500802,327.386090258982,250.4369593241114,257.8604040623931,131.75238879271012
151.05970370840296,283.6693914316148,337.6259999801973,326.77576069536184,250.5426127230596,257.1230581085873,131.9172997799987
151.43722200352303,282.99394884649365,337.3673999684134,326.1866310323017,250.64223210487128,256.41857716786205,132.07738048374483
151.8195658474811,282.33536928228864,337.1044963071519,325.61902936979146,250.73609036664948,255.74892370051543,132.23201433781495
152.2066890528385,281.6951131819664,336.83723241846303,325.07320260579166,250.82438586172947,255.11582712129646,132.38057485494636
152.59853109697755,281.074578311532,336.5655736209468,324.54938327781497,250.90724729140823,254.52082833433445,132.52248094046817
152.99503632211588,280.47514729984584,336.2894468938136,324.0477284243906,250.98475535550867,253.9652264571855,132.6572079265103
153.39612354773868,279.898126759211,336.0088012102812,323.5682672383124,251.05688855774088,253.45003944591906,132.78423788150374
153.8016329867496,279.344621108638,335.7236520042192,323.11097984628657,251.1234745384976,252.9760637604785,132.90302340919843
154.21133987169165,278.81550956766256,335.4340054422423,322.67586706849784,251.18425849545116,252.54392056350753,133.0130189319722
154.62502803146018,278.31155138688564,335.1398025261975,322.262885247093,251.23901296509055,252.15400199132907,133.1137325347139
155.04251875361393,277.83345503993263,334.84098900535906,321.8718834295898,251.28754266481724,251.80642638208707,133.20472473216373
155.46361712881225,277.38184219070405,334.5375707020792,321.5026684956621,251.32962186665492,251.50108809636183,133.28556973745125
155.88805891207093,276.95724951554814,334.2295444912251,321.15506432742467,251.3650306918912,251.23769804072123,133.35585748944294
156.31551691266432,276.56023126021995,333.91684289434,320.8288422714376,251.39369989376766,251.01573796770023,133.41524907565613
156.7456101832902,276.1914086305673,333.59940386824763,320.52365710041465,251.41578209472686,250.83444171287476,133.46350835255467
157.17785964576686,275.85138545923587,333.2772291609267,320.23911176713,251.43157526407634,250.6928821231382,133.500468544846
157.61164736294344,275.54067277218445,332.9503181291792,319.9748175988084,251.4414543238285,250.5900405288859,133.52599775918844
158.0462554920442,275.2597165013564,332.61861319622705,319.7303263836249,251.44591649210665,250.5247682614007,133.54002565380355
158.48094141011532,275.00890765990954,332.2820708979688,319.5050683010802,251.44562074779176,250.49575811102324,133.54258929159022
158.91494699957133,274.788489534488,331.94072097286545,319.298421884253,251.44132278382526,250.50161610254858,133.53382265409243
159.34744110157303,274.5984892974741,331.59459816060723,319.10978320117977,251.43381125034261,250.54091759976905,133.51390351660962
159.77749372250972,274.4387747994019,331.24368626296473,318.9385011887752,251.42393125943013,250.6121571080639,133.48303857756676
160.20412116121528,274.30911614439657,330.88799197168004,318.7838009584623,251.41259290380762,250.71370629607142,133.44150467003288
160.6263200886042,274.209141205237,330.52760792156454,318.64483443784667,251.40069122444362,250.8438733176481,133.38967089462247
161.04303076081814,274.1382978482712,330.1626445908363,318.5207556123319,251.38905305958355,251.00095384381004,133.32795974230626
161.4530974568001,274.09593227330294,329.7931685862186,318.4106736187423,251.37849533813127,251.1831835288365,133.2568111710209
161.85530683738324,274.0813633613328,329.41926775130554,318.3135612290892,251.36987727713924,251.38870197633787,133.17671034086408
162.2484625217025,274.0938328214325,329.04110907326964,318.22827832079116,251.3640531934556,251.61561839596376,133.0882327579533
162.6313976408574,274.1324387626287,328.6588691263195,318.15367010441577,251.36184071811573,251.86206739231628,132.99202960648532
163.0029208839899,274.19616552377903,328.2726681235994,318.08858145000744,251.36409215209426,252.126161808002,132.8887695766389
163.36178715916887,274.28391248983564,327.88262888555715,318.03180402397237,251.3717421036842,252.40595291336982,132.7791207724124
163.70673907058332,274.39442370268563,327.4889323235634,317.98210540204434,251.38573489563268,252.69949137398748,132.6637905292159
164.03655340811488,274.52622570355067,327.0917450411262,317.93832204952486,251.4069574343888,253.00487956073874,132.543545380187
164.35002514261626,274.6776963910653,326.69114351339374,317.89936317315664,251.43628238273791,253.32022478523203,132.41916645890547
164.64593202607733,274.84717723679535,326.28716930363385,317.86413957310066,251.47460850033767,253.6436062584065,132.29140467682797
164.92306556567033,275.0329809071163,325.87990579636426,317.8315708020054,251.52279744951383,253.9731455744201,132.16099986786375
165.18031470337846,275.2333402893479,325.4694309815788,317.80066221662037,251.58161535967653,254.3070636597932,132.02872090837167
165.41670135352075,275.4464400253454,325.0557322128465,317.7705040378985,251.6517750770846,254.64363033629223,131.89535097634158
165.63133519046627,275.6705019296979,324.6387407221036,317.74020321403117,251.73397050606732,254.98112476573334,131.76163421722316
165.82337274999443,275.9037906519051,324.21843203560695,317.70889622666016,251.82880804047048,255.31790732465123,131.62826470440515
165.9920471081928,276.1445698755866,323.7948310580397,317.67582988385055,251.93674247954016,255.65248621525686,131.4959312483276
166.13671560507893,276.3911525937566,323.36794896578897,317.64035880938206,252.05811317672018,255.9834624967231,131.36533967985747
166.2568458222155,276.64201804834164,322.9378023037971,317.601870852665,252.19317954939356,256.30944575005213,131.23717055551202
166.35196285503145,276.89583913143423,322.50449082413996,317.55979225299996,252.34206887858684,256.6290561712741,131.11203730415195
166.42164564612503,277.15143958490034,322.0681888554196,317.51366332174075,252.50474036373936,256.9409484858411,130.99050833183298
166.4655812616669,277.4078396475324,321.62907619688104,317.4631340461839,252.68104677123486,257.2437593430018,130.8731507581662
166.48359040569952,277.6643685363206,321.18735339568536,317.4078890487102,252.87078241903956,257.53604636343744,130.76051939353357
166.4755862536009,277.92067442188636,320.74331447489516,317.34765400715565,253.07363056388797,257.816336539092,130.65310392561838
166.44154003686145,278.1766383271345,320.2973323458178,317.2822751660458,253.2891127424,258.0832321045055,130.55131365272084
166.3815057688874,278.4323480224584,319.84978490703423,317.21171644914295,253.51662336908166,258.3354269902746,130.45551742295288
166.29564439443234,278.68812950306375,319.40106804091494,317.13597789435494,253.75545561949764,258.57163455503024,130.3660666155586
166.18418683914308,278.9445003641458,318.95166814700747,317.0550901808611,254.00474773757568,258.7905687859545,130.28326056121918
166.04738353334494,279.2020631641141,318.5021481116218,316.9691843052444,254.2634589660645,258.9910175830723,130.20731627393516
165.88551566383467,279.4614796511107,318.05307483083436,316.87848546327973,254.5304555834026,259.17187846301437,130.1384036317432
165.69894519761226,279.7235107999739,317.60503308538193,316.78323601685435,254.80458590547724,259.3320926565731,130.07670156139028
165.4881184121242,279.9889807049947,317.15869415052146,316.6837008153385,255.08464362603067,259.47059318692243,130.02239466912616
165.25351414338778,280.2586776662196,316.71479141789325,316.5802482476866,255.3693314899105,259.58634332297004,129.97562212880885
164.99562320537635,280.53334994874007,316.27403171074474,316.4733480397399,255.65732700915163,259.67836393597594,129.9364623331069
164.71500096855172,280.8138012070575,315.8370939022573,316.363483432218,255.94734304851576,259.74567714374183,129.9049735879913
164.4123163521941,281.1009111241361,315.40469717035444,316.25112957163486,256.2380844858156,259.78727448677535,129.88121661360447
164.08832554495697,281.3955398489446,314.97758969575773,316.1368040396406,256.5282088878758,259.8021926830971,129.86521278976224
163.74382066643517,281.69848656528245,314.5564683825356,316.02104967378705,256.81639048676305,259.78958703017395,129.85689528768617
163.37963869921876,282.01056946930925,314.1419726061261,315.90435441513443,257.1013782812038,259.7487098656878,129.85612561513335
162.99671138356473,282.33266877975024,313.7347404047718,315.7871522652135,257.38194568439036,259.6789001331501,129.86275330344168
162.59606549024366,282.66565870574976,313.33539087944035,315.6698974883609,257.6568407196799,259.57967242071413,129.876632320159
162.17875593619397,283.0103808629728,312.9444556193391,315.553061320761,257.92484930302516,259.45078755925414,129.89757128359167
161.74581521578617,283.36772722537864,312.56240192696407,315.4370554514943,258.1848719919466,259.29220434247753,129.92529246308607
161.2982766006348,283.7386745665879,312.18972109947333,315.3222353590014,258.4358873779318,259.1040304683975,129.95945982928643
160.8372159381198,284.1242069526189,311.82692793478066,315.208982327045,258.6768755780095,258.88659064892323,129.99973175286328
160.3637340294843,284.52529654958835,311.4744881559243,315.09770819552074,258.906833352043,258.6405075242307,130.04576061022087
159.87890566203345,284.94301094672005,311.13282341945154,314.9887777071125,259.1248381684006,258.3666583255924,130.09714922608038
159.3837857111142,285.378564749785,310.8023794260249,314.88250119909316,259.33003097119075,258.066081519715,130.15344156684574
158.87947941238392,285.8332223550738,310.48361350023845,314.7792047665643,259.5215342531354,257.7399843292025,130.21416599236304
158.36718107260083,286.3082108404606,310.17692381305176,314.67922862733633,259.69844908411255,257.38981853939373,130.27886082867914
157.84813367068907,286.80473712101747,309.88267047986574,314.58284767969064,259.859957160424,257.01727621942354,130.34704175152814
157.32358719333018,287.3239768200964,309.60126571212766,314.4902649942546,260.00538025906644,256.62420996698023,130.41817077217974
156.79482849526042,287.866962410404,309.33317311216507,314.4016869287367,260.1341316127984,256.21262078922155,130.49168753220744
156.26323045208028,288.4345084802056,309.0788277461628,314.3173293545338,260.2456903437016,255.78472321190114,130.56706223162283
155.73023203931697,289.0272492218461,308.8386341732263,314.237344935087,260.3396707890825,255.3429387346226,130.64379473012988
155.19726727997576,289.64565247514804,308.61303678569345,314.16181958115277,260.41585907492686,254.88978040025737,130.72137135460056
154.6657347627545,290.28993400820696,308.4025111172744,314.09084551369017,260.47413958069103,254.42777409554887,130.79925689922055
154.13702799564933,290.9600088550386,308.2074835781454,314.0245232792642,260.51444011791364,253.95948623970082,130.8769386763413
153.61254699051275,291.65555826901925,308.02832973169046,313.9628877388449,260.536789697952,253.4875349112692,130.95395012182237
153.0936455303486,292.3760725912689,307.8654422659323,313.90590943788834,260.5413708030414,253.01451414502066,131.0298293515749
152.58158062445992,293.12078566973827,307.71922084440837,313.85357945440825,260.52846253113785,252.54295029603696,131.10406884817888
152.07753197179613,293.8886358194566,307.5899953787717,313.8059242498184,260.49837681911004,252.07535515468345,131.17612764514604
151.5826476398634,294.678336390006,307.47802890352386,313.7629377823917,260.4514873056127,251.61424976513982,131.2454854188567
151.098033686652,295.4884250295879,307.38358499475527,313.72457945492994,260.3882563234314,251.16209191852317,131.31165712541656
150.62470200806223,296.3172166972212,307.30691073355075,313.69084642584085,260.30916706851315,250.72123593331426,131.37414972009597
150.16356453415833,297.16279662865185,307.24814834984693,313.6617720764411,260.21466201013425,250.29399353889437,131.43243644744012
149.71549058344252,298.02312282245083,307.20732908274357,313.6373449877123,260.1051933785916,249.88266552190757,131.4860040566261
149.28133960270367,298.89608769165574,307.18444585000935,313.61750017140326,259.981289064211,249.48947400066828,131.53441943224612
148.86191986916822,299.7794569280946,307.1794519800433,313.60219288947695,259.8435092215802,249.11652511068814,131.57733230152652
148.45794464656026,300.6708363209149,307.1921812614313,313.5914045235315,259.6923673435786,248.7658705502976,131.61442728312917
148.0700565449137,301.5677598395467,307.2223393425611,313.58506741732253,259.5283531919523,248.43953725207066,131.64541055714426
147.69887343134033,302.46775602839733,307.26957624968315,313.58305710256184,259.35201719450856,248.13945680460722,131.67005330495178
147.34497312911327,303.36829668727245,307.33349433315965,313.58526407419896,259.16397698723193,247.8674265400992,131.68821742759673
147.0088338642683,304.26675941130344,307.4135819196999,313.5915972121647,258.96486238231586,247.62517218609747,131.69981806937494
146.69081960319303,305.16049220285726,307.5092146222332,313.60191091085505,258.7553398936059,247.41437923275632,131.70478527690813
146.39122836634027,306.0468566925839,307.6197291613414,313.61600978438565,258.5362141233172,247.236619925888,131.70309032788478
146.11031950843017,306.92317676883823,307.7444270538093,313.63373992506297,258.3084522139038,247.09330443914473,131.69479548676082
145.84827260800293,307.78672669608846,307.8825064499347,313.6550049629105,258.07310778033053,246.98572785936975,131.68004744300654
145.60514833651553,308.6348326513923,308.03306744715934,313.6796895542846,257.83130061037104,246.91508979669433,131.65902387105803
145.38092240939287,309.4649412131431,308.19519310033536,313.70766004471676,257.58430125915686,246.8824213576172,131.63191358313054
145.17554642658197,310.2745663926007,308.3679597800024,313.7388746696562,257.33356739711127,246.88854392688475,131.59895177396237
144.98894782465294,311.061256850305,308.55037362724306,313.77342174935353,257.0806597425819,246.9341241071086,131.5604386240854
144.82098056607552,311.82267499834944,308.74137612974465,313.8114212794108,256.82717732740326,247.01969973023648,131.5166969453157
144.6714169842522,312.5566517436494,308.9399176135553,313.85296863576366,256.5747944496011,247.14561110111262,131.46802859018865
144.54000172861865,313.2611296211702,309.1449561508564,313.89821613011804,256.3252766484961,247.31196270097755,131.4147338569051
144.42648262290007,313.9341314502023,309.3553869991956,313.94742854106545,256.08040316862855,247.51868387949898,131.3571559545324
144.33056879721047,314.5738386453555,309.57004869738415,314.00090488405345,255.84192215075723,247.76556355577034,131.29567386710553
144.2518868452952,315.17864045384,309.7878029452202,314.0589225856138,255.6116104300309,248.05218756484214,131.230651970019
144.1900083906866,315.74707278007463,310.0075406388265,314.1218151779249,255.39130814185233,248.3779025239487,131.1624241572197
144.1445049027479,316.2777888065867,310.2281141579461,314.19002970011184,255.18285457315505,248.74187980211727,131.09133242205712
144.11494310210313,316.7696426646983,310.44834477477445,314.2640502338915,254.98805398637444,249.14315763255922,131.01774798060165
144.1008326587308,317.22173905343635,310.66710822998465,314.34433762357605,254.8087404933077,249.58058643031427,130.9420325194799
144.10161596277788,317.6333612639988,310.88334868794396,314.43139744337856,254.64680822783995,250.05279744177642,130.86450325263277
144.1167211887537,318.0039237659091,311.09601380554045,314.5258273378617,254.50413115561366,250.558269769915,130.78546671590288
144.14559475339053,318.3330420991874,311.3040573836601,314.62823272318735,254.38249529803744,251.095375980782,130.70527637009852
144.1876637190401,318.62057917237496,311.50651583564905,314.73915876255984,254.2836160711958,251.66233053756793,130.62433002783996
144.24229642477638,318.8665786664512,311.7025127276819,314.8591489440572,254.2091289316504,252.25715930742075,130.54301653361847
144.30882918606588,319.071226177769,311.89118676294504,314.98878461486527,254.1604927715522,252.8777657187644,130.46169507378275
144.3866122373378,319.2349216680392,312.071692337226,315.12859924152616,254.13893143444966,253.5219772190949,130.38073019445872
144.47499530289448,319.3583177800374,312.2432804396005,315.2790161230936,254.14548729370875,254.18749865107773,130.30051126118644
144.57327298391127,319.4422391971854,312.40530905989164,315.4404175729924,254.18106122963883,254.8718922404782,130.22141335360217
144.68067935856214,319.4876286775548,312.5571710371777,315.6131971264752,254.24636103284516,255.57265962364147,130.1437599340895
144.79644742586393,319.49560717418314,312.69828847039497,315.79768404514294,254.34188295702762,256.28730296356895,130.06784925869127
144.91984435512677,319.4675050247526,312.82818685229023,315.9940852083867,254.4679950067943,257.0132844938772,129.9940031038809
145.05013045002718,319.4047788461372,312.9465014202375,316.2025541469952,254.6249861231842,257.74800339573335,129.92256023956898
145.18651321192584,319.30896262464444,313.0529030840682,316.4232417631263,254.81301064442061,258.48886820834883,129.85382557492127
145.32817411135113,319.18174138906636,313.1470902460403,316.6562173598433,255.03206576974347,259.23334624037716,129.78805485615385
145.47432733266575,319.02499235567245,313.22885794085965,316.90140471737277,255.2820736501347,259.97891432854016,129.7254942703267
145.6242212562827,318.84069809585134,313.29809894275826,317.1586469290422,255.56292819887096,260.7230333477032,129.66640269031708
145.77708763197438,318.63088983388786,313.35472650905126,317.42775910072476,255.87442512218874,261.46322511178994,129.61101317558914
145.9321275324605,318.3977224701715,313.3986640844009,317.7084574908617,256.2162037144624,262.197127269331,129.5594923094638
146.08856282753374,318.1435219437335,313.42991324539855,318.00030466415075,256.5877840553221,262.9224412626519,129.5119609597038
146.24567239761456,317.8706937218601,313.4485580507067,318.30277931901946,256.9885875883463,263.63689171877604,129.4685411427413
146.40275863743642,317.58163732422116,313.4547016366717,318.6153315224761,257.41787147570835,264.3382811115727,129.42935295623457
146.55911060382314,317.27877333415995,313.4484814203526,318.9373176318411,257.87468519183625,265.02452713847094,129.39446689263005
146.7140364595165,316.96455332389667,313.4301608561381,319.2679567636107,258.35790855468565,265.69360693424375,129.36388764668217
146.86692008062104,316.6413655294241,313.4001382661814,319.6064146211163,258.86626357655376,266.34352388815296,129.337591321879
147.0172151002487,316.3114747450995,313.3588633257936,319.9518678821824,259.39824851710046,266.9723716679056,129.3155476428514
147.16438998714742,315.97708302930187,313.3068190336721,320.3034349200588,259.9521133413522,267.57837937078955,129.29768392876636
147.30791456134324,315.6403655272439,313.24458770757235,320.66011587154986,260.5259387653123,268.1598654292099,129.28384798713486
147.44730765714084,315.30338743268464,313.1728511876295,321.0208609534437,261.1176943126609,268.71521749605705,129.27383409162778
147.582162061471,314.9680458086263,313.09231339852175,321.3846310458913,261.725202336645,269.2429668532529,129.26743688885233
147.71210005296172,314.6361325899598,313.00371058916426,321.75033762729566,262.34612919929145,269.7418318871644,129.26445580375935
147.83673278718354,314.3093780305464,312.90792967772126,322.11680265015355,262.97807387590154,270.21065326061677,129.26465504912153
147.9556981580792,313.9893795503348,312.8060438380951,322.4828496519442,263.61862798267555,270.6483434599433,129.26775625248206
148.06872843684698,313.67755590148005,312.69919981476176,322.84737774064246,264.2653322019742,271.05393640436233,129.27348495585622
148.1756530636095,313.3752190414328,312.5885377344454,323.20929937987705,264.915654273219,271.4266261199362,129.28160001488638
148.27634905453274,313.083621442037,312.4752456239774,323.56748580311773,265.56706812888774,271.76571285114125,129.29186192871265
148.3707358613824,312.80388668562244,312.36059675986155,323.9208397805181,266.21711219296026,272.07056347337243,129.30399928528678
148.45883443577566,312.5369663428409,312.2458649985165,324.2683565112649,266.86334791751057,272.34066181975805,129.3177375229161
148.54079765742662,312.28371435565526,312.1322634107007,324.6090556598986,267.50334155149085,272.5756388191753,129.33285232064983
148.61685850203045,312.04493543442544,312.0210106456178,324.9419237217892,268.1347467739356,272.77520510927593,129.34916885569126
148.6872691752474,311.8213157022998,311.91337737406036,325.2659846358616,268.7553617754758,272.9390976776558,129.36651238786203
148.75231000625368,311.6133760703085,311.81060413932266,325.58036077195044,269.3630811712295,273.0671240532013,129.38468837236772
148.81232745537545,311.4215385330653,311.7138353757638,325.88420485666796,269.9558687944558,273.1591971555086,129.40351655973043
148.867714717239,311.2461683158957,311.6241788393448,326.1766377229337,270.53183168116146,273.21527939013276,129.4228518176766
148.91884739254243,311.08750694516215,311.5427497606317,326.45681098045856,271.0892693917139,273.23534516493754,129.44254742427228
148.9660671687242,310.94563754470823,311.47059651434034,326.7239622321155,271.6266159827259,273.21944263553564,129.4624179692456
149.0097331459661,310.8205684303481,311.40865453406684,326.97734717692293,272.1423993049482,273.1677413272519,129.48226802445006
149.05024877045787,310.7122889067924,311.35783163939544,327.2161852410944,272.6353029844573,273.080481321682,129.5019507039635
149.08801309551544,310.6207028574929,311.3190700570247,327.4397368185272,273.10420893096233,272.9579371745252,129.521372500811
149.12337518042162,310.54558191428424,311.2932741256332,327.64737295925454,273.54813669207266,272.8004823175628,129.5404442639362
149.1566717642902,310.4866350654417,311.2812543428875,327.83851453395425,273.96620466208816,272.6086406753787,129.55905908062422
149.1882987818339,310.4435567808024,311.28379746708373,328.01257532771535,274.35769774189504,272.38303702713534,129.5771275898445
149.21871451818595,310.41595809487643,311.30171313943544,328.1690294588058,274.7221133194712,272.12435444688253,129.59460252827924
149.2483743855102,310.40331856427764,311.33574512564155,328.3074704574035,275.05909853846407,271.83338361801407,129.61144284565555
149.2776909154602,310.4050550785769,311.386492004723,328.42754557698123,275.3684078619445,271.51105745154626,129.62757286753882
149.3070559525515,310.420570097181,311.4544532403994,328.52890151398316,275.64996882207254,271.1583921185783,129.6429031589049
149.3368537955611,310.4491827865677,311.5400678600423,328.6112587320939,275.903926693727,270.7764482188909,129.65737850533822
149.36741500929529,310.49008018672305,311.64363925177594,328.67447456331115,276.13057755476984,270.36639467707346,129.67097471463185
149.39897535083168,310.5423867370908,311.7652824718847,328.718473131231,276.33031025303023,269.9295569045949,129.68364908053795
149.43171468244316,310.60521662532574,311.90499824866833,328.7431808204579,276.50364144687643,269.4673563071238,129.69532365258917
149.46583126932163,310.67760876723736,312.0627300485403,328.74859236910663,276.6512295925381,268.981249909118,129.70592688366767
149.5015514130067,310.758477608558,312.23829387845865,328.734831859141,276.773793246514,268.47276107962097,129.71542355636984
149.53907487011284,310.8466817084569,312.431324067094,328.7020833932091,276.87205148575686,267.94350095729607,129.72378449191396
149.57855129847917,310.9410798418696,312.64134898065606,328.65052544180827,276.9467641013985,267.395100682683,129.73095205592062
149.62012079467075,311.0404739061535,312.8678551312898,328.58039308262124,276.9987570099319,266.82916280838765,129.73686731287492
149.66393873723405,311.1435713108721,313.1102226992429,328.49203487575767,277.0288557466331,266.2473135265222,129.7415230440393
149.71013348578867,311.2490685830723,313.36767111154614,328.38584186475634,277.0378419062539,265.6512408566705,129.74496241962777
149.7587669202844,311.35572010983003,313.6393322947644,328.2621847142469,277.0265097884356,265.0426278522834,129.74722571389518
149.80987183837487,311.46228658484887,313.9243143087961,328.12148355857187,276.9957048229498,264.4230915628058,129.74832366399426
149.86351677405824,311.56749454313814,314.22163843083143,327.96427208370307,276.9462610949747,263.7942234899766,129.7482675955883
149.9198030588065,311.6701067296353,314.53018765543663,327.7911259581407,276.87895347711697,263.15762927202246,129.74709254371123
149.97880294958492,311.7689721640933,314.8487836474558,327.6025903492206,276.79454731315616,262.51487707874963,129.74482495114475
150.0405317451161,311.86296206193697,315.1762535495735,327.399237136238,276.6938308438068,261.8674598540789,129.74144620211473
150.1049816290146,311.9509285672748,315.5113678416075,327.18172212789733,276.57755022926284,261.2168605073394,129.73691680608238
150.17214046787944,312.03178225850996,315.8527860020878,326.9507102701501,276.4463729394731,260.56460690317533,129.731228953095
150.24194684027,312.1045494457731,316.1991301446792,326.7067883843925,276.3009690827449,259.9122191636647,129.72440937219727
150.3142465462507,312.1683104973744,316.54905357888606,326.45050255129826,276.142080428737,259.26115687862637,129.7164738334404
150.38882443658065,312.22215587189834,316.90118654071296,326.18242050197233,275.97047626890895,258.612861931806,129.70741001812493
150.4654708110496,312.265257441648,317.25409278909274,325.9030777785115,275.7869103866038,257.9687935372143,129.6972156833067
150.5439882107624,312.2969190102975,317.6063530543113,325.6128874316426,275.59216564216973,257.3303656599023,129.68592426896748
150.62413834631838,312.316507331826,317.9566372548462,325.31217032485154,275.38707553537824,256.698893190626,129.6735699520733
150.70562144644194,312.3233979455862,318.303644808944,325.0012595824837,275.1724500441907,256.0756376347265,129.660148717077
150.78812230400368,312.3170368276563,318.64604750008317,324.6805158439931,274.949030797695,255.46184669506817,129.64564391443648
150.87134308819466,312.2969876617086,318.98255559432573,324.3502713179665,274.7175600972452,254.8586973002888,129.63008247507054
150.95496845887013,312.2628654607661,319.3119765730195,324.0108552215729,274.47883491710115,254.2672462912492,129.61353901523844
151.03863037428079,312.21428662236593,319.63314709225693,323.66268313461296,274.23364811130017,253.68847751155542,129.59608565207435
151.1219435988792,312.15093441847324,319.94486790926715,323.3062568468541,273.98274039293466,253.1233412067485,129.5777648775724
151.20456351406574,312.0726099895569,320.2459639028163,322.9420901131263,273.72686350299193,252.57269885828225,129.55861722832447
151.28617795685398,311.9791697890638,320.5353440218034,322.57071276305476,273.46683534767885,252.03728108649238,129.53870160598228
151.3664449468023,311.87047742899495,320.81194326209635,322.1927405312776,273.20348922554797,251.51774802475,129.51806130283674
151.44496606474695,311.74646546344115,321.07467529043765,321.8088628819243,272.9376325053666,251.01474225494414,129.496687225971
151.52132250866023,311.60717810996584,321.3225113543575,321.4197641656836,272.6701040258455,250.5288405003545,129.4745404610642
151.59509970115425,311.4527034730117,321.5545496956559,321.0261275235171,272.4018114705307,250.06051158107522,129.451599606276
151.66585083494107,311.28313074030893,321.7699551524906,320.62870783807307,272.13366283124793,249.61017397597487,129.42785720533823
151.73305989634795,311.09862665542994,321.9679047453703,320.2283231797821,271.86651374371115,249.17824567550056,129.4032702307854
151.7961760858867,310.8994918707992,322.14766123854906,319.82577546593836,271.601218067533,248.76509193937028,129.37774140808048
151.854682122513,310.6860957766923,322.30863890927,319.4218501125089,271.3386614770444,248.37097665559318,129.35115818346407
151.90810585441906,310.4588258643748,322.4503371339805,319.01738541145954,271.07969131996117,247.9961120664431,129.32342296511018
151.95597617081862,310.2181544518252,322.5722741742932,318.61326238866377,270.82506474015014,247.64070290256896,129.29442452886508
151.99781629870046,309.96468848325594,322.6740444117855,318.2103237821068,270.57550581571945,247.30489040506217,129.26400187787135
152.03320592249503,309.6990986184303,322.7553695334286,317.80937225853734,270.33175033626765,246.9886969194435,129.23196802908214
152.06182332321225,309.4220567127296,322.81602058883817,317.4112414469726,270.09448192268724,246.69206328929803,129.19816403708805
152.08340729500446,309.13428248334867,322.8557393244995,317.01679091453553,269.86427336716605,246.41488260941725,129.1624636101786
152.09771053918075,308.83657603658423,322.8742971008207,316.6268321995363,269.64162649695464,246.15694423238696,129.12472660641555
152.1045261188367,308.5297428782591,322.87158190818735,316.24213540979474,269.4270016297104,245.91788754339723,129.08477880746344
152.1037458185603,308.2145392941586,322.84755938636914,315.8635078093437,269.2207501916767,245.69725254175123,129.0424484645177
152.0953586632647,307.8917336214411,322.8021848576881,315.4917913306174,269.02306139438474,245.49452714491986,128.99759492258735
152.07939633722194,307.5621523977907,322.7354284504352,315.1277842857319,268.8340096167479,245.30910373828635,128.95008165174679
152.05591890825275,307.22661146969403,322.64736999064667,314.7722392006279,268.6535932255189,245.14024594219032,128.89974690211545
152.0250677740017,306.88586231837905,322.5382022964295,314.42593336965024,268.48168269129553,244.98715312341372,128.84643645996758
151.98709851815883,306.5406539945135,322.40816253101383,314.08966301560787,268.3179975435194,244.84901873645325,128.7900634780573
151.94233601603028,306.1917797027759,322.25754368678196,313.76416486881527,268.1621987990447,244.7249908476415,128.73061359418534
151.89112095662705,305.8400066776733,322.086770511747,313.45011191543915,268.01396480166005,244.6141380810908,128.6680942731679
151.8338278472683,305.48602144374473,321.89639211032625,313.14817803055973,267.87294685158906,244.51551518611456,128.60250692688857
151.77091444572997,305.1304946478328,321.68700978687195,312.8590274184157,267.73872841158465,244.4282252528548,128.53387494544003
151.70291057297106,304.77413441542217,321.45928821249873,312.58324001663914,267.6108928058556,244.35138154966225,128.4622655288809
151.63034903832948,304.41762157964905,321.21402874609214,312.32132260689895,267.4890821478674,244.2840693627785,128.38775716053755
151.55372837386025,304.0615537651506,320.95215460779747,312.0737943078041,267.37294554188924,244.22540346005044,128.31040484741715
151.47354065368563,303.70650387707695,320.6746277496242,311.8411881183446,267.2620901714292,244.1745801220567,128.23026861262719
151.39029046551,303.3530691149799,320.3824475692687,311.6239695349708,267.1561339399446,244.1308237245406,128.1474711541947
151.30445215258527,303.001809407542,320.07671446118604,311.4225278689417,267.0547488093838,244.09332213216362,128.06220226364977
151.2164297137894,302.6532029830458,319.75861112864646,311.23724469059493,266.95760138680305,244.06125800375696,127.9746693545909
151.12659571878964,302.30771964757344,319.4293198368511,311.0684899670384,266.8643034631611,244.03385909548638,127.88507512436715
151.03536491697207,301.9658776613712,319.09002418384273,310.916544365017,266.77446583516206,244.01035757534302,127.79365443339303
150.9432019200456,301.62817758474034,318.7419786761668,310.7815969007105,266.6877436892967,243.98992308630443,127.70070141096528
150.85056215390145,301.29504708621425,318.3864952880581,310.6638174559908,266.60378208044784,243.97170400037385,127.60653388396251
150.7578623782149,300.9669076738511,318.0248603782688,310.5633536025422,266.52217631097665,243.95494598095215,127.51144881387344
150.66551960400034,300.6442326408368,317.65833673679515,310.48025124342246,266.4425399899059,243.9390302506461,127.41573766305493
150.57398040983853,300.3274843831833,317.28824396539716,310.4144498224893,266.3645605203972,243.9234099286451,127.31973143092708
150.48368080427167,300.0170576677889,316.9159601858334,310.3658544076092,266.2879410777038,243.9075928559766,127.22379702894676
150.39499871814022,299.7133375079238,316.5428450521072,310.3343363277065,266.21234628449093,243.89122108812694,127.1282844847953
150.30827893604987,299.4167462374864,316.17023645397484,310.31966551405793,266.13745520251814,243.8741132002894,127.03350197304601
150.2238939695489,299.12767421073437,315.79951860789,310.3215274345385,266.0630091746367,243.85621371569653,126.93974908774267
150.1422456811774,298.8464220985165,315.4321119889946,310.3396179087614,265.9887587242425,243.83757930917832,126.84734181659229
150.06370413471976,298.5732624444094,315.0693923903133,310.3736538547629,265.91443406749084,243.81845482084293,126.75657747854986
149.98857348697695,298.3084932264399,314.71268663378635,310.423296812621,265.8398387197762,243.79930362042325,126.66769272600918
149.917122167401,298.0523760168604,314.36333252033216,310.48814627179576,265.764927825561,243.78073345775854,126.58088545339712
149.84960450053558,297.8050862712177,314.02265659665557,310.5678111282481,265.689752666537,243.76345294612798,126.49637157172181
149.7862189283497,297.5667810025703,313.6918861588972,310.6619105620521,265.61439755554613,243.74832405543967,126.41439325154197
149.7270657857097,297.3376524834672,313.37214551685463,310.7699997073085,265.5390274633687,243.73638067599265,126.33517167490739
149.67218285295175,297.11786003458826,313.0645237086165,310.89156895252177,265.4639322024929,243.72874665068133,126.25888046972237
149.62161835152205,296.90747050430383,312.77006448130203,311.02611979321136,265.3894604765992,243.7265806939728,126.18567430263096
149.5754424800885,296.70651771224067,312.48969058162044,311.17316562997564,265.3159593659004,243.7311168251129,126.11571176590974
149.53369475649097,296.515054522171,312.22421014830184,311.33215208937145,265.2438233996622,243.7436780615491,126.04912418954818
149.49636061916618,296.33308979532774,311.97439060370994,311.50244867791736,265.173538168131,243.76559858948988,125.98598205727734
149.46341433803238,296.1605366616607,311.74095054545853,311.6834209563327,265.1056143576353,243.7981780070467,125.92632590943279
149.4348497644751,295.997278790701,311.52448407169794,311.87443464268614,265.0405243228637,243.84273088118388,125.87022903490075
149.41064008245723,295.84322716587565,311.32546988795707,312.0747832748214,264.9787436674972,243.9006048300213,125.81780697219483
149.39068990732852,295.6982601872494,311.1443535823578,312.2836890272479,264.92078705634964,243.9731036026195,125.76916808736279
149.3748593604051,295.56217403265185,310.9815484539349,312.5003855073267,264.86713493780434,244.0614460656283,125.7243839562764
149.36302416106116,295.434749971029,310.8373656738682,312.7241296802148,264.81816042275784,244.16682820352403,125.68351599513115
149.35508023386757,295.3158106177172,310.71203212674027,312.9541288178609,264.77417098883706,244.29045473784112,125.64663784444716
149.35089143302596,295.20515526480045,310.6057854963917,313.1895336319976,264.73547064238556,244.433465323275,125.61380392469299
149.35026464607486,295.1024999141562,310.51888202555506,313.42951405238153,264.7023180003251,244.59688081032937,125.58501308869938
149.3529830807008,295.00753371135926,310.451516995547,313.6732687258324,264.6748550485728,244.78164379442973,125.56023124327709
149.3588281301854,294.91997044773785,310.40381526827775,313.9199545476884,264.6531408663127,244.98863551932567,125.53944195527629
149.36754064759964,294.83948735976014,310.37589546516784,314.16868993198074,264.6372384013725,245.2186022770091,125.52264722713609
149.37878238987966,294.7656748928371,310.36785961707244,314.4186469622896,264.62720612976864,245.47211129580214,125.50981755890172
149.39217147997337,294.69810510315904,310.3797110872957,314.66907376345955,264.623011304024,245.74960282980555,125.50086896226837
149.4073523808373,294.6363926732791,310.411352908989,314.9192248320411,264.62452664248735,246.05141759502442,125.49569939054739
149.42400451097114,294.5801376520751,310.4626651314704,315.16835220599705,264.63164196110483,246.37773180687154,125.49421901503804
149.44178464111644,294.5288733024394,310.53350599273733,315.4157782774248,264.64432910978826,246.72852209017924,125.49632227475931
149.4602928034934,294.48212917753364,310.6236336059366,315.6609006910701,264.6625906654174,247.10363030782776,125.50185353962655
149.47910504546107,294.43948736001283,310.732700726474,315.90311650982017,264.68643740807573,247.5028041374535,125.51063333914773
149.49780523439654,294.40052298210526,310.86032655069107,316.1418323960372,264.7159685751266,247.9256371042186,125.5225127269346
149.5159571941316,294.3647506203637,311.00609450620783,316.37658554847815,264.75141518945287,248.3715266214708,125.53737529095729
149.53307119459373,294.3316846718654,311.1694717369926,316.60709517309397,264.79307571028875,248.8397264761522,125.55508514081036
149.5486340542653,294.30089273496714,311.3498017577552,316.8331976860488,264.84128425482226,249.32938168371805,125.57545890561886
149.56216358815843,294.2719360369012,311.5463776699243,317.0548376385297,264.896480749757,249.83947904235606,125.59829632486138
149.57320424272456,294.2443207029114,311.75844669550867,317.2721620795883,264.95924077045254,250.36883407077224,125.62340683066694
149.58127142879363,294.21756629056057,311.98513795160227,317.48554797530517,265.0301890727289,250.91617982510132,125.6505799999659
149.58583179155403,294.1912642976669,312.225459653198,317.695516582711,265.1099317509744,251.48022450473087,125.6795494757409
149.5863512716498,294.1650166644772,312.4783717273363,317.9027071672974,265.1990877685161,252.05960020071865,125.71001765121612
149.58233484583457,294.13838154358376,312.74278881709535,318.1079573822472,265.29830134822447,252.65283173954734,125.74171140070979
149.5732986531285,294.11093878288045,313.0175078442431,318.31230913929636,265.4081717368519,253.25840683885207,125.77438849729725
149.55873442731368,294.08234999560267,313.3012046089746,318.516871830794,265.5292269951793,253.87482504188125,125.80779025295895
149.5381444070513,294.0523011300043,313.5925080830646,318.72272470120976,265.6619985164452,254.50054567013635,125.8416168006279
149.51110972477647,294.0204514173992,313.8900108665846,318.93096240058856,265.80705441553914,255.13395348800486,125.87556006347162
149.4772986035898,293.98649865614306,314.1922097356741,319.14272669530834,265.9649235664649,255.77341997767311,125.90933314856157
149.4364131682091,293.95023508955876,314.49752234187946,319.35911387729857,266.1360495352885,256.41734483960914,125.94264444747519
149.3881669566538,293.91148298806445,314.8043859324894,319.5811054384297,266.32084735146674,257.06410512594863,125.97516391702014
149.33233120272772,293.8700357970281,315.11128335271235,319.8096303082337,266.5197309765623,257.71203016606137,126.00654738974093
149.26877260601893,293.8257173966654,315.4166807011871,320.0456084184431,266.73304609859383,258.3594733631762,126.03649104602886
149.1974218008268,293.7784356838748,315.71902619757344,320.2898631727515,266.96104738567584,259.0048586585276,126.0647374834316
149.11823342263017,293.72811813708876,316.016826852766,320.5430509367888,267.20398504549553,259.6466261708499,126.09102860780196
149.03121459114922,293.6746518369668,316.30865921560275,320.8057212828723,267.4621506942982,260.2831968845915,126.11508150006019
148.93648266742164,293.61793991125825,316.59310311631367,321.0783626146307,267.7358042665274,260.9130335980485,126.13662316234975
148.83426128180258,293.5579532890475,316.8687453851207,321.36132247849184,268.0251250946108,261.53468176614655,126.15542260945007
148.72481755061523,293.4946667813069,317.1342648882698,321.6547521116096,268.33026919586274,262.14671400733545,126.17126563930036
148.60843209714096,293.4280000472499,317.388448903505,321.95868809071305,268.6514002705698,262.7476915102581,126.18391738472809
148.4854375024874,293.357874251336,317.63012699581327,322.273118092098,268.9886201652704,263.33621539533766,126.19314070426286
148.35624781778975,293.2842647964075,317.85817005968187,322.59791060838836,269.34192985515585,263.9109555723441,126.19874723342626
148.2213185674318,293.2071403596648,318.0715658453895,322.9327541532661,269.7112893500706,264.47058654434795,126.20060374549436
148.08109779254437,293.126408927459,318.26942675199405,323.2772250152301,270.0966446728201,265.01374662719417,126.19858617911858
147.9360492912682,293.04198102471406,318.45092764216577,323.63084472966267,270.4978575183094,265.5390965695016,126.19255526514748
147.786714015066,292.9538282334776,318.6153217767485,323.99301356948325,270.9146725724087,266.0453621837401,126.18238949242266
147.6337135498546,292.8619250946851,318.7620309906015,324.36295953297434,271.3467873308854,266.5312812828464,126.16801418002215
147.47768856822586,292.7661954281451,318.8906505369629,324.7398153425338,271.7938860647566,266.99556652665603,126.14937320873555
147.31926066693978,292.66657507781997,319.0008656485754,325.12268225741536,272.25556584417984,267.4369625501251,126.12639059470438
147.1590575504852,292.56307066889417,319.0924528622246,325.51056849803666,272.7312883885533,267.85428808547323,126.098989729976
146.99773176310543,292.4557024563416,319.165389924144,325.9023451665161,273.22043373692173,268.2463894163869,126.06714404488496
146.83591678679284,292.34445119120824,319.21988888443923,326.29683179856573,273.7223293605661,268.6121181813166,126.03088088574064
146.67417788600866,292.22932078968057,319.25629136142965,326.6928663462295,274.2361843553057,268.95040611277824,125.99023314973897
146.51303322856046,292.110396221099,319.27500696352826,327.0892432091468,274.7610606683485,269.2603176267799,125.94521249842025
146.35301075023563,291.9877829464885,319.27659013807613,327.48466120629405,275.29595389114223,269.5410014269968,125.8958387194429
146.1946501618167,291.86154726888543,319.2617919942213,327.87779864140794,275.8398465294705,269.7916560963212,125.84216645867235
146.03844983336094,291.7317720957179,319.2314773885655,328.26737671341994,276.39165507968204,270.0115873056343,125.78425758770092
145.88484804142163,291.5986104366829,319.1865571102432,328.6520969770384,276.9502056117349,270.20024530209537,125.72214367277584
145.73426958695703,291.46222313546014,319.1280461316802,329.0305929563906,277.5143160262936,270.35717176004596,125.65584617753308
145.58715723771735,291.32271879779404,319.057105240629,329.40150962886867,278.08284834886774,270.4819734563751,125.58543205545996
145.4439313060724,291.1802097939229,318.97496002277444,329.76356839433345,278.6546460348336,270.5743951513503,125.5110246241023
145.30494356055073,291.0348672219526,318.88284237230613,330.11550058700743,279.22848610415656,270.6343676421267,125.43275752326639
145.1705088762882,290.88686217265365,318.78206033319975,330.45599122928235,279.80313382530267,270.66194857349967,125.35074557411967
145.04097838650418,290.7363119042623,318.6740460724064,330.7837532684562,280.3773806850027,270.657276300031,125.26511206449045
144.91675376307288,290.58334378761776,318.5602716706511,331.0975937040345,280.94998861663106,270.6206236715427,125.17601474588614
144.79823606975822,290.42815619590976,318.4421848753066,331.39635154938134,281.5196643962138,270.552437241128,125.08361775696939
144.68580076021397,290.27096176226746,318.3212790638335,331.6788437433375,282.0851363792999,270.45327666194777,124.98805416020993
144.57983466275232,290.11193458361834,318.19914493785245,331.9439362232717,282.6452013367355,270.3237657738244,124.88944459419591
144.48075815078448,289.9512766700512,318.0773861552623,332.1906035246772,283.1986676673331,270.16463835269985,124.78794690800851
144.38897697444483,289.7892807137005,317.9575470442792,332.4178600045381,283.74433381624436,269.976769471603,124.68376029960851
144.30482817606676,289.62626734630135,317.8411682734215,332.62470044082323,284.28107938200316,269.7611127751984,124.57707745134445
144.22860287142228,289.4625106635682,317.7298252747567,332.8101704296377,284.8079255039877,269.51865579659204,124.46805789424428
144.16061255979398,289.2982796646703,317.6250366178183,332.97343126302235,285.3239846702311,269.2504753294432,124.35685899690078
144.1011993058051,289.13389895173435,317.528188362313,333.11369915038546,285.82844375983115,268.9577770934719,124.24366631538622
144.0506784978462,288.969695268392,317.4405900977724,333.23019519100694,286.32065499546906,268.6418306099395,124.12866964847277
144.0093051807351,288.8059056990599,317.3635215981144,333.32222646758294,286.80018445299726,268.3039119389946,124.01202728537073
143.9773069724089,288.6426941050548,317.2981567211398,333.38925920993756,287.2667379659796,267.94534530902433,123.89388463160753
143.9549090168532,288.48023373294814,317.2455037456518,333.43085979462074,287.720109317854,267.56753594869417,123.7744252396767
143.9422906660256,288.31870967776115,317.2064715755756,333.4466382467947,288.16023260367984,267.17190880315167,123.65387815236018
143.93953572276905,288.1582619724256,317.18191895899395,333.43631551374835,288.58720130257257,266.7598627078493,123.53247235287805
143.9466577306819,287.99900770375916,317.1725746070256,333.3997808062662,289.0011727862284,266.3328225697431,123.4104092291114
143.96366540667697,287.84112087061044,317.17897139186397,333.33702094935956,289.4022922507166,265.89227671105806,123.28788882800323
143.9905708625832,287.6848281909504,317.2015116883701,333.24805908471114,289.7907230773928,265.439715097966,123.16513337095708
144.02733311813483,287.5303382248662,317.2405247083672,333.13302362299277,290.1666618372586,264.97658289343764,123.0423575950377
144.07382797582056,287.37784513129816,317.2961965478294,332.9922099367424,290.53025939447474,264.5043365349711,122.91972939773802
144.12988578501984,287.22759393865084,317.3685078010611,332.8260115464609,290.88157337994727,264.0244869765928,122.79738503907147
144.19532266338084,287.0798710637736,317.4572976539861,332.63485638739655,291.2206299242205,263.5385397974905,122.6754760293779
144.26990330672982,286.93493584010315,317.56232258420744,332.41927068038297,291.5474642580053,263.0479438053211,122.55417319718006
144.35329161103357,286.79302926651445,317.68319614381676,332.17993481850914,291.86205915663265,262.5541354715012,122.43361933827758
144.44506706766438,286.65444236734817,317.81935043145285,331.91760825645866,292.1643165157737,262.0585697687393,122.31390223127416
144.54477826255516,286.5195065662574,317.9701360802407,331.63305811494115,292.45414536030773,261.5626537413809,122.19509123664494
144.65194669644006,286.38852324264644,318.13491068696595,331.3271155091476,292.7315216096385,261.0676935229126,122.07728507427352
144.7660155638057,286.26177000187187,318.3129844030473,331.00072631543765,292.99642282893456,260.5749403591947,121.96060340065354
144.88632935726713,286.1395672739863,318.50356032586865,330.65486248411423,293.24877015841776,260.0856267289836,121.84514469505864
145.01218297657448,286.02226890262,318.70579651241536,330.2904067773402,293.48847155606,259.6009065399871,121.73098645499587
145.14286584532178,285.9101938016384,318.91885968254604,329.90814858367196,293.71545073595314,259.1218076238011,121.61823549368388
145.27763649983254,285.8036344760789,319.1418549363176,329.50881179701867,293.92958812182536,258.64928304896046,121.507052398272
145.41567953885138,285.7029236542144,319.373770030313,329.09299189135425,294.13069467066754,258.184252584787,121.39761040882814
145.55612499755318,285.60842161239634,319.61355532283716,328.66108797561395,294.3185840037392,257.72754659031386,121.29004927964586
145.69810920281353,285.5204431594144,319.86019910621553,328.213410838986,294.4931097860231,257.2798631123345,121.184492224426
145.84079045265736,285.43926516820864,320.1126695121657,327.7504240812552,294.6540933877336,256.84182962210826,121.08109901909415
145.98330523140865,285.3651991791102,320.36985381206637,327.2728749242727,294.8012773343916,256.41405811706613,120.98007505847922
146.12474631989843,285.29858810798646,320.630617678413,326.7817602988058,294.93439210435866,255.99709960098994,120.88162381055581
146.26420675984699,285.239740216185,320.8938568539407,326.27831959341063,295.0532046248023,255.59140812619316,120.78591510643842
146.40082198966243,285.1889374718169,321.15842910671006,325.7641052701002,295.1574479502113,255.19740607077188,120.6931152677714
146.53374868330272,285.14650162926483,321.42310323397186,325.2409850013365,295.24674518563705,254.815536925504,120.60342830011169
146.66213564629604,285.11277987764623,321.6866398470639,324.71106743140734,295.32062538410037,254.44621174049416,120.51708116823146
146.78516432324403,285.08806669161424,321.9478621738995,324.176671484211,295.37853883079765,254.08976139743706,120.43427503923964
146.90212209987172,285.0726025611247,322.20559507733446,323.64029989165164,295.41979914007646,253.74648861980472,120.35517664564355
147.01241244722812,285.06663795375846,322.4586131363636,323.10451063541126,295.4435601251327,253.4167101653923,120.27995826847058
147.11549809086327,285.0704230517083,322.7057238481915,322.5717807264119,295.4488996446991,253.1006956051785,120.20881724109363
147.21087077423732,285.0841330292672,322.9458461916617,322.04453398980223,295.4348865125801,252.79860974001832,120.14194478628369
147.29809239199932,285.1078704487876,323.17795358649687,321.52527572949197,295.40054501925374,252.51055413019242,120.07950495412946
147.37683374516598,285.1417392698799,323.4010134621467,321.01661518245305,295.3448418138638,252.23660706082222,120.02166632107388
147.44684437580125,285.185848455358,323.6140503968354,320.52114000649533,295.2667828830066,251.97677030406385,119.9686316258558
147.5079098112327,285.24024694774,323.8162041842769,320.04130848148014,295.1654895512985,251.73092342006635,119.92060991814516
147.5598808908309,285.3049278436418,324.00666299432214,319.5794141680594,295.0401572599985,251.49887584020294,119.87777476215042
147.60274440358464,285.37989618321797,324.1846058400526,319.13750714153696,294.89002429689907,251.28041382950462,119.84027815874317
147.63663466103387,285.4651624863319,324.3492756722159,318.71724051590286,294.7144476057569,251.0752513655363,119.80829913740311
147.66177187024425,285.5606706585578,324.50004552173573,318.3197948804025,294.51296220322666,250.88299047043645,119.78204758267775
147.67841690367243,285.6662997126398,324.63635072379253,317.94598154877366,294.28523003598815,250.70318389233202,119.76171043818911
147.68689110256517,285.7819304967318,324.757620380599,317.5963812634069,294.0310010787622,250.53539158831262,119.7474142668261
147.6875945796784,285.90743839407185,324.8633357543116,317.27134483205975,293.75017870965223,250.3791334178851,119.73925237132073
147.68096074909573,286.04262142170825,324.95308748819957,316.97093666602433,293.442866803741,250.23384399530764,119.73732623849703
147.66740005642092,286.1872025941268,325.0265044797641,316.6950037015085,293.10930977050435,250.09892767151635,119.74173253620454
147.64731428688032,286.34089739706593,325.08317971694584,316.4433282903267,292.74985484684584,249.97381091068553,119.75251619883542
147.62115534541653,286.50340799897896,325.1227293018855,316.21567259200145,292.3650292098475,249.85789766384696,119.76966467896014
147.58943365936184,286.6743521235379,325.1448720713574,316.0117052217118,291.9555957709456,249.7505331898336,119.79315178729084
147.5526627733258,286.85326369326737,325.14938117720027,315.8309850916117,291.52248337389995,249.6510709206682,119.82295801256937
147.51132891657784,287.03965876455004,325.13600104957055,315.67303767214105,291.06671774128614,249.55893302649912,119.8590293165451
147.4659282013955,287.23303178123484,325.1045008867822,315.5373831187819,290.5894567291018,249.4735652152594,119.90123211508484
147.41699564489264,287.4327891237951,325.05480623260826,315.42351474082204,290.0920151423653,249.39439089384007,119.94936857625505
147.3650710369134,287.6382546152028,324.98702080671785,315.3309739229068,289.57578752837605,249.32086217510079,120.00322591278822
147.31066948864714,287.84873971475173,324.9013507556124,315.2594825810079,289.04219034881754,249.2525047955452,120.0625832517809
147.25431629314204,288.0635437366222,324.7980973786569,315.2089437538172,288.4927172959409,249.1888582566444,120.12716429030705
147.19658257833788,288.28189172932633,324.6777150925775,315.1793305768642,287.92898239715214,249.1294093717275,120.1966065933352
147.13805105410967,288.5029445264649,324.54078931776144,315.1706754228284,287.35265068114967,249.07362646080693,120.27049561519883
147.0792596742049,288.72587248469483,324.38795278266537,315.1831897394677,286.7653736413848,249.0210121644482,120.34841607539971
147.02070749368244,288.94985807928873,324.2198901183149,315.2173399444436,286.1688247376201,248.97106193836632,120.4299508090051
146.96290469603332,289.17403690509167,324.03741041214397,315.2738915797424,285.56472295519086,248.9231925137425,120.51464207367951
146.90637638549083,289.3975135410277,323.8414346164991,315.35410650042024,284.95475756541407,248.87676472677842,120.601988216169
146.85160391261942,289.61944194330016,323.63291639544605,315.4599952249779,284.3405333346592,248.83116408151025,120.69148894413787
146.79899007363466,289.83902967239044,323.4128492805379,315.59432267651323,283.7236280363732,248.7858050272211,120.782670452916
146.74889591547995,290.055472562361,323.1823407962681,315.7603665273848,283.1056402403154,248.74006113046585,120.87505074868
146.70167795122558,290.26796107926225,322.94259626866267,315.96169748393163,282.48813131196704,248.69326021688613,120.9681010844314
146.6576574925644,290.47575512087195,322.69482379722336,316.2020763429474,281.8725830702428,248.64477776247836,121.06126955140415
146.6170733331757,290.6781879496138,322.44021447265425,316.4853190809025,281.26046374342724,248.5940868039794,121.15404025980095
146.5801012230441,290.87460148879495,322.1799936622075,316.81508985610617,280.6532760292626,248.5406934299317,121.24594739101668
146.54691658818587,291.0643498258976,321.91540043215315,317.19481402661063,280.0524937573993,248.48408711088962,121.33653102462166
146.51770572586656,291.24686739570143,321.6476060669202,317.6277819611593,279.4595118855138,248.4237986786186,121.42530879311516
146.49260779924703,291.42166657731116,321.3777152615612,318.11721565933,278.87570154490544,248.35945223404553,121.51181203348621
146.47167602784398,291.58827064129474,321.106835186261,318.66615565010704,278.30244731910454,248.29070903596576,121.59563589088184
146.4549181291694,291.74621751429146,320.83606505877145,319.27732903133915,277.7410752086451,248.21720598213895,121.67643299370876
146.44235445884453,291.8951270916206,320.5664216789745,319.95311363132197,277.1927944693966,248.1386014058502,121.75386967793047
146.43400886259798,292.0346962355895,320.29885241467804,320.69550285790115,276.65875108961546,248.05464372876858,121.82762092534347
146.42986183145857,292.16462910850703,320.0343206982202,321.5060706791694,276.14007342105884,247.96514023751087,121.89741553151218
146.42986283996478,292.2846382199574,319.7738056266571,322.3860612469679,275.6378099865783,247.86988858810585,121.9630587379725
146.43400594343163,292.3945080402944,319.5182223479295,323.3365224249642,275.1528781713279,247.76871395301973,122.02439133243293
146.44236733373947,292.4940867887285,319.2684194830691,324.3582668614483,274.6861237735231,247.66158599494094,122.08124295604507
146.45506316658611,292.58321754088854,319.02525058431195,325.45168915464365,274.2383688700088,247.54865335569016,122.1334498961027
146.47221151962748,292.661748168626,318.78956851774893,326.61667621817753,273.8103418004219,247.43016832888765,122.1809142169895
146.49395483231822,292.72961166091574,318.5621502458049,327.8526735149884,273.40260918469767,247.3064529491215,122.22361983493467
146.52047657918664,292.7868320112079,318.34370290883953,329.1587261657243,273.01562559653064,247.17796436093514,122.26158479693514
146.55196226310787,292.83345428121817,318.1349386103005,330.533413172398,272.64979357679937,247.04532657267202,122.29482269093563
146.5885738592127,292.86953814380485,317.9365656886131,331.97479845734983,272.30540935638135,246.90926524517357,122.3233690537859
146.6304878145656,292.8952184875615,317.74921358999563,333.48044353732985,271.98258202749605,246.77057347363706,122.34732810636928
146.67792193820256,292.91069992974366,317.57344869545784,335.04739265805887,271.6812611308512,246.6301732010117,122.36686545479296
146.7310919138441,292.9161876767401,317.4098650607082,336.6721485672663,271.4013140724281,246.48914374872476,122.38215743729408
146.79016745979843,292.91189139004695,317.25908448862043,338.3507680671068,271.1425133652688,246.34864928919166,122.39337257956744
146.855300624625,292.8980982911566,317.12166820255794,340.0790506844057,270.90446726599487,246.20989166430235,122.40070422105826
146.92667386970885,292.87517373009143,316.9981018771068,341.8526143920601,270.6866546635281,246.07415853395426,122.40438783821014
147.00448217968312,292.84348824956095,316.88886169052,343.66680128579594,270.4885706731556,245.9428442130553,122.404663965482
147.08887083929773,292.8034112948309,316.79440953209354,345.51662344180585,270.3097979207657,245.8173760691528,122.4017428551476
147.17992048774252,292.75537443296514,316.71511193070467,347.39687559328047,270.14992959700595,245.6991696985232,122.39582711568951
147.27769354958303,292.69986704646936,316.65123050704085,349.3022474096767,270.00850258982365,245.58967911929312,122.38715296730498
147.38225616272268,292.6373632568575,316.6029843161983,351.2273076204725,269.8850450016532,245.49041737173349,122.37598039480936
147.49363301284905,292.5683181585319,316.5705373923345,353.1664758334786,269.7791149281316,245.40287964740875,122.36254621021394
147.61176931350522,292.49323570537615,316.55391659468216,355.1140576280301,269.6902323116421,245.3284947260808,122.34705592547681
147.7365651628144,292.41266858086647,316.5530115704217,357.0642801322324,269.6178233514377,245.26867644714193,122.32972993373471
147.86792670286712,292.32714882758086,316.56765404941916,359.01132485052955,269.5612781878698,245.2248493101035,122.31083143231082
148.00575102090082,292.23720263003025,316.59762177994855,360.9493954514885,269.5200035331075,245.19837229588003,122.29063476495584
148.14987201905646,292.143460820858,316.64256647872986,362.8727650511166,269.4933673671288,245.19048522228255,122.26939333412412
148.30006074791658,292.04669107259025,316.70202197270976,364.775738024973,269.48065121872673,245.20235585608913,122.24736500220067
148.45608824995705,291.9477038418133,316.77549536189156,366.6526041743561,269.4811108450973,245.23510649440522,122.22485415352207
148.6177568066313,291.8473022657787,316.86248167428585,368.497689139504,269.4940299873364,245.2897431790125,122.20220007593444
148.78485486869607,291.74635501082116,316.9623905438031,370.305421504013,269.51866626349005,245.36710817442807,122.17972643312875
148.9571148329041,291.64583850281394,317.07453733033236,372.0702955405662,269.5542027825117,245.46793185655991,122.15772716617302
149.13424583770126,291.5467583764943,317.19821228158287,373.78680841871676,269.59980596470564,245.59286511220174,122.13650364298512
149.31598823794076,291.4500934826509,317.3326838777941,375.4495164389813,269.6546769982678,245.74241909701564,122.11638257174025
149.5021013903533,291.35685416836895,317.47712856436647,377.05315673717104,269.7179985022474,245.91693129142965,122.0976725135585
149.69230521332636,291.26811722470256,317.63063228266367,378.59268333181456,269.78889318753664,246.1166278152619,122.08061195717077
149.88626836842064,291.1849504991,317.79227058705857,380.063279213494,269.86649424909274,246.34166053533792,122.06537309197525
150.08365736780723,291.1083670800124,317.96111790859317,381.4605190633177,269.95000512241694,246.59204869038786,122.05210047115364
150.28416049412516,291.03939444814483,318.1361749183636,382.7806095280153,270.0386437359319,246.8676481287173,122.0409131845466
150.4874448436862,290.9791144537271,318.31636380146085,384.02052230295277,270.13159436015206,247.1682197239679,122.03185612698404
150.69312173140173,290.92858648668073,318.500606363352,385.17806239121586,270.2280752692553,247.49347201578144,122.02486320107438
150.90078620649132,290.88879795343786,318.6878378958422,386.25194790735657,270.3274004723186,247.8430036041313,122.01977719934726
151.11007400078608,290.8607298505144,318.876944584121,387.2417755627756,270.4289264652446,248.21626884344946,122.01638618120472
151.3206484099028,290.8453937630095,319.0667748227563,388.14782411776025,270.53200611525756,248.61264128719134,122.01441655745934
151.53214010078668,290.8437528957291,319.25623495191354,388.9709083258372,270.6360588504921,249.03145245054455,122.0134982276228
151.744134639217,290.85667102963777,319.4443109768635,389.71240458625664,270.7406323900919,249.47193224350383,122.01316613207104
151.95622225681575,290.8849778171819,319.62999724539077,390.37425119122554,270.8453404843417,249.93317322984075,122.01290704485224
152.16802267702403,290.9295080445264,319.81228694824233,390.95875788951747,270.9497902768621,250.41419296733505,122.01218743128474
152.37914392316665,290.9910265870983,319.9902461721998,391.4683715248166,271.0536117520406,250.9139734569148,122.01042547442604
152.58915042259923,291.07018016865516,320.1630241567622,391.90558675943834,271.15648928193156,251.43140304570895,122.00695602543287
152.7975969947189,291.16756357380393,320.3297858147261,392.27294462824636,271.2580964237286,251.96524169577418,122.00104846184887
153.00406445365797,291.2837600596604,320.4897142876198,392.5729691114769,271.35803837508246,252.51418584335335,121.99195924722457
153.2081279382045,291.41927036376654,320.64209078759427,392.8080573615033,271.45590155586643,253.07691237030747,121.97895154655342
153.4093101959151,291.5744721880342,320.7862975406759,392.98042798040694,271.55130272775614,253.65202468734665,121.96126665682276
153.60710823675709,291.74969470782156,320.92173755003523,393.0921054467672,271.6438312733503,254.23802195784683,121.93810474244877
153.8010687348105,291.94526205404816,321.04784331091753,393.1448527650675,271.7329882160913,254.8333694053453,121.90865446905129
153.9908080239729,292.1614153904464,321.1641993615001,393.1401226308393,271.81823572933365,255.43654748146764,121.87213228184689
154.17595438993897,292.3982567659653,321.27059634196667,393.0791984205356,271.89906370930487,256.04599930215187,121.82777620793696
154.35610663775466,292.65580864853564,321.36696896729393,392.9634797188804,271.97494902211616,256.6600964114577,121.77481052896302
154.5308765768984,292.93405289524793,321.453392631961,392.79468937957523,272.0452795171188,257.277203227363,121.71244381532368
154.69995482998388,293.2328614582469,321.53018690464916,392.5749868350473,272.1093776050175,257.8957217222185,121.63991024845228
154.86310522713632,293.55195704267487,321.59794980858385,392.3070936590832,272.1665831077656,258.5140371820649,121.55649410460282
155.02010326315838,293.8909877223587,321.6574726887848,391.99431449139735,272.2162549641812,259.1304847375794,121.46150255324379
155.1707133924957,294.249572015995,321.7097095608667,391.64033651059805,272.25769926308845,259.74341748790147,121.35423319338521
155.31472673909718,294.62722732156834,321.75585025565914,391.248987154753,272.29017213487606,260.35125619830467,121.2339923402763
155.45197825095659,295.02332571050937,321.7973196357981,390.824151060962,272.31298680595785,260.95243888418656,121.1001444097421
155.58230126374303,295.43716775509347,321.83563985183065,390.3697672022344,272.3255764712555,261.5453899540095,120.95212621156293
155.70549137598888,295.86803247055366,321.8723350045184,389.8897626059794,272.32745802834387,262.1285890566842,120.7894128185122
155.8213431877524,296.31511108927725,321.9089728904497,389.38802199968626,272.3182314891318,262.7006188239384,120.61149555353927
155.92970483990953,296.7774651032723,321.94718469891455,388.8685098272209,272.29766528691084,263.26011247215916,120.41791588813003
156.03046470905218,297.254101264163,321.98855903323994,388.33536378243815,272.2657301883824,263.8057254020276,120.20831468869339
156.12348971680998,297.74402301402347,322.0345628962153,387.79279225217516,272.222531432554,264.33621233504175,119.98243360175105
156.20860718773415,298.24616462086203,322.08659944965365,387.24494015944106,272.1682819240475,264.85048261883816,119.74008079103184
156.28565050809513,298.7593472964587,322.1460522379786,386.6958876529071,272.10337641448564,265.34754376757763,119.48112770097516
156.35448673562428,299.2823505722293,322.2142020824344,386.14965033702737,272.0284266269141,265.82645180842036,119.20555022628854
156.41497901935006,299.81396067873953,322.29216613948125,385.6100367908649,271.94419648673585,266.28635618488937,118.91345167655221
156.46695201051665,300.35290391432494,322.3809741489019,385.0804809207188,271.8515764505403,266.72652770874015,118.60502933072955
156.51022725321576,300.89780536576137,322.48162888829734,384.5640075658089,271.7516526863621,267.1462898047642,118.28053187199714
156.54467932729298,301.44726721317517,322.5950275746581,384.06325404873456,271.6457274943975,267.5449688409926,117.94026828989192
156.5702284214907,301.999925810472,322.72188876170395,383.58039438259794,271.53523255636213,267.9219462358655,117.58465178289038
156.58678721951685,302.55439136947064,322.86280659622554,383.1170172296424,271.4216780351402,268.2766971096174,117.21421026831857
156.5942533645049,303.10920901245163,323.01829592566645,382.6741166886531,271.3067011217117,268.6087317989387,116.82954617274775
156.59256512871812,303.66293567784663,323.18871631101837,382.2521794430181,271.1920768963748,268.917556610428,116.43130567459285
156.58173277543813,304.2141939680768,323.3742175730284,381.8512022506888,271.0796292596778,269.20273886037893,116.02020351664068
156.56179747719193,304.7616088930422,323.5748191440541,381.4706226340487,270.9711785892757,269.4639570108425,115.5970643308509
156.5327942249492,305.30376678695563,323.7904746875385,381.10935264308085,270.86858871003386,269.70094359101813,115.1628159097068
156.49479432942658,305.83929142378196,324.0210027377477,380.76598375463215,270.77377631088973,269.9134324475664,114.71844269988712
156.44797430400797,306.36689802468743,324.2660285107472,380.4389774872206,270.688616724286,270.10120145746566,114.26496496268221
156.3926131530368,306.8853276569694,324.5250576345845,380.12676031393823,270.6148799389649,270.26410640895614,113.80346259017021
156.32903035714355,307.39329880129696,324.79754062307074,379.8278672902448,270.55426676913055,270.40202363845003,113.33508704798808
156.25756301635096,307.8895737712939,325.08280812306725,379.5411277670661,270.5084194438678,270.5148093886963,112.86102282355591
156.178607134113,308.3730062847025,325.3800163976865,379.26570653438716,270.478844394405,270.6023566920796,112.38244265983602
156.0926377406133,308.84247680191646,325.6882228179556,379.001025225347,270.4668784109199,270.6646384912427,111.90051573973133
156.00016215551753,309.2968518433928,326.0064518594835,378.74674658569535,270.47375926009045,270.7016549117795,111.4164500873593
155.90168038672095,309.7350599100843,326.3336315118286,378.5027881346909,270.50066188632366,270.71339746270365,110.93149787881599
155.79771038856532,310.156145186653,326.66854082111314,378.2692106745007,270.5486319845781,270.69991339528565,110.44690592759457
155.68881472806257,310.5592038193823,327.00989015764804,378.0460448240426,270.618552552813,270.661355036216,109.96387357196683
155.57556139837155,310.94334056106067,327.3563932919488,377.833253522432,270.71121075907985,270.5979253266006,109.48356757220087
155.45847136791485,311.30774098208485,327.70670783661666,377.6308250398089,270.82732871400276,270.509830417127,109.00715820301723
155.3380389771736,311.65172065604855,328.05938315456643,377.4387936082632,270.9674858973918,270.3973296960599,108.53581265264695
155.21480005124033,311.97465645239805,328.4129390451416,377.2571468295699,271.1320628263986,270.26077775181665,108.07065351665732
155.08934629659663,312.2759426210962,328.76593721894113,377.08581198695066,271.3212802666087,270.1005710622456,107.61274707285433
154.96226344538866,312.5550705099878,329.11692205294764,376.9247725511239,271.53521393806756,269.9171047476723,107.163136649585
154.83408312055084,312.8116878836433,329.4643653235418,376.77412025183247,271.7737157484886,269.71082425919303,106.72286032516831
154.70531582637798,313.0455330640109,329.8067355135581,376.6339935415784,272.0363662485249,269.48226449116936,106.29291460290908
154.57650866959114,313.2563810527895,330.1425591889418,376.5046177928021,272.322534927337,269.23199242460976,105.8742109240384
154.4482349953082,313.44410392397185,330.4703588190385,376.38649803319737,272.6314276466911,268.96056448224664,105.4675867159499
154.32103076475192,313.6087127149577,330.78860357701643,376.2805163197112,272.9620487593982,268.6685855792161,105.07385509168603
154.19537458101348,313.75028453326485,331.09579152765286,376.1878421483013,273.313201056532,268.3567574552286,104.69382088520119
154.0717351315584,313.86891013106884,331.39052741916385,376.10985190751916,273.68358559366186,268.0258237483303,104.32824046890997
153.95059915016623,313.9647577881421,331.6714783694621,376.04812141634346,274.0718652486093,267.67651957394145,103.9777846132662
153.8324278526438,314.03811759529754,331.9373427749162,376.00433704325815,274.47662684169416,267.309618253458,103.64305354496045
153.7176123723141,314.08932920856074,332.18694198480506,375.98011119979844,274.89637457764513,266.92597155356833,103.32461041070847
153.60650110647666,314.11872607060604,332.41928807708405,375.97687985724775,275.32961291594125,266.52645690733834,103.02297299336648
153.49945225383024,314.1266915296878,332.63351179293926,375.9959230988351,275.7748826857753,266.1119399029095,102.73857166177835
153.39682350805148,314.1136959809792,332.82879600511205,376.0383438311139,276.23068979539187,265.68333705140026,102.47173526821688
153.29891185780795,314.08022193471544,333.00443778181454,376.1049420924601,276.6954671862673,265.24166429029,102.22272103146994
153.20593542143448,314.0267096768181,333.1599044231618,376.1961163521727,277.16764594616376,264.78798174492766,101.99173178094644
153.11808056993436,313.953619148708,333.29476621647956,376.31184546898317,277.64570465164024,264.3233486734808,101.77888282438643
153.03553071483077,313.8614763006766,333.4086513990614,376.45164467949763,278.1281221101064,263.8488797972239,101.58416154374717
152.95842601278028,313.7508066575342,333.5013507570646,376.614466395667,278.61336181580805,263.3657897211783,101.40743835160148
152.88682457753322,313.62208577297883,333.57291533262344,376.7986624965911,279.0999543735614,262.87532964055515,101.24851474332816
152.82074000662925,313.47580252887144,333.62360043731223,377.00204409119465,279.5865400771588,262.3787245000693,101.1071416791306
152.76020779385027,313.31250508041063,333.6538026487041,377.2219197365464,280.07179964774457,261.8772088099479,100.98298911579498
152.70528597668633,313.13273469977,333.66413226681317,377.4550735623405,280.5544112316028,261.3720599721522,100.87562409256104
152.65599720445104,312.936981128034,333.6554797075442,377.69782025483056,281.0331135732183,260.8645354909403,100.78454273312072
152.61230488331793,312.72575621136866,333.6289553682015,377.94618740385624,281.50674505296615,260.3558162258116,100.70921949582876
152.5741515912438,312.4996500907749,333.58586685383415,378.19606079338064,281.9741814743325,259.847048340212,100.64911239441884
152.54148131657533,312.2592694555333,333.52785485888876,378.44319904822726,282.43430564544286,259.33938097150485,100.60363249683972
152.51419720577726,312.00519080871914,333.4569991673745,378.6832519064423,282.8860882204198,258.8339075113945,100.57213997441546
152.4921239323946,311.73802740066253,333.3757299625396,378.91186115087254,283.3286421070778,258.33161389319054,100.55398280144891
152.47504579459707,311.45847761880157,333.2866989891051,379.12472005453293,283.7611619105388,257.8334260394906,100.54852154369706
152.4627711858255,311.16726198042164,333.1927851689365,379.3175498657436,284.1828826724424,257.34025348063807,100.55510378004124
152.4551321355574,310.86508751968955,333.0971167443082,379.48615603548745,284.593147531381,256.85293741297664,100.57303324377996
152.45193356037564,310.552732063703,333.0029535694234,379.62660788078813,284.99144561967955,256.3722070166559,100.60159117642486
152.45294891121765,310.23110182216544,332.9135456311365,379.7353444207519,285.37731821453883,255.89873555336288,100.64009033807167
152.45798100106663,309.90115920499045,332.8321307718158,379.8091262025716,285.75026624291587,255.4331890627673,100.68789187855374
152.46689301292614,309.5638608541216,332.76196957574035,379.8450118191264,286.10977960210727,254.9761694526674,100.74436828661412
152.4795589271302,309.2202120149139,332.70624804735473,379.84044428078323,286.4553805422534,254.5281543615412,100.80887309112055
152.49581309658043,308.8713060881013,332.6679281016571,379.79329268640834,286.7865609432627,254.08954155255148,100.88076402958379
152.51547560401852,308.5182504078569,332.6497251492695,379.70179392769273,287.10270756758354,253.66071073847664,100.95944264654686
152.5384046431979,308.1621125208463,332.65417315330586,379.56457814367155,287.40314027175344,253.241985773806,101.0443491715113
152.5644867335615,307.80398525966996,332.68361190294564,379.3808361411775,287.6871838952504,252.83356039154773,101.13492422233807
152.59357770936597,307.4450327347544,332.74011790838557,379.1504106854929,287.9541371243239,252.43551124096575,101.2306024799105
152.6254858481527,307.0864136919394,332.82552023754073,378.87371925897963,288.2031935217968,252.04786472190426,101.33085208009904
152.66001952218718,306.72921630595636,332.9414620015938,378.5517077494707,288.43347358476484,251.67059368517823,101.43519806948763
152.69701518698878,306.3745094812926,333.08938034710656,378.1859205595515,288.64415710552805,251.30355634094516,101.54319029766597
152.7362947945102,306.0233820281979,333.2704749929967,377.77849538473106,288.83453974130566,250.94651686094377,101.65435956229655
152.77762419872658,305.67686871579514,333.4857699450704,377.33200237611015,289.00396586972346,250.59926810289608,101.76822143587975
152.82074965862537,305.33589268805974,333.73614495833925,376.8493259401598,289.15179852521874,250.261703731488,101.88431517733288
152.8654659050805,305.00132453013583,334.02221449060465,376.3336920972673,289.2775047454868,249.93377941673705,102.00221304288557
152.9116193642238,304.6740276046741,334.3441741004817,375.78865771624686,289.3807145131412,249.6154986385571,102.12148103062096
152.95905226885938,304.3547890165944,334.7017685716884,375.2179489684653,289.4611687001088,249.30698724138932,102.24164823356692
153.0075803517879,304.04426708381925,335.0943504151853,374.62531954527685,289.51869083315347,249.0085294206633,102.36223241805719
153.0570320799239,303.7430557824783,335.52094396812265,374.0145487849438,289.5532648137534,248.7205075098583,102.48278655599553
153.10727066756445,303.4517333515165,335.9803758048661,373.3894385141138,289.56507951723734,248.44337560250662,102.60290177561191
153.15815112662176,303.17079300491724,336.4715234525018,372.75371818014514,289.5544538545445,248.1777246200917,102.72217156003822
153.2094816702533,302.9005891970669,336.9935066919267,372.11099927043267,289.5217824369827,247.92430816767705,102.84018006953276
153.26105966586783,302.64140364848515,337.5457143330252,371.4648388256841,289.4675959859586,247.68397249717592,102.95653353130449
153.3127320608408,302.393499691975,338.1279307509563,370.81874132207514,289.39260301237294,247.4576258600003,103.07088004882468
153.36438869798877,302.15706095070107,338.7407217352495,370.1760175674759,289.2976165872028,247.24630728669655,103.1828799208477
153.41590176019938,301.93214413418957,339.38574008119383,369.53966501677326,289.1834904439073,247.05121486941832,103.2921673801351
153.46710790988985,301.71874827439643,340.065695336341,368.91237634906685,289.05115513483213,246.8736235073942,103.39836074591723
153.517858929136,301.5168696451357,340.7841763259788,368.29654612435024,288.9016369473756,246.71482205327888,103.50110773923403
153.56805370698504,301.32643965721695,341.5454572127422,367.6941974810828,288.735980937475,246.57613865901646,103.60010073303192
153.61759591566994,301.14727820942034,342.3541999315835,367.1069900394076,288.55520127136214,246.45893181665312,103.6950414470148
153.6663463554353,300.9791675317863,343.2151079009448,366.5363889784741,288.3603358166712,246.36448051251338,103.78561091376895
153.71414697657735,300.8219134340955,344.1327665393504,365.9837865034871,288.15247824365724,246.29390368174947,103.87149345685347
153.76087510409218,300.67528660435573,345.11172653980293,365.4504397641962,287.9327134135724,246.24819865459872,103.9524219917143
153.8064383329282,300.5389748584361,346.1565784768919,364.9374093415169,287.70209327410663,246.2282775506692,104.02818032036595
153.85071674467457,300.41265206526197,347.2718796980531,364.44564007831735,287.46173299178224,246.23489256631532,104.09856578316094
153.89354361093694,300.2960327841855,348.46206490234584,363.97602701805175,287.2128781596428,246.26854962364803,104.16337680640972
153.93475350420385,300.18880648841895,349.7313478820296,363.52935296258875,286.9568391314852,246.32952556149684,104.2224471215895
153.97421566370534,300.09058112929256,351.0834814128859,363.1062440047639,286.69492044503664,246.41791356265696,104.27566964816
154.0117954183098,300.00094384661645,352.52142754686594,362.7072238906068,286.42844585630354,246.53358162977207,104.3229701764806
154.04730890715138,299.9195132147706,354.04714239301796,362.3327253651182,286.1587680234384,246.67610454064757,104.36427667041971
154.08054900271384,299.8458783220603,355.661552703665,361.98300510435143,285.88718460719406,246.8448073996894,104.39953711912106
154.11134278232183,299.77955126798525,357.3645737813578,361.6581197207715,285.6148869888997,247.03889474151043,104.42875636566632
154.13954949632986,299.7200364535718,359.15502773298954,361.3580182807721,285.3430252425213,247.25750258386913,104.45199004302262
154.1650053907502,299.6668873003784,361.03056294567506,361.08257282347114,285.07275649064303,247.4996426418957,104.46930207724077
154.18750902239304,299.6196444604735,362.9877248840935,360.83144534779626,284.8051784850288,247.7641885577081,104.4807499291509
154.2068733619068,299.57778335648993,365.0220949206578,360.60394038705726,284.5412692736584,248.0499641086254,104.48641778363111
154.22295674216014,299.54077701833796,367.12832003516866,360.39898302129353,284.2819285597448,248.35579971145484,104.486440596286
154.2356199150452,299.5081474069284,369.30005402197776,360.2151417709825,284.02800497856634,248.6804893870452,104.48097877465098
154.24468530999886,299.47940014078233,371.5299628773235,360.0505698662749,283.7802170789251,249.02277427183103,104.47018846281782
154.24997534365568,299.45397085995035,373.8098136205326,359.9029269818375,283.5390822192877,249.38141910320607,104.45424007005956
154.25137801106635,299.43129055880934,376.13058531524166,359.76944475704045,283.30494732869283,249.75525466156427,104.43335537562382
154.2488440300685,299.41084317534177,378.48273020665584,359.64712271641395,283.07801822464194,250.14311787306153,104.40780126909992
154.24232757986275,299.3921092739597,380.8566977357905,359.5328477092578,282.85830928021807,250.54381602887094,104.37784721389198
154.23176734775836,299.37452325191236,383.24342226566876,359.4233721684394,282.6456258456133,250.95618705622607,104.34375097908611
154.21713453109152,299.3575477197276,385.6344459190811,359.3153605511198,282.4396519041698,251.37913463433884,104.30579124926066
154.19846284594672,299.34073278911274,388.02186212014493,359.2056099098848,282.2400140246974,251.81156781622477,104.26428833102925
154.17580559055602,299.32365213891376,390.39839412906446,359.0912293688474,282.0462347586416,252.25236373173271,104.21957330224855
154.1491882118025,299.30584483799316,392.7575153427235,358.96964252707625,281.85770561083086,252.7004213332608,104.17195203070956
154.118634828366,299.28687192138005,395.09340621119344,358.83860059181785,281.6737765161698,253.15468941171295,104.12171845501769
154.0842276932171,299.2663640746832,397.40084901034714,358.6963155502669,281.49383205667544,253.61410610584625,104.06918955471005
154.04610686131022,299.24395706852783,399.6752207651071,358.54151928181903,281.317250310304,254.0775710064107,104.01469928960242
154.00441410204704,299.21924274578504,401.91248258787704,358.37334088040745,281.14336834118865,254.5440123871966,103.95855480597892
153.95927203797646,299.1918400275195,404.1090077704216,358.1912052755589,280.97155530595734,255.01242448147164,103.90101869212927
153.91082747526713,299.16145469466295,406.26133541615303,357.9948951714967,280.80127026853216,255.48181004887093,103.84233978187918
153.8592782256429,299.1278186858358,408.3660952758446,357.7846053547424,280.63200843121257,255.95115581263386,103.78277646566306
153.80483028706422,299.09063759111325,410.4201713059809,357.5608556217833,280.4632655357484,256.4195078991143,103.72257216812521
153.7476545798879,299.04965544893895,412.4208992906789,357.32441039408405,280.2946197965702,256.8860163791371,103.66192878512702
153.68792114204675,299.00470944597544,414.36617803785816,357.07630428038414,280.1257955829392,257.34987400200185,103.60103256642527
153.6258655909555,298.9556666215496,416.2546044422442,356.81782282656036,279.95659898326363,257.8102741686989,103.54010216913133
153.5617906324589,298.9023698888257,418.0856131259031,356.5503519855173,279.7868511400021,258.26646457207295,103.47939082077977
153.49600660573833,298.8447006684067,419.8594771576259,356.2752549741642,279.61642882358365,258.71777816381274,103.41914363937947
153.42880399672092,298.7826307594846,421.5772812413856,355.99388329913876,279.44529928782515,259.16357056505564,103.35957597287505
153.3604882732962,298.716156804104,423.24100788307203,355.70758740216286,279.2734524244985,259.60318377733995,103.30089799610467
153.29139887147707,298.645245942463,424.8535423417367,355.4176409480587,279.1008478949057,260.03600541097717,103.24333234961667
153.22186085529373,298.56989988806083,426.41843851928587,355.12523273693256,278.92747386254695,260.46150123361394,103.1870862396173
153.15213583859176,298.49020806428456,427.93960425984557,354.83160831373016,278.7533956848573,260.8791516807223,103.13232288994337
153.0824475508225,298.4062809999387,429.4210326983811,354.5381672927073,278.5786965130683,261.28841848255223,103.07918526149157
153.01303986667844,298.31819181159926,430.8665239827091,354.2463816670356,278.403434543575,261.6888147438356,103.02784130035322
152.9441741696607,298.2260351411026,432.2794031817835,353.95770646853856,278.22771534350585,262.07995014594553,102.97848404946248
152.87606951562273,298.1299783952841,433.6623860927247,353.6736328608933,278.0517504710142,262.4614715830082,102.93128934067101
152.80887803670095,298.0301971544676,435.0176454885136,353.39573390770255,277.87579870445927,262.8330229252197,102.88639594748743
152.74272791298134,297.92681872028055,436.3468747521677,353.1255710127632,277.70011005692527,263.19430342785984,102.84393138937126
152.67775318951573,297.81998083276517,437.6512194738274,352.8646249888528,277.5249697028827,263.54510335948885,102.80402972941683
152.61405303059388,297.7098812446106,438.93127392593016,352.61438070749745,277.35072622638626,263.8852373538218,102.76680325475296
152.55164627108684,297.5967115455998,440.18726919684246,352.37639037874465,277.1777126919293,264.214494566586,102.73231264877022
152.49050031659158,297.4806018077516,441.4192232323452,352.15218276024103,277.00617520668374,264.5326857770031,102.70058795214855
152.4305941263356,297.36168488268737,442.6268839783541,351.94318614218724,276.8363051963414,264.83967427308346,102.67167085905689
152.37192151118316,297.24015295596297,443.80963444343314,351.75078783320464,276.66827173527946,265.1353168459046,102.64561395748677
152.31443861558952,297.1161938192461,444.96649838241586,351.5763660177607,276.5021648449093,265.4194298308101,102.62244090900116
152.25804940192145,296.98992988753685,446.09614048840257,351.4211796049244,276.33795968624105,265.6918501564081,102.60213424021943
152.20265995575792,296.8614707911764,447.19680845673355,351.2862843268083,276.17559195800914,265.9524709016031,102.58467435026064
152.1482178629191,296.7309601271652,448.2663454913058,351.17259996432875,276.015021081959,266.2011795738974,102.57007088399362
152.09467815351442,296.59851262037955,449.3022978596408,351.08097458409804,275.85617033251236,266.4378233029172,102.55834085295797
152.04196190336418,296.464165745922,450.30196604145243,351.0121261051432,275.698852130007,266.6622768058347,102.54947467924899
151.98998772124685,296.32794859082554,451.26238201651614,350.96660171411156,275.54279490300536,266.87448727241963,102.54344580711363
151.9387371082311,296.1899393135787,452.1803688565391,350.94485057208345,275.3876868121216,267.0744134645445,102.54024258135622
151.88825837085096,296.0502043424765,453.05267682414217,350.94725536332754,275.2331265344862,267.2619785272533,102.5398631601012
151.83860887865114,295.9087485593236,453.87601107799395,350.9740238963064,275.0785556550406,267.4371194796611,102.54227506522143
151.78982694291855,295.76558639183355,454.64694522712097,351.0251083031047,274.9232939966779,267.59982037,102.5474015888256
151.7419672342248,295.6208038964473,455.36192594481753,351.10027800378253,274.7666251827615,267.75005093689435,102.55515747712958
151.69512350645022,295.47449873862337,456.0174130507379,351.1991846587867,274.6077973423952,267.88772349629613,102.56547641619518
151.64938420454592,295.3267268992789,456.6099567298719,351.32127473014805,274.4459624858846,268.0127444591818,102.57828705618248
151.60478418494614,295.1775698298813,457.13614407797314,351.4657034783523,274.2802067453876,268.12504782857644,102.59348064140194
151.56132889950374,295.0271948439656,457.5926045844018,351.63141362082746,274.10968680927186,268.22453785350257,102.61092493081955
151.51905253614856,294.8757980913733,457.9761492995082,351.81724650699823,273.93371029483046,268.31105973765415,102.6305001055819
151.47801900903195,294.7235577325175,458.2838486187614,352.02190568326904,273.751702743127,268.38447397181227,102.65209633514567
151.43827057583093,294.570703750085,458.51295102130786,352.2438728643227,273.5631980330842,268.4447102109061,102.67557522170046
151.39981654778697,294.4175722535642,458.66082222258694,352.48147838751277,273.36790617515703,268.4917161319075,102.70075677320516
151.36268716348516,294.264538017636,458.72501500913825,352.733073264048,273.16573145901464,268.5254188218814,102.72745375088596
151.32696371169837,294.11196642689765,458.7033176077033,352.99708116664044,272.9566965035432,268.54578171013657,102.75549724142958
151.29273087935437,293.96029836978227,458.5936861321559,353.2719047936308,272.7409075635927,268.5528412352647,102.78471236768598
151.2600254958712,293.8101190914932,458.3942105839431,353.55585146755266,272.5186161536229,268.5466415224233,102.81488868251695
151.22886275612913,293.662081248892,458.10320102082505,353.84712047523453,272.29024700619885,268.52718405642855,102.84579945308045
151.1992978745828,293.51681557237487,457.71926159067795,354.14375148784137,272.0563397878108,268.4944786633186,102.8772427885674
151.1714265716602,293.3749569917064,457.2412990015187,354.443550539937,271.81753272735193,268.44858583426793,102.90904176986722
151.14532638591717,293.2371720374145,456.6685637412914,354.74415502740413,271.57463040752987,268.3895682120357,102.94100582481747
151.12103617419808,293.10407845289797,456.00068980107415,355.0432467148728,271.3286154964398,268.31745761877147,102.97291547207588
151.09860683612322,292.97617631284845,455.23760220687797,355.33868967497347,271.0805521641869,268.23231078702105,103.00455243565857
151.0781339753064,292.8538992322993,454.3793447809989,355.628502461892,270.83152723424564,268.13424333381494,103.03572144920105
151.0597119735098,292.7376643041852,453.4260192406944,355.9108386265925,270.58270323488944,268.02336924980983,103.06622467390375
151.04338065884548,292.6278100652845,452.37788257556434,356.18405092494254,270.3353437867109,267.89975087200634,103.09583257088575
151.02914544724277,292.5245419970502,451.2354286645586,356.44669570472644,270.0907236251635,267.7634290269699,103.12430685803356
151.01703031266658,292.4279935624124,449.99931879912003,356.6974412840049,269.8500562063434,267.6144375569368,103.15145000897432
151.00707238523628,292.33828114780255,448.67026812673464,356.9350311335851,269.61453929426966,267.4527427402086,103.17711376584029
150.99926223199074,292.255443967746,447.24904649679945,357.15833194456064,269.3853989200788,267.27821287957704,103.20116385638866
150.99352147112145,292.17939182078646,445.7365450190468,357.36631874172383,269.16382894943234,267.09068694148135,103.22346414418493
150.9897500392621,292.1099733441202,444.133778149637,357.55797852007424,268.9509489860005,266.89003323718543,103.24390467544785
150.9878615285908,292.04704249856263,442.44187416785263,357.7322964300996,268.7478967114108,266.67612352013094,103.26242048938572
150.9877465600072,291.99040236093,440.6621553150466,357.8883544281992,268.55592423529947,266.44884221127404,103.27896055206779
150.98922847145136,291.9397405529991,438.79620053145527,358.0253674732935,268.3763478603519,266.2082088407104,103.2934460456166
150.99209238352998,291.8946878548593,436.8457802482687,358.14260318455416,268.2104508666021,265.9544753441714,103.30577773843179
150.99615038717837,291.85490218599466,434.8128037200974,358.2393550925042,268.059500449151,265.6881022956162,103.31588302954242
151.00124811916632,291.82003573629873,432.6994062112958,358.31503591125875,267.9248180629907,265.4097331665897,103.32373548447504
151.00721375182377,291.7896577063871,430.5080271847655,358.3692244616474,267.8077417205152,265.1202439500635,103.32932053106968
151.01384268490088,291.76327820723236,428.24133075621023,358.4016012369377,267.7095089697457,264.82075456819035,103.33260168115434
151.0209468784694,291.74042620644616,425.9021010225607,358.411946301702,267.63124701733705,264.51253630688217,103.33354087152986
151.0283826773019,291.72063103916787,423.4932920846936,358.4002612219783,267.57410139966987,264.19693547203434,103.33214487365098
151.03600356221,291.7033263946572,421.0181531923057,358.3668316953398,267.53930666187097,263.8753940796534,103.32847050933592
151.04361124288556,291.68785111746786,418.48024198349475,358.31216482956694,267.52809756017916,263.54945823935094,103.32258459847671
151.05098551954526,291.6735852896967,415.88334085008916,358.23696359916977,267.5416056169581,263.22069875251657,103.3145412736404
151.05795084549945,291.66004101874546,413.23140650889604,358.1421766613674,267.5808497123703,262.89066616969774,103.30440488134923
151.06438240528215,291.64681502431415,410.5285346727965,358.0289621659833,267.6467247396226,262.56096121207224,103.29226878356758
151.07014955034148,291.63355347174013,407.7788563266037,357.89853413403625,267.7399065459799,262.2332811327969,103.27823010939959
151.07508846182526,291.62002320946414,404.9864342952202,357.7520534640663,267.8607630181224,261.90932389256193,103.26236189924231
151.07904183206492,291.60616515565465,402.15527553744687,357.59062082168043,268.00935343327984,261.5906557872171,103.24473629533945
151.08188958430463,291.5920736302075,399.2893961551484,357.415236034198,268.1854400794187,261.27868611007943,103.22547164180264
151.08351132983117,291.57801817334337,396.39279153256126,357.2266672311281,268.38844409161396,260.9747107738435,103.20473593251435
151.08374022998962,291.564509441503,393.4693426058696,357.02538157429746,268.61742435237585,260.6798949551258,103.18270558337576
151.08238436195631,291.5522622188352,390.52284126586244,356.811628651015,268.8711344848183,260.3952059793573,103.15954559080298
151.07927967549654,291.5420576972481,387.55716226497054,356.5855245615378,269.14806293256834,260.1214424570819,103.1354378211645
151.07428722304851,291.53468198264414,384.57638268286183,356.3470223399622,269.44640391415925,259.85937689811914,103.11060256385784
151.06723763993045,291.5309898529308,381.58474980574,356.09590308978414,269.7640844050178,259.6098439235863,103.08527029737854
151.0579121235506,291.5319299183321,378.58661200250555,355.8318812948348,270.09891859954377,259.3737195768209,103.05964593544098
151.04609325914095,291.5384552622959,375.58636461196954,355.55467197400816,270.44873456302884,259.15194359265354,103.0339225492977
151.03160615707466,291.5514748285727,372.5883366820107,355.2639195441137,270.81135118827865,258.94563086359216,103.00832154931868
151.0142868897719,291.5719312366628,369.5966451825563,354.9591469133338,271.1845323091344,258.75610711509785,102.98309278775045
150.99393615864358,291.6008538643333,366.6151827611822,354.6398458681345,271.56604414378756,258.5847999038093,102.95847054490395
150.9703381267881,291.63930388852805,363.6477785010678,354.3055619584701,271.95371530818477,258.43315828286256,102.9346494011682
150.9433146575953,291.68835386921836,360.6983160194624,353.955837726631,272.3453959551237,258.30272793839475,102.91180901688656
150.9127274486677,291.7491615905232,357.77065521831577,353.590150355276,272.7389271643987,258.19523740967287,102.89013615566004
150.87842634268338,291.8229849339328,354.8685125413406,353.208007181788,273.1322257265859,258.11252530101035,102.86980087137758
150.84023195382852,291.9110906696196,351.99550263518705,352.8090902134965,273.52336682431496,258.0563826851372,102.8509275383479
150.79798725344847,292.0147368691884,349.15527894868234,352.3932665104499,273.91055284257715,258.02845469841884,102.83361596965257
150.75159870450983,292.1352937367892,346.35156971937215,351.9605408453375,274.292082333946,258.0301780756076,102.81798694120694
150.70100540062654,292.27430583085726,343.58810235760416,351.5111218057856,274.6664264204222,258.06267052519826,102.80418479330255
150.64613857107298,292.43339516403825,340.8685876120178,351.0455217955099,275.0322929701669,258.12660650826723,102.79233464145068
150.58695192479516,292.61418233491787,338.1967814432154,350.56451688744124,275.3885661612165,258.22217596517055,102.78251841897082
150.52348486846225,292.818333737061,335.57647657095697,350.06904009405696,275.7342473572938,258.3491203750642,102.77479802475973
150.45586320822576,293.0475820781059,333.0114322040275,349.560188628294,276.0685302651861,258.5067529914369,102.76923523043699
150.38423560033053,293.30362957245154,330.5054059949912,349.039295540144,276.3908925103489,258.69396669193094,102.76586730204902
150.30873800091192,293.58808470490874,328.0622694240637,348.5078944735458,276.70104411503985,258.909320042299,102.76467807783419
150.22952654828717,293.9025134779647,325.6860188369562,347.9676166469948,276.9988155280001,259.1511642500534,102.76561788854666
150.1468057106925,294.24845764666907,323.38067761987185,347.4201829511389,277.2841591494863,259.41769090112365,102.76864812296755
150.06079204853273,294.6273603874281,321.15024840692337,346.86745279066554,277.55723316376225,259.70693933173516,102.773745131528
149.97167290038988,295.0405615216441,318.9987101419167,346.31137222227494,277.8184048981188,260.0168811927547,102.78085935922807
149.87963816501312,295.48940942434444,316.9299240923637,345.75386598613755,278.0681754934589,260.34552777693824,102.78989284928205
149.78494773105268,295.9753067317235,314.947477447435,345.19684263617,278.3071670204839,260.6909165058523,102.80072928248562
149.68793790734685,296.49962742562116,313.05463953199245,344.64227880490233,278.5361663127809,261.05098895151576,102.81327063711048
149.5889610823571,297.06366370549654,311.2544555002272,344.0922025963357,278.75609092202035,261.42351672726664,102.82742741376747
149.48834923547935,297.6686480660846,309.54979451137393,343.548580202829,278.96789372254943,261.80615223718564,102.84308616213622
149.38644427109512,298.31570450530614,307.9432705595732,343.01326335363245,279.17255728191066,262.19649549411054,102.86011729803359
149.28362438190075,299.0057046604177,306.43719678487514,342.4880011965624,279.37117409531317,262.5920813780794,102.87842339142513
149.1802657386452,299.73920373105017,305.03366551866975,341.9743923804558,279.5649535704962,262.9903862902052,102.89795975337054
149.0766974238892,300.51651495798427,303.73459786392334,341.4738037804285,279.75514159784876,263.38894298333844,102.91869666643424
148.9732307417385,301.3377555577039,302.5416779448109,340.9873807281859,279.94299709677483,263.7854416175194,102.94057932447481
148.8702286627624,302.2027883239212,301.4563383318819,340.51610200179533,280.1298348975797,264.1777322765069,102.9635428213435
148.76811574267043,303.1111956579583,300.4798726026103,340.06073108219937,280.31699802624547,264.563900687502,102.98755583088337
148.66731971241595,304.0623636502524,299.613493433156,339.6216979187747,280.5057623737104,264.94252730605825,103.01262542913689
148.56823805841563,305.0556451753334,298.8582527013248,339.1991094450443,280.69733504256004,265.31290543529576,103.03875749171183
148.47127311590435,306.0906002318929,298.2149806666065,338.7929302654156,280.89296518205106,265.6750244278068,103.06593528566725
148.37686042475863,307.1672170266374,297.68430283203924,338.4031165097664,281.0939953614992,266.0294771110199,103.0941451237533
148.28542835654224,308.28591198816355,297.26659629843385,338.0295745266536,281.30180743199406,266.37746347620697,103.12339678124859
148.19734879704257,309.44729891604004,296.9618684689705,337.6721046544776,281.5178025243676,266.72076899403714,103.15369498815721
148.11295711831448,310.6519608074202,296.76973175719377,337.33045236443456,281.7434348857879,267.061583303688,103.18500359460818
148.03260466765755,311.9003795443202,296.6895118564942,337.0043415380282,281.98016926876846,267.40227434243343,103.2172606163247
147.95665249016503,313.19290694260764,296.72029696362773,336.6934145006878,282.22937053638253,267.74527484180163,103.2504222403881
147.88540743831342,314.5296139961198,296.86084706274846,336.3972253100842,282.4922810140655,268.09303897370745,103.28446861088075
147.819091911161,315.9100804122155,297.1095353924457,336.11535048243223,282.7700957704467,268.44794266644567,103.3193654395554
147.75788334597698,317.3333143519613,297.4644148147443,335.84745047494425,283.06396675308656,268.8121538141548,103.35504414517068
147.70194661414874,318.79782964541437,297.92325384627884,335.5932087169593,283.37488436246434,269.18761343296796,103.39142972151838
147.6513995494067,320.30169844409505,298.4834561258184,335.35231363123347,283.7035939122088,269.57612990783497,103.4284652386622
147.60627262384963,321.842480303973,299.14202443212554,335.12455495425843,284.05063175130334,269.97944139456615,103.46608982860592
147.56654262256023,323.4171657854497,299.8956604545553,334.9098659790175,284.41635138707386,270.39922294694367,103.50421024698872
147.53220368110797,325.0222328644658,300.7408299366938,334.70824007821545,284.8008554855355,270.8371221495053,103.54272174559502
147.50327804519847,326.653704815038,301.6736808534885,334.5196948054997,285.2039556863935,271.2947626329174,103.58155461066126
147.47976022546476,328.3071664160737,302.6899718954221,334.3443624478303,285.62523641419926,271.77361082618444,103.62067918822892
147.461585928922,329.9778832137806,303.7851340930632,334.18253486628,286.0640997991147,272.2747941145733,103.66006336753972
147.4486674416457,331.66102992919775,304.95433057829,334.03457325794074,286.5197262442781,272.79904088526655,103.69964631339536
147.4409226670267,333.35181625272867,306.1924068760062,333.9008406314914,286.99108150387667,273.34674844584515,103.73936534954532
147.43823809604325,335.04544938601686,307.49387536659157,333.7817463051252,287.47702708848635,273.91804111692704,103.77919027296468
147.44042431648032,336.737114076143,308.85303917636264,333.6777593951826,287.9763832200164,274.5127981541815,103.81910880662744
147.44724265676686,338.422045881938,310.2640939177123,333.5893168105266,288.4878706805841,275.13075505753505,103.85908555334446
147.45846888301625,340.09554942978804,311.72108628693593,333.5167840620792,289.01008131739957,275.77162667639345,103.89906072675828
147.47390111361548,341.75288673889884,313.2178904390057,333.46054911191135,289.54156347033637,276.43508646499123,103.93899343722104
147.49330811409652,343.38918037206355,314.7483282913765,333.4210761878614,290.0808814517349,277.1206289120412,103.97888220192584
