HandOpen,HandClose,Wrist Flexion,Wrist Extension,Supination,Pronation,Rest
161.33310031225733,343.2329875058879,353.73261843930914,322.70685737829257,287.3469114455011,266.48542036525185,102.93007372899234
161.429595946695,341.67990706213897,354.6574295644321,322.76458817353074,287.24628952352094,266.76220238358695,102.98810673005858
161.5289547202965,340.0775505610679,355.60099318464165,322.8163609922566,287.1363464668451,267.025137723116,103.04683884680472
161.63087425087716,338.42779786576995,356.56106118053424,322.8612236128303,287.0173657238373,267.27319451803214,103.10626376781858
161.73498119542273,336.7326049499498,357.5354480163113,322.8982858783302,286.88963386820546,267.5055586143668,103.16636116503035
161.84087567111794,334.9941562872052,358.5219455167004,322.92678420825735,286.75344342839765,267.7215717914976,103.22713296907811
161.94823579165973,333.2149661514335,359.51829650310145,322.94601813030346,286.6091529042554,267.92069008829384,103.28861421025074
162.05686156342287,331.3978661157215,360.52230125766124,322.95529596150277,286.4571742677963,268.1025309247134,103.35083120207885
162.16663034730954,329.546019236014,361.5318691539145,322.95400251154,286.29790794327323,268.26688895831205,103.41376110007664
162.2774595116236,327.6629859882866,362.544932277778,322.9416534286545,286.13175777402415,268.41365180484974,103.47734628569667
162.38932065212714,325.752703315133,363.5594036945364,322.9178263028496,285.9592044739393,268.5427467351017,103.54153607996169
162.50224157407723,323.81938607995227,364.57326598716645,322.8821077152463,285.78079720918123,268.6542043945507,103.60629072052393
162.61627734577286,321.86751930165246,365.5846118467388,322.8341682259548,285.5970747782427,268.7482132257132,103.67154444893345
162.73152575958787,319.9019460410729,366.59154637963763,322.7738238085903,285.4085552711657,268.82507582831005,103.73718993054793
162.8481981823081,317.92786643985744,367.5921198438067,322.7009656053276,285.2157923540499,268.88518299889915,103.80311181185144
162.96664364268824,315.9507150692455,368.58438321346176,322.6154925151877,285.0193681821162,268.9290738842651,103.86921579604724
163.08728245623192,313.97611487320603,369.5664125959536,322.51736370721073,284.8198269629798,268.95745835841063,103.93540709651947
163.2105385908483,312.009978833743,370.53622814622287,322.4066433720927,284.6176771605546,268.971139075389,104.00155775172942
163.33683499898606,310.05855975913494,371.4917750881861,322.2834268419766,284.413454560261,268.97096337511454,104.06752029578283
163.46658950880797,308.12834817155306,372.4310382273428,322.14777664263863,284.2077167388447,268.9578738289663,104.13316726136699
163.60015574450847,306.2260008528001,373.3521076071454,321.99977801373404,284.0009783662524,268.93293117259094,104.19839202453238
163.73777823737151,304.3583968273447,374.25312108137706,321.83958492352116,283.7937183826677,268.89723738914034,104.26306507979143
163.87963108710687,302.5326380697086,375.13227210214677,321.6673490197498,283.586448826175,268.8518729511447,104.32700822750327
164.0258720633974,300.75588553600414,375.9879508690214,321.4831645125931,283.37971153745735,268.7979127792157,104.39002315452198
164.17661820311875,299.0352051946008,376.81881364970616,321.2871390464921,283.17401073750347,268.73641895581534,104.45192913286178
164.3318759632296,297.37756157007885,377.62369755420343,321.07945592294766,282.9698137467161,268.6683666707058,104.5125537380734
164.49151592968832,295.7898454513645,378.4015846527726,320.8603147831256,282.7676116430298,268.5946198038724,104.57169798615698
164.65529505248017,294.2788453272355,379.1517093582567,320.6298832509547,282.56791034742577,268.51600127282626,104.62913973142687
164.82285527649506,292.85122851955805,379.8736094781122,320.38836940610486,282.3711635713275,268.43332698483755,104.6846788161777
164.99367899029275,291.51351612946667,380.5670128832907,320.13607903297634,282.17777758451746,268.34733921502584,104.73815902342574
165.16707710032142,290.27194586828017,381.2317425438456,319.87334534686903,281.9881745331508,268.2586689321482,104.7894352061058
165.3422630337654,289.1322730507164,381.8677521466203,319.60046836141777,281.8027825780619,268.167905215084,104.83833741364865
165.51844030920986,288.0996834083426,382.47513379231526,319.3177805868999,281.6219648453727,268.0756485078681,104.88468779455295
165.6948149199376,287.1788308472262,383.05400492647954,319.0257049602983,281.4460176633945,267.9824602304895,104.92834620130266
165.87057702935243,286.37381883738533,383.60443301678015,318.72468929575507,281.2752271847985,267.8888157693254,104.9692184037419
166.044940428344,285.68804824596907,384.1264830103019,318.4151529096731,281.10985718074085,267.79513761563385,105.00722006467008
166.21720595450356,285.12408547948075,384.6202265100817,318.09756217698,280.95008103821084,267.70180862640666,105.04225791005739
166.38675135924956,284.68367575986156,385.0856265911716,317.7724969904168,280.79598728813534,267.60910781848617,105.07425763182187
166.55295302966874,284.3677998120676,385.52246344550883,317.4405857001719,280.6476475555561,267.5171817930691,105.10318731431136
166.71514869360107,284.17662843146996,385.9304025192241,317.102440344413,280.5051170277047,267.42610949952564,105.12903235142998
166.8726915634379,284.10944460417585,386.3090514567229,316.75871197291985,280.36838026674576,267.3359386677047,105.15176153373046
167.02500531789983,284.16474746102597,386.6579040012785,316.4101370646388,280.23737731008885,267.2466279871473,105.17134083552817
167.1715531926924,284.3405488992652,386.976318841926,316.0574598688584,280.1120960763924,267.15802165679065,105.18777370198782
167.3117779942479,284.6345927814088,387.2636225692923,315.70136408412765,279.99258492407586,267.0699333615683,105.20110318556587
167.44510992878782,285.04436721737187,387.5191750392287,315.3425327976038,279.8788850019724,266.98221250124516,105.21137177266587
167.57102114496772,285.56709843512823,387.7423039696583,314.9817032979053,279.77102125974403,266.89471282817544,105.21860236028385
167.6890321294601,286.19982857864636,387.9322732349315,314.61959495699654,279.66905706127363,266.8072931293909,105.22282893250461
167.79866283967675,286.93942467735576,388.08838018674567,314.25684201779166,279.57308394759485,266.71992307753175,105.22412256446722
167.89942396924525,287.78246210776837,388.21001631468573,313.8940541457808,279.4831501018135,266.63274767395524,105.22256681681873
167.99088108177583,288.7251750078936,388.29659074524517,313.53187484921517,279.39925963124654,266.5460177400464,105.21822257869931
168.07269513160577,289.7635746047339,388.34747722142333,313.1709157776885,279.3214382178718,266.46001711694845,105.21113936645908
168.14457672158417,290.8935526724756,388.3620876721306,312.8116964968759,279.2497297700888,266.37508385640695,105.2013928343828
168.20624059746123,292.1108525334889,388.33992406538385,312.45471102366423,279.1841303099923,266.2916214392093,105.18908598924669
168.2574606451756,293.41105904545884,388.28052819104585,312.1004907653647,279.12461047202754,266.21002252672804,105.17431166567393
168.29817540259268,294.7896865738542,388.18350281066864,311.7495416535114,279.0712332003026,266.1306079748418,105.15714037840523
168.328516725357,296.2422148031745,388.04868280043075,311.4022839708359,279.0241939565895,266.05365295636267,105.13766038732652
168.34875403753117,297.76402967909434,387.8762451015422,311.05911557959166,278.9837367193569,265.9794010386527,105.11601049385294
168.35927069810535,299.3504563396867,387.66663335538743,310.72047117268676,278.95010987873525,265.90800824877175,105.09235509556898
168.3606135536599,300.99693872542895,387.4204804554432,310.38675913241497,278.9236363907021,265.8395357239144,105.06684204469774
168.3535131454164,302.6991423828608,387.138656721722,310.0583048233943,278.9047518248827,265.77405234282054,105.03960530928049
168.33881292490986,304.4528609484659,386.8222892437989,309.7354191938402,278.89392970712555,265.71170437439787,105.01079711816966
168.31739869665378,306.2539043335605,386.4726479614496,309.4184625512163,278.89163567629726,265.6526565741887,104.98058685200122
168.29020888268724,308.0980974155151,386.09105940137044,309.10778258780414,278.89839487666757,265.5970194166032,104.9491179077167
168.25825618629736,309.9812690434807,385.67895542074507,308.8036576895474,278.91483296095663,265.5448539453662,104.9164820959956
168.22257345825687,311.8991545879656,385.2379006155932,308.506369200503,278.94160304842706,265.49616724806106,104.88274878693376
168.18413056790504,313.8473370205451,384.76949336507306,308.2162708046246,278.9793337453999,265.4508406034289,104.84800588003783
168.14381968822195,315.8212820114507,384.27529566243084,307.93372684795423,279.02868365535306,265.40860116989404,104.81235484723113
168.10250010494937,317.81633763471655,383.7568948835575,307.659046570866,279.09036953158324,265.36910257190306,104.77587527318656
168.06100322484969,319.8276547703256,383.215942369703,307.3925401994816,279.1650881284605,265.3319864746115,104.73861930304577
168.02006102890536,321.8501647009699,382.6540680617006,307.1345724759456,279.2534684174428,265.29683796793205,104.70064375095525
167.98024164102952,323.87865756728,382.0728297607973,306.88549178704636,279.3561340643416,265.2631547940806,104.66202322484511
167.94197363389193,325.90782258723436,381.47379715119547,306.6455606969141,279.47373616088964,265.2304194907199,104.6228158328024
167.90561672614123,327.9322073000736,380.85860426311,306.4150094059481,279.60687102326676,265.1981589698411,104.58302940444882
167.87147356937268,329.94623313692284,380.22885966532857,306.1940870658235,279.75602156245975,265.16590111626067,104.54263955070054
167.83973218959005,331.94429820987443,379.5860743844556,305.9829880351082,279.9216120159716,265.13313057933453,104.50163417014187
167.81043799420084,333.9208082744785,378.9317218989528,305.78177490847503,280.10404230221866,265.09932327149625,104.46001889966993
167.7835430763796,335.87007204794116,378.2672808402718,305.5904304983417,280.3036147187644,265.0639651946663,104.41777542099295
167.75895298075417,337.78621587985845,377.5941525878534,305.40893176235215,280.5204888309032,265.02649873988025,104.37483310230176
167.73651769050485,339.66323873037453,376.9136014577062,305.23720009460897,280.75475261489817,264.98632047372524,104.33109499774928
167.71604134279747,341.4951024567793,376.22682196881516,305.07500609398284,281.0064719327608,264.94289914378004,104.2864809697114
167.69735325663999,343.27571984191945,375.5349851928359,304.921985512556,281.2756271105015,264.89586048079883,104.24092931308306
167.68034878278414,344.9989098421446,374.839162023318,304.77772698480356,281.5620723047145,264.8449203331102,104.19436650147551
167.66493799929663,346.6584650956266,374.14027603819363,304.64178065924654,281.86560703557586,264.78978651789845,104.14670426641516
167.65098508578842,348.2482897353211,373.4391905688015,304.5136089545427,282.18602364962027,264.7301617255423,104.09787394050238
167.63832880590408,349.7624666903642,372.7367717846866,304.3926246704606,282.52304225903265,264.6657744481578,104.0478410355891
167.62683933366628,351.19530425194137,372.03381396305355,304.27829407961286,282.8762683946144,264.5963275910722,103.9965701015987
167.61641354466667,352.54151272664814,371.3309803745371,304.17015119905176,283.24525981689106,264.5214281237129,103.94398849601542
167.60691744817265,353.7964269197701,370.6288758391274,304.0677358834529,283.6295675686613,264.44060903458944,103.89000301714
167.59816858113913,354.9560790038384,369.92810567783727,303.9706054079416,284.0286655547569,264.35339180654296,103.83454613771018
167.58997899891924,356.0172022660549,369.2292155553784,303.8784093207215,284.4419044846411,264.2592659673966,103.77758557764027
167.58217549174088,356.9773664779046,368.5326604454377,303.79088293125926,284.86857843887276,264.15761169659635,103.71908764743739
167.57454752189824,357.83514776917633,367.8388989587993,303.70777335303325,285.3079693451314,264.0477043320111,103.65899631731429
167.56679076851933,358.59009726950995,367.14845208553504,303.62884433546407,285.7592791436136,263.92881650165964,103.59726761443531
167.55852902331898,359.2425508106383,366.4618199556319,303.55394636903793,286.22158167796954,263.80027062591864,103.5339145650494
167.54938172147243,359.793500632952,365.7794152526941,303.4830066035584,286.6938847019213,263.66138215335815,103.46900234745834
167.538976295502,360.2445608619307,365.1016292374218,303.4159528902615,287.1751724591121,263.511438947523,103.40261042413108
167.52689187850012,360.59789129474797,364.428885016093,303.35271644624237,287.66434170810624,263.3498072443624,103.3348249657433
167.5126286067324,360.85607926328464,363.7615739540305,303.29329821444486,288.1601688916842,263.1760207743462,103.26577005892847
167.49565667260433,361.0220924440655,363.1000259271004,303.2377564013656,288.6614017485405,262.98973460675523,103.19561933415952
167.4754738665487,361.09925772612934,362.4446085946151,303.18613242401983,289.1668311222547,262.79066312040754,103.12455791678006
167.45159402356245,361.0911378282377,361.7957882606021,303.13845746754777,289.6752385355175,262.5786219461932,103.05274362261018
167.42351097302745,361.00136236705606,361.1540410900408,303.09481997049295,290.18535491623794,262.35357634880745,102.98032199120642
167.39071952842315,360.83357284289866,360.5197754655549,303.05535053025187,290.69593010462995,262.1155785280812,102.90747145184982
167.3527662903108,360.59146580142846,359.8933875030742,303.02014491963087,291.2057817757017,261.86467500931826,102.83441050312462
167.3092446532322,360.2787660277741,359.2753043022577,302.9892710601208,291.7137304347695,261.6009267871438,102.76135638925906
167.25974204423454,359.89909576963197,358.6658977938636,302.96284101688127,292.21855338056747,261.32450905645555,102.68849717728911
167.20383469904638,359.45589764983936,358.0654134170956,302.9410009796005,292.7190515763782,261.03574051557956,102.61601725200501
167.14115302705608,358.9524801658531,357.4740315409389,302.923857431483,293.214097987213,260.73503704803176,102.54413399413919
167.07142025864167,358.39204187127683,356.89191894936954,302.9114906606271,293.70257272362016,260.4229342030417,102.47308765673883
166.99440449333062,357.7775839729646,356.319151247178,302.90404053571046,294.183314091692,260.100193271617,102.40310104776658
166.9098604656142,357.1118524200546,355.75564741605325,302.9017084653406,294.65517997031435,259.7678303283695,102.33437201842003
166.81755183824856,356.3974284704295,355.2012373056991,302.90468177957933,295.11709271422484,259.42701511715813,102.26710708433237
166.7173221617003,355.6368383341678,354.65572442001417,302.9131320551833,295.5679754588942,259.078983896547,102.20153655502467
166.60910945025972,354.8325406508638,354.1188265604238,302.92728301539,296.00670766338015,258.7250507964052,102.13787961706697
166.49287988025884,353.98689057130764,353.5901316587386,302.9474012723415,296.43219308054597,258.36661286942393,102.07630778381954
166.36857056270915,353.1021957436879,353.0691806403279,302.97371825854276,296.84341446775,258.00507139811526,102.01696279875237
166.23611374359305,352.1807649294007,352.55553382088834,303.0064319677691,297.23938537740713,257.6417674286566,101.96000716944904
166.0954929210204,351.224886994663,352.0487068116807,303.0457799003073,297.6191272632056,257.27800804249716,101.9056374501333
165.94674003381905,350.2369101359543,351.54812067128165,303.0920319068627,297.98175689004387,256.91508307948794,101.85404653807434
165.78988443247167,349.2194853562819,351.05318245027956,303.1454074615482,298.32654464468146,256.55419063505065,101.80539728058041
165.62493854771563,348.1757273280987,350.56335270256744,303.2060678709737,298.6528495344236,256.19637599435856,101.75984817213349
165.4519311113632,347.10914568449243,350.07808498332554,303.2741828145008,298.9600685019483,255.84258209385646,101.71758698197523
165.2709094099905,346.0235466327407,349.5967820540659,303.3499240893452,299.24769943319313,255.49371340975392,101.67881484875376
165.08187777938636,344.9230546924645,349.11888297876686,303.4333869260096,299.5153856959011,255.15059853724685,101.64370158635408
164.88474370584234,343.81210350660047,348.64393119288115,303.52458402772857,299.7628437127946,254.81393226598743,101.61237855549484
164.67934444583813,342.6952876393771,348.1715010731173,303.6235114599464,299.98980570149445,254.48431657923732,101.58497777927468
164.46552041802937,341.5772315420502,347.70112985662615,303.73014369218384,300.1960786914231,254.16233257631703,101.56165407679643
164.2431386942792,340.46258617673107,347.23238378385514,303.84436322458464,300.3815911935083,253.84850923981378,101.5425566339541
164.01204447491165,339.35601283784,346.7649187379325,303.96597138030904,300.546328553282,253.5432229697603,101.52780029123635
163.77202197881974,338.26204251100825,346.2984075902931,304.0947734809481,300.6902841566441,253.24667778950058,101.51748397527147
163.5228305290745,337.184930753591,345.8324722820394,304.23058540416463,300.81352136178407,252.95899170169218,101.51172115536889
163.26427175185677,336.1286197876792,345.3667489617772,304.3731621938304,300.9162171425697,252.68024746443626,101.51062526709418
162.9962018814914,335.0967193637117,344.90095130191213,304.52219881763864,300.99859259714606,252.4104422591267,101.51426541154935
162.7184962968579,334.0924264779734,344.4348072786517,304.67740339039284,301.06085886421744,252.14946412197511,101.52265616154453
162.43105393605182,333.11847557853037,343.9680084684209,304.8384962457007,301.1032740496562,251.8971743961041,101.53579330334331
162.133860005476,332.1771785313774,343.50029720127884,305.00513592610264,301.12618436904035,251.6534712943209,101.5536758165399
161.82701992268323,331.2704432603293,343.03154481017896,305.17691714981913,301.12995534734756,251.41824293243755,101.57627724320959
161.51072072650632,330.39970204522933,342.5616853206913,305.3534396755316,301.11492225692905,251.1913264413614,101.60351108446727
161.1851995448521,329.5658640650046,342.09064410152416,305.53430521388077,301.08145584380384,250.97256824598927,101.63524696247424
160.8507864053133,328.7693784202721,341.61839579319314,305.7190447325072,301.0300133072848,250.76187525424862,101.67135835586338
160.50795783055733,328.0103023182573,341.1450190333828,305.9071200254119,300.9610789179592,250.5591638457707,101.71173446712939
160.1573110657351,327.2882853530653,340.67062011045056,306.0979979953116,300.87512808265325,250.3643174554507,101.75624215589002
159.7994841397277,326.60257415016514,340.19525616588555,306.29115193707594,300.77271052969763,250.17724684124448,101.80469791677211
159.43511511917117,325.9521158750817,339.71898438463467,306.4859898488207,300.6545108132715,249.99794098898542,101.85689233466861
159.06486261352674,325.3356357388998,339.24191119125896,306.6818580331041,300.5212794275695,249.82640989180302,101.91262799157789
158.6894167012273,324.7516068999377,338.76411653661626,306.8781230819434,300.3737704668068,249.66262293007318,101.97171325174709
158.30945685027098,324.1982507641386,338.2855775345221,307.0741831747288,300.21279616133756,249.50653900879587,102.03392638136725
157.92561794967992,323.6736539043826,337.8062267765606,307.2694019958866,300.0392702812153,249.35813375364805,102.099011774188
157.5385284239594,323.17585277929226,337.32603414461204,307.46311096576596,299.8541332605399,249.21733379448483,102.16671710599026
157.1488696472905,322.7027769485493,336.84496011702464,307.6546848335214,299.65828468487297,249.08395483364896,102.23681070953938
156.75737078090947,322.2521882035689,336.36286164419585,307.8435450128425,299.4526296666759,248.957746091253,102.30904594052309
156.36476094070545,321.8217594284083,335.8795147522878,308.0290869560328,299.2381175338278,248.8384554612343,102.3831209890121
155.97176465672624,321.4091980271469,335.39471111093724,308.2106800858592,299.01567060907405,248.7257963088101,102.45869045056207
155.5791448933659,321.0122738795863,334.90826731010236,308.38774688856796,298.7861266330019,248.61937823364033,102.53540910636579
155.18771391944418,320.6288501006396,334.41996867748867,308.559773324672,298.55029668538054,248.51874108444775,102.61294274301919
154.79828571674605,320.257050703081,333.9295994613565,308.7262441525216,298.30901250184365,248.42346769487295,102.69093198932175
154.41165039137428,319.8954169423203,333.43703456063497,308.88665189049755,298.06305866654134,248.33322114480055,102.76896574579537
154.02862410172466,319.5428571126324,332.9422381629316,309.04058385763665,297.813115239798,248.24768896073547,102.84660522296417
153.65009859851813,319.1984857203056,332.4451927094859,309.18773254993073,297.5598169430406,248.16658743406023,102.92342223048823
153.27701553102335,318.86156091357884,331.94591491668893,309.3278189488751,297.30380517781697,248.08976888903035,102.99899617082313
152.91032871673286,318.5315250092194,331.444540205307,309.46058216848223,297.0456668513185,248.01727877769324,103.07288335692598
152.55104585330088,318.2079976253778,330.9413182358621,309.5858500782917,296.7858810468575,247.94929803876184,103.14462024191386
152.20030860807483,317.8906842002996,330.43653287385337,309.7035432288406,296.5248765568872,247.886112346527,103.21377041081735
151.8593973453066,317.5793097378332,329.930503448098,309.81359888100883,296.2630800820579,247.8281770727952,103.27995323558517
151.52965077479053,317.2736062608838,329.42365903300623,309.91595801437364,296.0008574038266,247.77614338213704,103.34281721765898
151.21240695302583,316.9732544558037,328.9165319788493,310.01062412992536,295.73847539173187,247.73077488140805,103.40200412224752
150.90901765138094,316.67777349940667,328.4096786256346,310.0976533773664,295.476185463279,247.6928807831923,103.4571604078558
150.62085687717368,316.3865097848974,327.90367934612533,310.1770725288582,295.21429542816503,247.66333755203823,103.50797812261767
150.34926198222448,316.0987733545291,327.39920827244856,310.24887019660724,294.95312437539786,247.6430866925088,103.5542023661127
150.09547966795245,315.81394020648116,326.89702085071025,310.3130681895317,294.69297131618725,247.63304708000612,103.59559220795212
149.8606984649793,315.5314056260531,326.39787051875714,310.36972661310324,294.4341982088265,247.63406075844898,103.63189116002322
149.64611328894517,315.2505395499631,325.9025078756696,310.4188731205574,294.1772902338254,247.6469390640567,103.66284810072035
149.45291870165627,314.9707635447287,325.41175228681584,310.4605015151862,293.92278297922684,247.6724873198283,103.68825247259322
149.28224445408762,314.69161475470804,324.92648205885416,310.4946478529649,293.6711857925482,247.71143658328666,103.70792889630744
149.1351296857754,314.4126888715633,324.4475512001884,310.52139627893274,293.4230169408392,247.76440408576613,103.72170550651022
149.01255352946845,314.13359769769903,323.9757859421042,310.54080409377735,293.17883432804587,247.8319521857025,103.72941542506756
148.9154428471373,313.85404535028556,323.5120539727664,310.5528938479433,292.9391540988423,247.91461718022003,103.7309385164949
148.84461623108174,313.5738855822979,323.0572536187219,310.5577256235253,292.7043788592628,248.01282868082498,103.72622338234187
148.80072890807875,313.2930561246528,322.6122303759526,310.5554041580635,292.47485207710884,248.12684855806026,103.71525622327634
148.78428852918762,313.01152583268544,322.1777758887772,310.5460067748073,292.25092004229595,248.25682361517227,103.69802273705746
148.7957035981629,312.72935632741803,321.7547038476832,310.5295729431131,292.03286636070703,248.40283277859703,103.67451875751902
148.83527679599067,312.44674689657626,321.3438461900369,310.50616682895003,291.8208124265165,248.5648206180728,103.64479167007745
148.90315422075093,312.16397516928487,320.94597303789396,310.47587604178307,291.61473556057257,248.74251037250716,103.6089480779053
148.99932660301147,311.8813742987379,320.5617924908913,310.43874370188746,291.4145555191455,248.9354062822222,103.56711450732786
149.123695931804,311.59942620551,320.192027112477,310.39477784310105,291.22014049746156,249.14282421219013,103.5194112326557
149.2761051433347,311.3188100124876,319.8374097222084,310.3440401694906,291.03125131764915,249.36385409298597,103.4659815406312
149.45628413086533,311.04030357344175,319.498596310763,310.28665985972924,290.84755472951423,249.59730856059093,103.4070341426466
149.66379894009242,310.7646914057248,319.1761503116728,310.22276382701074,290.6686866206338,249.8417689377167,103.34283632882544
149.89807314196588,310.49279978124883,318.8706058835583,310.152488803772,290.49423643802965,250.09569023108372,103.27367063323942
150.1584217282461,310.225529971246,318.5824640517897,310.0760967730969,290.3236759245306,250.35743362859165,103.19982054194784
150.44402030899323,309.9637777407086,318.3121184363497,309.99401063345744,290.1563931314983,250.62523766156824,103.12160139575758
150.75384687791953,309.70836186123114,318.0598563639977,309.906710043296,289.9918440457996,250.8972633394093,103.0393789809606
151.086693844417,309.4600637686553,317.8259341492203,309.8146657408853,289.82963593484016,251.17171563710346,102.95353747394523
151.44125420730325,309.219655696719,317.6105758015507,309.71840997087173,289.6694702161102,251.44689181023787,102.8644390854479
151.81617438489454,308.9878225111625,317.4138948037266,309.6185888528052,289.51109817673074,251.72111807821153,102.77243180720174
152.21002362429385,308.76510316453164,317.2358928110362,309.5158914589409,289.35436818502205,251.9927111687326,102.67788896400363
152.6212653187995,308.55194530440053,317.0765396548416,309.41100048419526,289.1992345435018,252.26002941043933,102.58121590168086
153.04829458579886,308.3487462806535,316.93578076324013,309.3046675070507,289.0456596540243,252.52150546198274,102.48280843833226
153.48947793920877,308.155788151703,316.8134658825202,309.1977655596888,288.89354078077963,252.7756055328071,102.38302088098965
153.94312867940764,307.9731948001392,316.70935219747906,309.0912137902676,288.7427466596049,253.02082345338255,102.28218752461883
154.40747221711752,307.8010024912577,316.62318660713464,308.985920283935,288.5931490578051,253.25575787097895,102.1806606150923
154.88068369030617,307.6392112425554,316.55471252656355,308.88284775499454,288.44456668515346,253.47915405902648,102.07880472553721
155.36096547829578,307.48771922075525,316.5035956278634,308.78305626919735,288.2967519409241,253.68986213282835,101.97695861641583
155.846563613352,307.3462688200153,316.4694235844074,308.6876178890834,288.1495172796371,253.88684183968164,101.87542797201344
156.3357105127335,307.2145043841654,316.4517865956971,308.59754927915196,288.0028456708282,254.0692675877931,101.77452216219004
156.82658937543837,307.0920194136245,316.45028460189957,308.5138706299015,287.8568470364215,254.23658866704935,101.67457522339808
157.31737766477892,306.9783000782022,316.46445640621783,308.4376482533162,287.71169168945045,254.3884652022718,101.57591402265943
157.80630245542469,306.87269218917635,316.4937850146987,308.36991268212677,287.5676578130325,254.52470840434688,101.4788185381534
158.29162693816437,306.7744845833844,316.53778043583134,308.3115943923055,287.4251797849638,254.64531038569834,101.38353181641153
158.7716029584386,306.6829741564629,316.59598152455294,308.26358596996414,287.2847690438334,254.75045497936387,101.29030314085058
159.2444774514678,306.5974108257277,316.66787086924717,308.22678898965034,287.14691103699687,254.8404371357125,101.19939889954335
159.70855040715503,306.5169548088323,316.7528605433438,308.20203680731186,287.0120740365595,254.91560067510525,101.11106440127489
160.1621987462221,306.4407506887431,316.85036282858573,308.1900335096488,286.88075358759147,254.97636773921656,101.02549359962106
160.6038406808309,306.3679884365443,316.9597946227365,308.19141525060803,286.75341836501985,255.0232551497736,100.9428521485589
161.03192012791953,306.29784765111526,317.0805015466363,308.2067945349054,286.6304135148033,255.05681200460208,100.86331867872993
161.44495626790103,306.22945406808634,317.2117537394597,308.2366842133286,286.5119658294806,255.07759152524696,100.78708292307519
161.8415836454194,306.1619506298417,317.35282821249365,308.2814419764964,286.398264194832,255.08622158213578,100.71430891332287
162.22051827051763,306.09455371780416,317.50302340100257,308.3413389617314,286.28947132880904,255.08344663556792,100.64512652304397
162.58050412593468,306.0264938999907,317.6615882182796,308.4166109952467,286.18567669056137,255.0700607209496,100.57966689404674
162.92030613663513,305.9569743740871,317.8277181791141,308.5073870290107,286.0869245171571,255.0468483402171,100.51808321628488
163.23871646219416,305.8852498223314,318.0006349646661,308.61363677795424,285.993297286137,255.01461365289987,100.46051881628594
163.53451799692527,305.8106890662108,318.179597164457,308.73524543528094,285.90491549406937,254.97419385038455,100.4070666627792
163.80643142667168,305.7327140563099,318.36382772076985,308.87207294037904,285.8218761392038,254.9263904310953,100.35777949085512
164.0531177764735,305.6507495940494,318.5525126911493,309.0238873999484,285.7442706140709,254.8719275784491,100.31271567239962
164.27324082079573,305.5642912826696,318.74488644984,309.19031486617735,285.67225894814203,254.81150154088286,100.27195305316873
164.46550854080607,305.4729589121642,318.94024483871306,309.3709172140146,285.6060571895861,254.74580715836342,100.23555201182788
164.62864696349095,305.3764296900599,319.1378713692847,309.565255745232,285.545856632492,254.67547351036924,100.20352689300842
164.761369569605,305.2743866471557,319.3370524652286,309.77282575197296,285.4918223457008,254.60102162805552,100.17587166300909
164.86242412491856,305.16658985566676,319.53721207043515,309.99300127650235,285.44416497926204,254.5229160525254,100.15260148626189
164.93069308675598,305.0529334962807,319.73797611830065,310.22510518861236,285.4031360711354,254.4416000565118,100.13374858924077
164.9652440793304,304.9333777425421,319.9391127535538,310.4684680020262,285.3689328048774,254.3574397661493,100.11932358094045
164.96529797446343,304.8078921258361,320.1405284107913,310.7223616867068,285.34165800030985,254.27068259245524,100.10930641729612
164.93020301861702,304.6765239158678,320.34237299507083,310.9859449584887,285.3213705177857,254.18150264990882,100.10368137269334
164.85948492128043,304.5394568923702,320.54507369739156,311.2583339779018,285.3080970526527,254.0900261429642,100.10245707068563
164.75291334664925,304.39694642869813,320.7492444027245,311.5386626655965,285.3017803021348,253.9962544682556,100.10563414132334
164.61049482238104,304.24926016056065,320.9556519705323,311.82602005614507,285.30230859775816,253.8999851014961,100.11316537890347
164.43241849056642,304.0967321248472,321.16529387703264,312.1194018100274,285.3096519990682,253.80083682733104,100.12496725813176
164.21905458005946,303.9398021860775,321.37939977248794,312.41778757361817,285.3239307175211,253.69831345621307,100.1409664232716
163.97101549451241,303.7789386741721,321.59928426486675,312.7202051952821,285.3453523350708,253.5917913052772,100.16111323181293
163.68917973398396,303.6145749365681,321.8262405065044,313.0256694951086,285.3741627535794,253.48046666274112,100.18534445880036
163.3746391400514,303.4471615394232,322.0615842659697,313.3331335165045,285.4106739998702,253.36338817960043,100.21355325026738
163.0286605968989,303.2772048063879,322.30668308290245,313.6415627437824,285.4552462852435,253.23956847223684,100.24561159924293
162.65271669980902,303.10519436539965,322.562850932383,313.94999371788015,285.5081804768466,253.10803459960033,100.28140958495364
162.24850285388376,302.93155471248804,322.8312603658976,314.25746649689296,285.5696791235043,252.96777635665862,100.32085112749273
161.8178721811469,302.756719346338,323.11299118169063,314.5629703361219,285.63995868212874,252.8177222438752,100.36381513442771
161.3627527523491,302.58118580815375,323.4090688125998,314.8655160037836,285.71934122678186,252.65681301252647,100.41014449292989
160.88513389345283,302.40544213089026,323.7203749460356,315.16419673287675,285.808208386054,252.4840598906378,100.45967886830088
160.3870973277422,302.229895783069,324.04757484437164,315.45812236175857,285.9069796116589,252.29851060098008,100.51227461859068
159.87080445003423,302.05491427322784,324.391177548328,315.7463643546163,286.0162280917041,252.09922832671697,100.56777416821085
159.3384218832037,301.8808596684716,324.7515846023611,316.02802933535247,286.1367634899354,251.88535798603723,100.62596706046921
158.79206749595224,301.70802237321243,325.1290106115279,316.30232342795546,286.2695553444543,251.65617467664256,100.68659926042314
158.2338429517593,301.5365812909823,325.5234196625269,316.5684878200422,286.4156429038871,251.41104378398668,100.74941576405378
157.66589926585362,301.36668663313424,325.93459520238787,316.82574098171295,286.57614365883086,251.14940413329694,100.81417210732877
157.09043702323928,301.1985265677646,326.3621997394744,317.0733458447545,286.7522400615581,250.87084761590253,100.8805972806912
156.5096532662469,301.0322623609115,326.8057060683683,317.31066796683007,286.9450731695738,250.57517851536048,100.94836520518656
155.92573762920236,300.86796066486306,327.26434313962807,317.5371074690241,287.15568716028105,250.26236823084153,101.01712210016014
155.34093476067497,300.70564795888845,327.73717465371647,317.75203760595946,287.38509841869376,249.93251231302074,101.08653505376981
154.75756724724764,300.5453730477234,328.2231672789092,317.95486726131236,287.6343356152932,249.58587123463573,101.15629773002082
154.1779654776061,300.3871497921828,328.7211308956189,318.14509719297826,287.90436260758617,249.22289411832057,101.2260980027445
153.6043962123259,300.2308889865881,329.229674675178,318.3222568163988,288.1960166204305,248.84415090617787,101.29560993870102
153.039085413026,300.07646523678784,329.74729624523667,318.4858549500975,288.51003412650965,248.45027521247727,101.36452801883374
152.48428963330326,299.92382786961446,330.2724570336611,318.6354563109358,288.84704205169476,248.04199506377046,101.43258782993325
151.9423020693252,299.77298206238277,330.8035208376986,318.7707437633225,289.2074673302393,247.6201537420224,101.49953552026774
151.4153854072915,299.6238808623754,331.33869778678655,318.89144699405836,289.59151036022797,247.18563919627223,101.56508929298923
150.9057301170919,299.47641689236946,331.87611820489883,318.9972751060842,289.99924005537133,246.73931299225472,101.62895198458686
150.41547469842166,299.3305396020707,332.4139010057231,319.0879776438563,290.43065132308476,246.28202813969259,101.690859177079
149.94671055841388,299.18632079742804,332.9500980687119,319.16340278348406,290.88560361615237,245.8146579306626,101.75059383396922
149.5014342794594,299.0439024742609,333.48265375639716,319.2234285066372,291.3637913121453,245.33804400442682,101.80794814162148
149.08153076483114,298.9034781727851,334.0094984511223,319.26789353956696,291.8648287448278,244.85293696634903,101.86269181830308
148.68883251925644,298.765367724551,334.5286315868435,319.29664904971185,292.38830080093345,244.36003926635593,101.91459489664885
148.32515697570034,298.63003149646903,335.0380686289077,319.30960793779974,292.9337026588028,243.86009396200268,101.963469789125
147.99224705685202,298.49795728152117,335.5357933796434,319.3066803868061,293.50041639403656,243.3538856841942,102.00916996120766
147.69169608738446,298.3695856044334,336.0198417578235,319.28772930086353,294.0877869760643,242.84216838001504,102.05155196645946
147.4249532568932,298.24537845786944,336.48837770186435,319.2526592396681,294.69513797338976,242.32565587939482,102.09046322387704
147.19336649583448,298.12588184747193,336.93963549877884,319.2014951747645,295.32164578931923,241.8050984228398,102.12577228892134
146.9981635071552,298.01165752399135,337.37186677407243,319.1343249916532,295.9662221830308,241.2813127072658,102.15738641050821
146.8403790733879,297.90321404631453,337.7834166892759,319.0512428994777,296.6275242904404,240.7551096099835,102.18522087249819
146.7208259171002,297.8010587540124,338.17279090311894,318.95241924930065,297.3039910173395,240.22724268976154,102.20916486740622
146.6401349649472,297.70574660925024,338.53858918274216,318.83816280669134,297.9937815032248,239.69845797139553,102.22910230635392
146.59877790146888,297.617808453426,338.87944303206723,318.70885256660824,298.69469093426943,239.1695412735719,102.24496910876465
146.5970162535623,297.53767973986993,339.19408119695896,318.5648729413452,299.40419795022194,238.64128586223222,102.25677420940742
146.6348463127471,297.46574308196364,339.48138908549635,318.4066749336065,300.1196163248796,238.11448657580377,102.26456275686549
146.71202921236733,297.40236712217376,339.74034146312704,318.23483119599257,300.8381651264053,237.5900337050012,102.26838121754108
146.82817584050684,297.34783964704746,339.96994390363676,318.0499649149942,301.55690595030063,237.0689842446946,102.26829514527614
146.98277889105017,297.30232125025344,340.1693042786908,317.85268562497737,302.2727125228705,236.55251557904035,102.26442711695225
147.17517249634847,297.2659194467725,340.33769668646084,317.64365228392415,302.9823651959581,236.0418615618987,102.25695217685019
147.40450770079286,297.23874650455866,340.47449301365435,317.423630438818,303.6826330252898,235.53832052536856,102.24605686856817
147.66978292759197,297.2208481629406,340.57909891699535,317.1934201013847,304.3702439786584,235.04326255859746,102.23192557704577
147.9698604886071,297.2121287697364,340.6510216633727,316.9537837082382,305.0418713791734,234.55808786751206,102.21477159389977
148.3034234019764,297.21238665652425,340.68993573487495,316.7054980821573,305.6942351570566,234.08422882533472,102.19485521912871
148.66893567106408,297.221349626976,340.69561847090404,316.4494042806446,306.32419071734813,233.62322541947202,102.17244948333153
149.06467514278577,297.23861551739617,340.6678877996591,316.1863352171564,306.92870838931844,233.17674398853592,102.14779417580662
149.48879886385888,297.26362330885155,340.606669329082,315.91705296713053,307.5048638666297,232.74648348099805,102.12109573084463
149.93935533598182,297.2957511171388,340.51206172358656,315.6423198042019,308.04992267705376,232.33410031236994,102.09256226501917
150.4142520520312,297.33439855922654,340.3842730633214,315.36296796403053,308.56139124628913,231.9412329473374,102.06241184345741
150.91126625921612,297.37893970864405,340.22355840077233,315.0798319336562,309.0369445084606,231.56951680370486,102.03083410209737
151.4281167382545,297.4286809763603,340.03028470713764,314.793662998703,309.4743503933914,231.22050780815906,101.99795905379855
151.96250856904553,297.4829362012001,339.80499142832144,314.5051677448297,309.87149262956467,230.89561738185077,101.96388137410216
152.51210317727674,297.54108912639487,339.5483155764532,314.2150742185045,310.2263945931729,230.5961421857354,101.92870871285139
153.074489534454,297.60253572553484,339.2609079478642,313.9240828542847,310.5371615352574,230.3232890937971,101.89256862953512
153.64723210694143,297.66663780828907,338.9434829923323,313.6327781261472,310.8019478210754,230.0781088263973,101.85557389973638
154.2279453665521,297.7327962180787,338.5968954241423,313.34165357832615,311.01902670873176,229.86143539361981,101.81780740889694
154.8142986716101,297.80051146216624,338.2220920203784,313.051201120142,311.1868460265197,229.67392574969716,101.77934945225697
155.40396319707227,297.86932165436536,337.8200214670326,312.7619088873318,311.3039912696401,229.5161113544198,101.74029691928652
155.99460276824928,297.9387506612914,337.39166762330115,312.4741966959312,311.369171212312,229.3883742967886,101.70073799923917
156.5839371998714,298.00837909337514,336.93815549261217,312.18843834884797,311.3812947893219,229.2909497094967,101.66072326645937
157.16978533237705,298.077904313522,336.4607558055664,311.90504388588175,311.3395176698936,229.22403741556215,101.62028160675501
157.7500302166703,298.1470768713161,335.9608046951482,311.6244512923713,311.24319377424587,229.18788849742336,101.57945460435674
158.32258341247282,298.21565738034735,335.43969820579736,311.347050244215,311.0918664770775,229.1827553837502,101.53829203294238
158.8854285813612,298.2835137383141,334.89895272581145,311.07318876733325,310.8853725955841,229.2088199405994,101.49681540836916
159.43669341691495,298.3507036407689,334.34018476522857,310.80324678455514,310.6239126901869,229.26620388857825,101.45501287585621
159.97464967534933,298.41740236842253,333.7650306677708,310.5376304983865,310.3079926286821,229.35496964482942,101.41288334409134
160.4976485082977,298.483812807082,333.1751606470376,310.27670479926627,309.93836707897395,229.47502865587953,101.37046829571165
161.00409727973306,298.5501949140565,332.57236510496034,310.02080857354434,309.5160772222362,229.62605183829703,101.3278289333387
161.4925210178812,298.61689879716596,331.9585486224594,309.7703318396542,309.04246176039373,229.8074806532652,101.28501564939097
161.96162030741982,298.6842870231697,331.3356437815068,309.5257054434811,308.5190601891879,230.01856770866831,101.24208538668545
162.41025960418528,298.7526668439661,330.70560636932646,309.2873207383871,307.94753914703205,230.2583445837416,101.19913907673762
162.83745083839878,298.82234100362433,330.070483329461,309.055527318503,307.3297348379234,230.52557104184612,101.15631680680568
163.24238519847611,298.8936508463278,329.43239587800554,308.8306955912367,306.6676888872559,230.81877316586062,101.11375474233597
163.62444612585512,298.9669006527001,328.7934459487746,308.61320359539303,305.96358953492216,231.1363293080033,101.0715660244983
163.98315298231674,299.04229161113506,328.15570258088354,308.4033677610387,305.21974266096754,231.47648003680598,101.02986676920261
164.31811063246306,299.1199810671338,327.52126320175506,308.20146104293934,304.4386509783323,231.837272446913,100.98879386394188
164.62904333564433,299.2001395706315,326.8922366117832,308.00779541899226,303.62305849568526,232.21657129760447,100.9484770146327
164.91585868892543,299.2828893601963,326.27065253282575,307.82271636400594,302.77586316203457,232.6121625216533,100.9090090204553
165.17863947769553,299.36825417548414,325.6584496859368,307.6465236421686,301.90002990019093,233.02181212402957,100.87046619801086
165.41757639732845,299.45623612121665,325.05753778028134,307.4794705332942,300.998609285956,233.44321369546657,100.83295069480909
165.63294552660034,299.5468823714455,324.46978099520044,307.32183427895825,300.0747517536711,233.87394766117936,100.7965911289575
165.82515430532922,299.640211995954,323.89690737388565,307.1739115058563,299.1316307790391,234.31154850863985,100.76150362721906
165.99475974360286,299.7361235177263,323.34050291934443,307.03594814102297,298.17238911693494,234.75358178659042,100.72777728991929
166.1424044647706,299.8344210498911,322.80209325774257,306.90814764049014,297.2001857987727,235.197618944635,100.69550788985931
166.26875090277687,299.9348698415307,322.28315180879815,306.79074164743275,296.2182200087314,235.6411814705746,100.66482361616899
166.37449675756125,300.03714846721385,321.78502426847535,306.68397614668675,295.22965320140236,236.08177713292912,100.63586051092385
166.46042516115236,300.14076989483175,321.30892224671305,306.5880305046075,294.2375642671581,236.51698852131972,100.60873138830507
166.5273918784719,300.24511561618465,320.85599017333675,306.50302090126,293.2450262204864,236.94448372771564,100.5835427975508
166.5762531388463,300.3495343894338,320.427296668441,306.4290758670773,292.2551617089671,237.36195113663797,100.56043369475512
166.60782601880084,300.4533535362775,320.0237557895653,306.36633324928,291.2710706903984,237.7670883206557,100.53957343224394
166.62291361384854,300.5558284794819,319.64613212503957,306.3148702532756,290.29576014799466,238.15767991216075,100.52112072541371
166.62231968640538,300.65617351014,319.2951239320755,306.27471688182914,289.33218226439845,238.5316416624913,100.50520389755513
166.60680125352084,300.75364794165,318.97136556200024,306.2459380353069,288.3832635629568,238.88697097709343,100.49194377228372
166.57702677693106,300.8475556929412,318.67534897994756,306.2286285415218,287.4518288692002,239.22172489811774,100.48146818679054
166.53361798643945,300.9371847789523,318.40742141294214,306.222830684167,286.5405325545678,239.53410658385567,100.47388000753283
166.47722823483767,301.0218293756108,318.16786179320763,306.228532537095,285.65188526109006,239.8225400301135,100.46921690181362
166.40855323909318,301.1008699607327,317.9568803541495,306.2457473377792,284.7882682233919,240.08562893869947,100.46745917775324
166.32827529074984,301.1737694085367,317.774537571989,306.27451879514484,283.9518573841579,240.32210531379528,100.46857460268374
166.2370399847354,301.2400079543907,317.6207381608046,306.3148468724628,283.14457363991926,240.53088016084467,100.4725356216695
166.13549781934825,301.29909870792363,317.4953070080768,306.3666835000852,282.3681408811983,240.71110580784523,100.47928599373824
166.0243247365458,301.3506619701677,317.3979938490001,306.4300014422338,281.624131318579,240.86213120455423,100.48871199166857
165.90416970530586,301.39441644211183,317.3283997506764,306.5047900337126,280.9139121269244,240.9834233158238,100.50067001742492
165.77560774486847,301.43010458074076,317.2859790550877,306.59098006055603,280.2386144443331,241.07459467855384,100.51503921860154
165.63917923145635,301.45748790442906,317.2701244075973,306.6884460863837,279.5992078358696,241.1355055979435,100.5317304649783
165.49546386950715,301.4763955322356,317.2801796700538,306.7970817333976,278.9965509018102,241.16628792336343,100.5506500461761
165.34508478268057,301.4867020833059,317.3153713516968,306.9167968235652,278.4313266910966,241.16727272152255,100.57168257363604
165.18864718416998,301.48826995096675,317.37481311244136,307.0474391487537,277.9039882752713,241.13896716378736,100.59471898658238
165.02671328180432,301.4809884915305,317.457591472791,307.1887906081646,277.41480989048443,241.08212809213904,100.61967686765492
164.85984674980978,301.464864634554,317.5627760809487,307.34063581081153,276.96392980092236,240.99779727669213,100.64647159321528
164.68863911121943,301.44001185778995,317.68934391515666,307.502757020178,276.55130129743765,240.88723690174487,100.67497766608103
164.51366114697265,301.4065632140995,317.836173613275,307.6748608354162,276.1766695406137,240.7518918454424,100.705039356566
164.33541328547307,301.3646565664579,318.00212406563503,307.85658416099,275.8396530825078,240.59344178763834,100.73651858285139
164.15435677663655,301.3144825251865,318.1860439829369,308.0475724304915,275.539802406362,240.41381844064009,100.76931234348746
163.97097979617018,301.2562646108051,318.38669767773536,308.2474778723493,275.2765439849603,240.21512206723253,100.80331599220553
163.78579783192848,301.19018984731224,318.60276104853017,308.4558795710641,275.04913356983496,239.99955612791925,100.83838765142526
163.59928942508333,301.11642349193005,318.832905243985,308.6722761826372,274.8567176566841,239.76944658962606,100.87436526691377
163.4118641182969,301.0351847322147,319.0758138588785,308.89615387049196,274.6983850688741,239.5272378480629,100.91110752552686
163.22390090203146,300.94674145439217,319.3301136767316,309.1269843657389,274.5731119091798,239.27541040563955,100.948495428399
163.03577800705898,300.8513434759269,319.5943708927076,309.36415498208476,274.4797195703039,239.01643376225945,100.98639535032599
162.84783323382396,300.7492346794462,319.8671712725888,309.6069779286703,274.4169423402521,238.7528083476421,101.02464509053021
162.6603176113622,300.6407238970728,320.1471325924582,309.85477482553057,274.3834863045613,238.48707852183313,101.06308509465106
162.47342276082196,300.5261759687867,320.4328331948188,310.1068824873054,274.37798730579135,238.22175972575906,101.10158131434359
162.2873444148755,300.4059474964302,320.72281085561,310.3625763682462,274.39898823444224,237.95929615408818,101.14000047758772
162.1022863093459,300.2804080097437,321.0156487880883,310.62106268982814,274.4450229171687,237.70210348055153,101.17818148984311
161.9184020680332,300.15001850770284,321.30999194327234,310.8815477062742,274.5146760360767,237.45257348965694,101.21595809678023
161.7357678445214,300.01532116114635,321.6044789260621,311.1432405326384,274.60652089027997,237.21297004593717,101.25320673844297
161.55442529895328,299.876865260969,321.897765099962,311.40528726055476,274.71906151527816,236.98533737992747,101.28985288002013
161.3744185654908,299.7352168406196,322.1886664117839,311.6667822565477,274.8507844146839,236.77152700928,101.32583368573793
161.195763388282,299.591029863479,322.4762313129927,311.92685464893424,275.00020345719366,236.57325465151337,101.36108068064155
161.01840981110263,299.4450313047993,322.75968347001617,312.1846776453306,275.1657974453471,236.3920633096744,101.39554854840303
160.84228020356417,299.29793978479785,323.0384174447983,312.43939846199993,275.3459559272325,236.2292494177998,101.42923650587828
160.66734306854684,299.1504660883136,323.3121049088648,312.6901402801792,275.53903247898506,236.08588854555248,101.46216082498042
160.49362222604856,299.0033795229652,323.580730358953,312.9360811431533,275.74339184519437,235.96293664643775,101.49432234456617
160.32114274950712,298.8574946140224,323.84449861672965,313.17646331919525,275.9573519302036,235.86125545092756,101.52572612207892
160.1499136934362,298.7135945727375,324.10379313641357,313.41053462541146,276.1791367038825,235.78153806622072,101.55642770654661
159.97998041745933,298.57243312340336,324.3592447885921,313.6375703894314,276.4069521812392,235.72427819258854,101.58653784905773
159.81145813973018,298.4347942791388,324.61174064623077,313.85696745021744,276.6390757452126,235.68984090066408,101.61618448591182
159.64449467166514,298.3014706301758,324.86232202365295,314.0682504652189,276.87382318880213,235.67850751839543,101.64549695448449
159.47923716638118,298.1731840109045,325.1121467014038,314.27098870275756,277.10947006084103,235.69042610300176,101.67463407168617
159.31585944113587,298.0505909540704,325.3625649265502,314.46477890802913,277.3442689479062,235.72559280480152,101.70379927648459
159.15458243581148,297.9343525335421,325.615120545104,314.64930404181007,277.57652371718024,235.78393796023445,101.7332027952474
158.9956274653853,297.825124170013,325.87140073942385,314.82432395494664,277.80458454311884,235.86538827955798,101.7630116967911
158.8391690597136,297.723480960848,326.1329180256997,314.98959533281044,278.0267803047778,235.96982312986555,101.79334866271054
158.68537010393587,297.62992254042973,326.40113738115093,315.1448699182852,278.241440056867,236.09704267126918,101.82433274005919
158.53445223964533,297.5449434800768,326.67749637453926,315.2899750708566,278.44702192503047,236.24682142918908,101.85609595947172
158.38669841059806,297.46902567889185,326.96330428687753,315.42482207927895,278.64218718416157,236.41893467907863,101.88874705229775
158.24239530797976,297.4025672238498,327.25966294739726,315.54933038953095,278.8257655811645,236.61309462780034,101.9223346325319
158.10181792845003,297.3458914977138,327.56751949469196,315.66341884643793,278.9967548903804,236.8289143569498,101.95686318252355
157.96528274084332,297.29932125767516,327.8877060490635,315.76707723131494,279.15440281423105,237.0659650133346,101.99233510345712
157.83317745146775,297.26317241603954,328.22085438998977,315.8603685162448,279.29822308335673,237.3238076826351,102.02875535187053
157.70591947238523,297.23768158487167,328.5673319008016,315.9433534913162,279.42788016796,237.60193055524564,102.0660973394346
157.58392146207984,297.2230141218066,328.92731363014235,316.0161044540333,279.5430884930394,237.89970801797352,102.10429011610692
157.46761791758135,297.21934089333433,329.3008441394386,316.078827990882,279.6436369317647,238.21645376086104,102.14324959430628
157.35748272469402,297.2268359884521,329.68777405009894,316.13190767101275,279.7294339540616,238.5514548510015,102.18290144972946
157.25397668904532,297.24560575458224,330.08772170534456,316.17580557006505,279.80044824873085,238.90391621920537,102.22315715521205
157.15748759150503,297.27569752541467,330.5001756493614,316.21100388671425,279.8566159612494,239.2729289784046,102.26388727666712
157.0683448635798,297.3171777378093,330.92457809300737,316.2380798990726,279.8978423275951,239.6575319951599,102.30494706740278
156.98687395356268,297.37013069946903,331.36026001267163,316.25775439697696,279.924053560243,240.05675068132751,102.34622670331443
156.91339546575915,297.4345871844976,331.8063776277715,316.2708141486079,279.93517186550315,240.46954251437162,102.38765734451182
156.8481681384813,297.5105274366453,332.261980079511,316.27806293651713,279.93104242161087,240.89476796407382,102.42917071397345
156.791369632041,297.59794650482655,332.72606860513395,316.28040216601073,279.9114625206813,241.33126104741723,102.47067629097668
156.7431456738831,297.69683971801953,333.1975253167613,316.27888364737106,279.8763183882629,241.77788050255268,102.51208241633508
156.70363846304417,297.8071228426926,333.6750542453175,316.27462509573775,279.82566033504065,242.23346682544192,102.55331076371961
156.67293713303533,297.9286299847073,334.15725970709485,316.26873465400325,279.7596663724489,242.69683065261458,102.59426438958178
156.65102754361578,298.06117708653534,334.6427207120276,316.26234953193847,279.6786464738752,243.16684983419384,102.6347869283112
156.63782793807763,298.20454952327617,335.12993326534274,316.2566630444101,279.5831389146458,243.64253769656457,102.67466964365308
156.63326472413624,298.35842531765513,335.6172573196699,316.25287621188403,279.4739441299186,244.12298819488527,102.71369557628367
156.637281763679,298.52237603894065,336.10299348443414,316.2522120407768,279.3520312763131,244.60732304747788,102.75165634167568
156.64978046305345,298.69593621138955,336.58545299050434,316.25601931322296,279.21846107888297,245.09473401579257,102.78831856449645
156.6705903284273,298.8785981800559,337.06289874535537,316.2657839834907,279.0744018517758,245.5845090363972,102.82339276544012
156.69950870679028,299.0697345328536,337.5334950005157,316.28299356693867,278.92111688732155,246.07596437261722,102.85655388038059
156.73632700937856,299.2685859873481,337.99538641383833,316.30903877599445,278.75985520649095,246.56839779759855,102.88748600174803
156.78078711119736,299.4743171649162,338.44676810230965,316.3452495460185,278.5917808392911,247.0611377886105,102.91589059388014
156.8325427961333,299.6860146762738,338.8858251730291,316.39291502232516,278.4180313676138,247.55357259403263,102.94145839040652
156.8912105726747,299.90264032237445,339.3106815750648,316.453188984318,278.23977016621774,248.0450836827774,102.96386565030727
156.95646033737142,300.1230703636469,339.71948391228847,316.5270270152001,278.0581162289561,248.53499998741577,102.98281637495677
157.02803305990992,300.34619511261786,340.11048066122044,316.6152569828564,277.87406700162643,249.0226516386562,102.99807320561948
157.1056789016626,300.57093023830214,340.48196680589655,316.718632612788,277.6885367698243,249.50740907208584,103.00943448956902
157.1891177322367,300.7961561132312,340.8322304003832,316.8377581114236,277.50241521144017,249.98862719408876,103.01670150608298
157.2780688869973,301.02073388133755,341.15963020404257,316.97302355357215,277.3165169618158,250.46560354032525,103.0196940224706
157.37227423431344,301.2435878344481,341.4626676333642,317.1246577517258,277.1314915233108,250.93762611898023,103.0182934921544
157.47145255346743,301.46370829719285,341.7399249468413,317.29276129135985,276.9478304940522,251.40400213071996,103.01244868976227
157.57524676697338,301.6800823963654,341.9900085302288,317.47722371175166,276.76593623226165,251.86399249211777,103.00213685531654
157.68324610577528,301.89169599168656,342.21162788886784,317.6776870019834,276.58611971989023,252.3167617164416,102.98734199084448
157.7950479797794,302.09760194338304,342.40367293695186,317.89367152433675,276.4085466000937,252.76142366738944,102.9680805640311
157.910263030672,302.2969170095323,342.5651523605929,318.1246901049399,276.23325993170715,253.19707955899,102.94442357844345
158.02845952077126,302.48875674669193,342.69511873630233,318.37020453181236,276.06026364125944,253.62277023944498,102.91647069430175
158.14914008612215,302.67224771920144,342.792722527613,318.629570161239,275.8895339940363,254.03744612861317,102.88431624436971
158.27178871916752,302.846605986243,342.85728685667766,318.9021013374689,275.72096931084735,254.44002913157703,102.84806257821224
158.39590780044864,303.0111390837826,342.88825239164294,319.1871292560587,275.5544077637804,254.82945965889482,102.8078576991188
158.5209827339361,303.1651795256804,342.8850746875929,319.4839461069553,275.3897016916762,255.2046559772259,102.76389406500807
158.64643690969538,303.30809234140094,342.8472414770509,319.7917765928488,275.2267190740527,255.56449676538398,102.71636659918822
158.77165925983118,303.43935019839967,342.7743717065387,320.1098776895059,275.0652848513106,255.90789908555553,102.66545149030318
158.89606828612048,303.5585312225145,342.6662305170847,320.4376069799256,274.905191475811,256.23387483776486,102.6113323997551
159.01911617412176,303.66523907573605,342.52266969343896,320.77434126832725,274.74626661923315,256.5414887410049,102.55422196398534
159.14023161699768,303.7590881215517,342.34364445957954,321.1193921012182,274.58837055008996,256.82983524278035,102.49433572243764
159.25879816401138,303.83976093175784,342.1292939425328,321.4720355589789,274.43133654570124,257.09811251436804,102.4318588141732
159.37420533512403,303.9070054496098,341.87993648112746,321.83152817429817,274.2749811051178,257.345674522154,102.36696126749915
159.48588594118547,303.9605729000777,341.5959990036144,322.1970184538994,274.11916906478035,257.57198009646135,102.2998406305397
159.5932763572873,304.000227586877,341.27803303133146,322.5675157168644,273.9638068472102,257.77655407295464,102.23072777339159
159.69577002265015,304.02581666653924,340.9267963409332,322.94202541920765,273.80877998898296,257.95904001809475,102.15985017279517
159.79275051167647,304.0372627485179,340.5432433055052,323.31966526677036,273.6539627468963,258.1192328465215,102.08741367255426
159.88366488838287,304.0344941292735,340.1284407944061,323.6996113453401,273.49928406169647,258.25701472294463,102.01363160505039
159.96803558770492,304.01745844099423,339.68356748219986,324.0810257199984,273.3447213282818,258.3723086780922,101.93874992597262
160.04540372832864,303.9862111477232,339.20998473205736,324.4631035783521,273.19023450473605,258.46513153710265,101.86302352849523
160.11529572914876,303.94092685103817,338.7092242890554,324.84511177469415,273.03576440264357,258.53563264834054,101.78668141374959
160.17725492593675,303.88183062967556,338.1829059137639,325.22631229321723,272.88128272639494,258.5840308689398,101.70993606280668
160.2308663869471,303.8091948298359,337.6327389896003,325.6059111068928,272.7267657954992,258.61055648589075,101.63301829536344
160.2757188689781,303.7234029348444,337.06059097723283,325.9831363732824,272.5720898203261,258.61548523089544,101.55617704751958
160.3113704603981,303.62493994135275,336.46846561691285,326.35729625608826,272.4169939660079,258.5991642289347,101.47964075298931
160.33740155210782,303.51431429020045,335.85840738654576,326.7277095342728,272.2611620888315,258.56195070161374,101.40360088524027
160.35350941796648,303.3920561889149,335.23249152419754,327.0936683419853,272.10428568333595,258.50416990086967,101.32824300964124
160.3595307190738,303.2587890871182,334.5928882679603,327.45454425166116,271.94603268315825,258.4261731709221,101.25377124330012
160.35538164026474,303.11522815362565,333.9418442025928,327.80986751530946,271.78604804271663,258.3283848789245,101.18038409714713
160.34101478191857,302.9621062336182,333.28158949839957,328.15925898628115,271.6240544453597,258.21124987482614,101.10824559078587
160.31644122397,302.8001718466846,332.6143273035466,328.5023857592002,271.45991399319297,258.07518745887467,101.03750827906268
160.28174806660732,302.6302578708834,331.9422988288869,328.839062522366,271.293570315062,257.92063989150057,100.96836212070961
160.23705301247597,302.45327634688124,331.2677685405143,329.1693227140439,271.125006790597,257.7481132342284,100.90104029637034
160.1824551927906,302.27014295389506,330.5929342915614,329.4933188383603,270.95430849913345,257.55812680309344,100.83577660502976
160.11806084828552,302.08177845909967,329.91991760966283,329.8112004873197,270.7817017376106,257.35117650453685,100.77277851170565
160.04404661430297,301.88918319258255,329.25083105934465,330.1231095495529,270.60748909284234,257.1277947648036,100.71225068915317
159.96066267532368,301.6934357871853,328.58776874464024,330.4291852000755,270.4320036244583,256.88859665744474,100.65442319345992
159.86817141894096,301.4956194538433,327.9327240409644,330.7294888176534,270.25565737450836,256.6342255905777,100.5995329318587
159.76681521040447,301.29681667596026,327.28759074239616,331.0239773404538,270.0789639554971,256.36530769877527,100.54778438475316
159.6568523797722,301.0981593760201,326.65424323484393,331.3126006592451,269.90247488767284,256.082502404615,100.49935124584691
159.53858526611782,300.90079639066715,326.03453414741375,331.59535962336986,269.72676113386467,255.786543193268,100.454416993489
159.41233263275046,300.705799267558,325.43020704789024,331.87221252491116,269.55249662464837,255.47818186335147,100.41318854989079
159.27841738700107,300.5141539979273,324.84288203938917,332.14298460475806,269.3804982984891,255.15813767107238,100.3758556207965
159.13721571765043,300.3268284837498,324.27411929066125,332.4074269024607,269.2116532718504,254.82713585047767,100.34255165658118
158.98919096940656,300.14476752345035,323.72540979378283,332.6653024875263,269.04687650019173,254.48593821943496,100.31337224822106
158.83486033937163,299.968817357089,323.19809485845155,332.9163406848689,268.88717453235637,254.13528672653516,100.28842222663404
158.67476831739535,299.7997248991289,322.6933681267484,333.1601472657456,268.7336774656223,253.77586278054994,100.2678212994779
158.5095193811051,299.63820977527223,322.2123567538943,333.3962221898725,268.58756595779045,253.40834455221625,100.2516617882906
158.33979840734528,299.4849637229276,321.7561222689541,333.6240178386594,268.4500291168466,253.03345465517853,100.23998396103896
158.16632820035696,299.34057895270547,321.3255795107741,333.84288221363704,268.3223204106462,252.65191242506603,100.23280790407418
157.98983689968662,299.2055521385733,320.92149251938747,334.0519128364002,268.2057679041419,252.2644033856728,100.2301761892606
157.8110870544362,299.08036352233034,320.54455194914686,334.24989192676173,268.1016541887709,251.87165465421086,100.23214784159069
157.630894060726,298.9654820224806,320.195377153664,334.435359597965,268.01110514428456,251.47449764051478,100.23876144967367
157.4500805467928,298.86129307369737,319.8744389317474,334.60670287920595,267.93511443756904,251.0738175933306,100.2500307575734
157.2694374676628,298.7680974159228,319.5820629131814,334.7622131260703,267.8746080561093,250.6704939150152,100.26597931432659
157.08974740726998,298.68618587028874,319.3185201899372,334.9002035408836,267.8304036768804,250.2654262906977,100.28665329975908
156.91180338307126,298.61584212754127,319.0840410913206,335.0191498591533,267.80312035271976,249.85955506134664,100.31208217506388
156.73637162451672,298.557269950022,318.8787365047002,335.1177028923744,267.79319888277365,249.45379551605703,100.34223754395539
156.56416857901266,298.5106048909542,318.70258305235706,335.1945991386657,267.80102000977257,249.04898526862289,100.37704562928481
156.39590247390208,298.47602473416424,318.55548769978003,335.24864869579,267.8269448399419,248.64592803111842,100.41643060184182
156.2323005991273,298.453782518628,318.43728289884945,335.2788309838222,267.8712350291104,248.24543175394874,100.4603222133682
156.07405712656882,298.44411736083305,318.34764395615247,335.284344630846,267.9340170004358,247.8482541466539,100.50861697011051
155.92177306362734,298.44721468366697,318.2860834522808,335.26457569195406,268.015366639934,247.45505888950365,100.5611527520978
155.7759790503872,298.4632850663148,318.25203493346555,335.21911724647555,268.1153687331344,247.066471701032,100.61773526199823
155.63720373940433,298.49260415980507,318.2448683592886,335.1478386256398,268.23406536530865,246.6831313516542,100.67817398371366
155.50598242441947,298.53543759574217,318.2638179935002,335.05085542678137,268.3714244367805,246.30564098500133,100.74227247079605
155.38279601369274,298.5920046714433,318.3079740281408,334.92841141128366,268.52740426415386,245.93451761038284,100.80979251900456
155.26803726288767,298.662560434701,318.37635577652634,334.78084722197787,268.70198200364814,245.57023121732234,100.8804529478542
155.16204784485944,298.7474404747294,318.4679204178978,334.60868533764705,268.895070533094,245.21323973976993,100.95396671708343
155.0651449183157,298.8469811090338,318.5814968968359,334.41267036122684,269.1064576683573,244.8639360818658,101.03005710667149
154.97757464042243,298.96146747220143,318.71579356201715,334.1937231493984,269.33585402311206,244.52260897898415,101.10842539220849
154.89946056183155,299.0912011589211,318.86948644619207,333.9529593633579,269.5829271023438,244.1895062208192,101.18871921537563
154.8308322695018,299.236539374151,319.0412337882463,333.69179410287575,269.847238605036,243.8648942113954,101.27055359500575
154.7716963516632,299.3978148942428,319.2296066233225,333.4119541362706,270.1282048291245,243.5490121929448,101.35355981236805
154.72204765567082,299.5752852674506,319.4330930354259,333.1153633480743,270.4251573421049,243.24201376184556,101.43739633599431
154.6818120043498,299.76920266714075,319.65019114195104,332.8040948696769,270.73738379163217,242.94399957257284,101.52171353563747
154.6508140755773,299.97985572822734,319.87943101276437,332.48045199709316,271.0640825494996,242.6550638167788,101.60613345525887
154.62881577081666,300.2074906633894,320.1193093971175,332.1469844329922,271.4043572031422,242.37525081519024,101.69028194096826
154.61555166294914,300.45225901826467,320.36831102393006,331.80635282767054,271.75730713124284,242.10448740966947,101.77382935765709
154.61069784789586,300.71428441547675,320.6250444837877,331.46124105225556,272.12207294069117,241.8426057678693,101.85648381446032
154.61383418782756,300.99370217629354,320.88830625644255,331.11444095181236,272.4977703384465,241.58941434885372,101.93795588218916
154.62448722497066,301.29058051483474,321.15701860495597,330.76892042755014,272.8834565639371,241.3446930952597,102.01795740296302
154.6422196773307,301.60486743408416,321.4302022584158,330.427722885524,273.27820813782876,241.10812583500916,102.09624046759704
154.6666562851398,301.9364527866075,321.70702730029336,330.0938587055129,273.68117206598413,240.8793041796023,102.17261443264502
154.6974274204405,302.2852034697719,321.9867974370826,329.77033429547606,274.09151280195914,240.65782621073998,102.24690892803105
154.73412930672714,302.65088554180556,322.26885340894313,329.46017879966354,274.5083888007142,240.4433475766006,102.31893256170565
154.77636474087936,303.03311738631174,322.55257144220246,329.16636619697124,274.9310262185723,240.2355176649633,102.38848221608991
154.823798427345,303.43144111904894,322.8374882577142,328.8918190129855,275.3587508669081,240.0339288684667,102.45538049044706
154.87614021534088,303.84536829003576,323.12335883776365,328.6395949912028,275.79091032694225,239.83817117800052,102.51947789670714
154.93308641355492,304.2743130183701,323.4100842868392,328.41300824788885,276.2268291067696,239.647884865384,102.58061378226509
154.99431405561637,304.71755505364183,323.69768857373174,328.2155206830276,276.6658762071469,239.4627162809285,102.63859884376787
155.05953420674504,305.1743157915681,323.9864052712364,328.0506329506152,277.1075078588345,239.28227619280955,102.69325486501921
155.12851084694333,305.6438018821421,324.27669957815573,327.921956130847,277.5512024022037,239.10619398100945,102.74446118070935
155.2010018748312,306.125133273241,324.5691709442893,327.83325925967034,277.99642025244873,238.9341682632939,102.792147402072
155.27670138812792,306.6173049210045,324.8645165678176,327.78833311332943,278.4426690074982,238.76591672702867,102.83625414857437
155.35526641574018,307.11927035512895,325.16361274620743,327.7909245871276,278.8895375651046,238.60111863802385,102.87672738249178
155.4363881769475,307.6299967107283,325.46753206640676,327.8449611239536,279.3366137233397,238.43945234455384,102.91355244467495
155.51980281155593,308.14839630541024,325.77743660763167,327.95479715748655,279.78341756609666,238.28064696991663,102.94676691382057
155.60522866600238,308.67328075646117,326.09453049386076,328.125150699596,280.22944214154967,238.12444022243236,102.97642219831663
155.69232845254356,309.20343435653234,326.42013632955815,328.3608486026447,280.6741814021613,237.97050610543562,103.0025429515994
155.78075756048102,309.73766550334494,326.7557141523141,328.6666514775211,281.1170648501052,237.81847259734792,103.0251378522952
155.8702294393035,310.274743091688,327.10275617579714,329.0471367041251,281.5574272291821,237.66799503396177,103.04423953649646
155.96050611440626,310.81336005444956,327.46273422251335,329.5064963829307,281.99459465492725,237.51875761707612,103.05990978218337
156.0513407313215,311.3522148619418,327.8371637218616,330.0483161398166,282.4279464993565,237.370403778405,103.07220024459457
156.14247065969272,311.890064966323,328.2276099632341,330.6754983995605,282.856852407229,237.222527010547,103.0811270416355
156.23367325393147,312.42565880112016,328.6355778233092,331.39029304984984,283.28061524746016,237.07475539569947,103.08669625417151
156.32479171389966,312.9576915115501,329.06246334918933,332.19425428784297,283.69852696353826,236.92680046977821,103.08893926220078
156.41569121739707,313.48487922221784,329.5096281908842,333.08815435180696,284.1099199047697,236.7784125480743,103.08790428445116
156.5062274097612,314.0060098996765,329.97841861054815,334.0721499529631,284.5141169032493,236.6293636250418,103.08362300718939
156.59628064474265,314.5198778175456,330.4700679483636,335.14626509294675,284.9103967137358,236.47952208877712,103.07611272628294
156.6857828766424,315.0252433754961,330.9856594124286,336.3108062843454,285.298060804744,236.32890007637494,103.06541854392279
156.77468090430457,315.52091065550167,331.52620666710226,337.56645673618425,285.67647893631084,236.17760778911116,103.05163399808372
156.8629058475152,316.00578042925565,332.0926715681799,338.9141851017237,286.0450327913969,236.02583274667734,103.03486780096603
156.95040525768687,316.4787876618203,332.6858567982334,340.35506704889644,286.40308789556536,235.87390638995998,103.01520413236737
157.03716876487638,316.9388675809311,333.3063527667543,341.8900450387246,286.75007511887014,235.7223370460261,102.99271119914779
157.1231906944522,317.38503910671926,333.9546087033604,343.5197906545205,287.0855445059971,235.57174682465865,102.96747807932397
157.2084376818205,317.81645650114154,334.63095843562945,345.2447271877539,287.4091022039648,235.42283572260217,102.93961738470169
157.29287958402907,318.2323351202412,335.33553749481825,347.0650031735732,287.72036367306094,235.2764378834107,102.90922560965922
157.3765180227018,318.63189850732704,336.0682633247592,348.9802651514241,288.01901375146167,235.13354750379546,102.8763598952677
157.45934558825314,319.01444553167386,336.8289363133066,350.9893511948368,288.30484274426715,234.99525133870787,102.84106600444545
157.54129225104668,319.37939716475967,337.6172790898794,353.0901108170657,288.57766029237337,234.86269391820477,102.80341416343623
157.6222454725918,319.7262287999445,338.43284780979,355.27939166554467,288.83720390841097,234.73713871372863,102.7634885414924
157.70211593396718,320.0544302856927,339.2749958631981,357.5530535867756,289.08314439160915,234.61999599726747,102.72134868207958
157.78084914408893,320.3635852690303,340.1429606923538,359.90593562237393,289.3150977600862,234.51275038005392,102.67702331157241
157.85836882267853,320.65342215118494,341.0358995490326,362.3318936897426,289.5325694328902,234.41691185146198,102.630544247989
157.9345429419362,320.9237402708209,341.95280712554046,364.8239581505242,289.73493591958453,234.3340545758613,102.58196328785546
158.0092192856554,321.1743569513957,342.89248871414253,367.3744819740661,289.92153111823706,234.2658231836705,102.53132117721844
158.08225852117732,321.405173765456,343.853653164813,369.975285819213,290.09170728721494,234.2138462175294,102.47861432789428
158.15350035347143,321.6162205239231,344.83494913431736,372.61794220713625,290.2447863039442,234.17968196002866,102.42381109817396
158.22271970402159,321.8075804248064,345.8348764295514,375.2941141180288,290.3800321165046,234.16486446827633,102.36689567112839
158.28965588043783,321.979337684483,346.85174801395965,377.9957281545598,290.4967354267864,234.17092722550817,102.30787680251913
158.35408188370408,322.13164489121965,347.8837771356191,380.71499432272566,290.59428030569137,234.19933412368067,102.24675337324764
158.41581451340988,322.26476929475666,348.9291204824575,383.44447095920975,290.67209871201806,234.25143486649984,102.18349702900909
158.47465726775917,322.3790209354851,349.98580442180275,386.1772072003878,290.72964248547225,234.32850841477182,102.11808971048013
158.53037093587713,322.4747044350372,351.0517020694071,388.90676075971555,290.7664660750836,234.43177531126392,102.05057131585126
158.58271691200545,322.55219058027234,352.1246305947738,391.62702836332244,290.7822888361665,234.56231549391057,101.9810374570951
158.63149641883345,322.61196383916405,353.2023976515405,394.33211317924776,290.77694328662386,234.7210124700085,101.90960337103645
158.67651690088732,322.65455315751683,354.2827296366592,397.01635452331516,290.75033670282727,234.9085943311284,101.83639768088335
158.71754223342765,322.68049348623975,355.3632595627645,399.67434721025876,290.70251355310046,235.12565775399221,101.76159644255364
158.75431703177392,322.6904061731474,356.4416441193463,402.30082649186727,290.63369176075406,235.37260659521468,101.68543904244467
158.7866404653781,322.68504269479047,357.51562509286117,404.89057406908137,290.54419029207696,235.64961735575665,101.60819319001624
158.81438502528485,322.6651953405532,358.58295414945763,407.4384646060935,290.4343807829112,235.9566958960756,101.53011536841166
158.8374376175451,322.6316267407574,359.6413583407347,409.9395068451236,290.3047516237763,236.29371030959814,101.4514604000666
158.8556564226661,322.5851231066784,360.6886295950624,412.3887711461462,290.1559518106227,236.66033567440886,101.3725189976483
158.86890829800447,322.52653209989893,361.72267020484804,414.7812940664301,289.98872012940745,237.05602513922364,101.29362003644768
158.87712480555936,322.4566864202127,362.7414191466835,417.11199249664264,289.8038291232349,237.4800698534592,101.21508905500339
158.88028939894102,322.37635163109115,363.742828990488,419.3755339747951,289.6021404659574,237.93163332771155,101.13722347641455
158.87838120237572,322.28629328001807,364.72496444245814,421.5662303319821,289.38464523200633,238.40969585148207,101.06032199830321
158.87136979270778,322.1873202159158,365.68604635219407,423.67806845909416,289.1523947158203,238.91301634463522,100.98472312566093
158.8592707915289,322.08020625930067,366.62436386702944,425.7048214393648,288.90645108845524,239.44017369050076,100.9107941070565
158.84217058213824,321.96563435219224,367.53822879552865,427.64008025037975,288.6479525260784,239.9895889211775,100.83888915990451
158.82018064665996,321.84426529417124,368.4260548995567,429.4772171302048,288.37815960350554,240.55947517219656,100.76934253015989
158.7934013148227,321.7167896974742,369.2863954336756,431.2094844790951,288.0983841481381,241.14781570118186,100.70250431726998
158.76194907674588,321.58386090875024,370.1178604721267,432.8303049653307,287.80993311976675,241.75242169938704,100.63875637722457
158.72597867994432,321.44604963845944,370.91908301174743,434.3335482982995,287.51416816887706,242.37096688257623,100.57847468075455
158.68564192559904,321.3039203199177,371.68881202706706,435.71370956130147,287.2125487730204,243.00094104265884,100.52198667718436
158.64105063970212,321.15808427795974,372.4259587881435,436.9660959300706,286.9065545161983,243.63961982224328,100.46958101356397
158.59231738578922,321.0091262938036,373.1295115299698,438.08695535520354,286.59761238591665,244.28411088151154,100.42155062330195
158.53961949181306,320.8575480222641,373.79848822581783,439.07339007891926,286.28713327960963,244.93138852622687,100.37820174812514
158.4831926273412,320.70383357684204,374.43201391517465,439.9231591720198,285.9765396159465,245.5782639013039,100.33981358391033
158.42327316402893,320.5484984461533,375.0293581457941,440.63461240051424,285.66718713207985,246.2213807473642,100.30660818355891
158.36008666318872,320.39202060838414,375.58985018006257,441.20677298617727,285.36030448652326,246.8572875137738,100.27877411941878
158.2938995226095,320.23479588376495,376.1128364648148,441.6393712803072,285.05705210054884,247.48248683179287,100.25650451202898
158.22504375941733,320.07721869582997,376.5977608243608,441.9327986764172,284.75857494148556,248.09339180775004,100.23998964072669
158.15387088855036,319.9197402624943,377.0442015965147,442.0881944879554,284.46594326934735,248.68627799093076,100.22937721894684
158.08071343329837,319.762794230371,377.45178584521597,442.10767930371577,284.1801049738612,249.25733384036448,100.22476157917518
158.00591453894572,319.6067337728171,377.8201497603631,441.99444420836767,283.9019537457073,249.8027615696665,100.22621171602313
157.92985940954284,319.45189509969504,378.14902831052996,441.7526008573025,283.6323864758221,250.31880782916153,100.23378210018585
157.85293763310037,319.2986511851515,378.4383035988386,441.38702911009165,283.3722421032588,250.8017206185849,100.24747581971631
157.77549145652077,319.14734402047605,378.68792432910584,440.90332568599524,283.1222421588458,251.24774685466525,100.26720581056955
157.6978397777207,318.99822847473445,378.89786470259617,440.3076923189753,282.8830372544782,251.65321194016312,100.29280810997051
157.62034983047957,318.8515339116436,379.06821137919303,439.6067230696704,282.65524503056616,252.01458208985338,100.32408847612336
157.54344992450865,318.7075098214019,379.1992111670882,438.80726318720457,282.43938679667406,252.3284528954205,100.3608376407742
157.46756386047275,318.56635320591516,379.2911896970784,437.91637861956895,282.23585099618066,252.59155333629465,100.40280000629448
157.3930624527058,318.4281541133891,379.3445060249409,436.94127946827257,282.0449805702704,252.8008198761708,100.44965248199979
157.32028825967538,318.29296210034346,379.35963127318155,435.8891686787167,281.86714077158086,252.95344556157917,100.50103550479784
157.24958507898248,318.16083747346903,379.3371863385177,434.7671406238296,281.7026461863327,253.04683653360522,100.55659811853431
157.1812635177054,318.0317853672979,379.27785237891584,433.5821194008966,281.55167518461525,253.07856516030654,100.61599822448396
157.1155542931944,317.90570928587033,379.1823249349231,432.34072679416084,281.4143043609278,253.04640757647655,100.6788707156699
157.05263283270565,317.7824851483641,379.05140434616214,431.0491371543276,281.29056308545205,252.94840197668412,100.74482564265924
156.99268717728015,317.66201718890727,378.8860504105384,429.7130793272632,281.1803787415556,252.7828325049945,100.81348706456632
156.9359303761331,317.5441723132422,378.68730207293146,428.33795435947366,281.08349341015577,252.54817870213537,100.88451310224126
156.8825436385748,317.4287308688892,378.45622839806117,426.92888209245785,280.99949105707014,252.24313632846184,100.9575633187282
156.83264104406538,317.31545871723483,378.1940067277253,425.49067912956474,280.92788426707966,251.86670052772183,101.03226134474001
156.78630099884322,317.2041631906761,377.9019627162246,424.0279510637199,280.86811776260373,251.41819757117258,101.10821011356838
156.74359139759227,317.0946271228783,377.5814798130554,422.5452742943216,280.8195106787826,250.8972402268073,101.1850397733741
156.7045349305687,316.9865591106509,377.23394585395624,421.0472623674551,280.78126618730545,250.30371759518937,101.26242034586942
156.66908117065387,316.8796676352568,376.860830189758,419.5385576313162,280.7525317273776,249.63786646618732,101.34002492360852
156.63714040112194,316.77372178235186,376.46372316011906,418.02395607304516,280.7323859891502,248.90031702627897,101.41750474671645
156.6086137989395,316.66849200861304,376.044242036223,416.50858107599765,280.71976918220906,248.0920488693555,101.4945195300304
156.58336205199242,316.5637084652272,375.60397023624404,414.9978576038216,280.7135013812496,247.21435110691527,101.57078066221976
156.56117713657844,316.45914042378655,375.1445283067615,413.4973621248307,280.7124006041079,246.26885034772548,101.64604548213302
156.54182885919505,316.35465490161533,374.6676135429322,412.01283936090516,280.7153359167585,245.2575207551022,101.72007765330167
156.52513261831024,316.25014725867106,374.17491097942616,410.5503759167886,280.7211508983966,244.18261905969487,101.7926387900812
156.51094456582965,316.1454825051412,373.66803916188917,409.1164438117211,280.72860891611674,243.04663277251026,101.8635226666819
156.4991010928006,316.0405549880704,373.14862801331475,407.717767976161,280.7364607241272,241.85230109558947,101.93257210149483
156.48940116215488,315.9353331326887,372.6183615810401,406.36122592993956,280.74350989968457,240.6026236413286,101.99964305343674
156.48165536983893,315.8297863498146,372.0788797137447,405.0537835491099,280.7485709819863,239.3008014229559,102.06456039180686
156.4757156158819,315.7238286312185,371.5317022680044,403.80231686494176,280.75043112534485,237.95019775806213,102.12712144456023
156.47143518921072,315.6173814616475,370.97829061416036,402.6133928340151,280.7479131112283,236.5543725437383,102.18713269130443
156.46863099074955,315.51042116255616,370.42009448046446,401.49317055177164,280.73992926900837,235.1170954598969,102.2444180281855
156.46711752319442,315.402908544643,369.85847510189984,400.4473462292272,280.7254274849717,233.6422768191525,102.29878324190187
156.46676040060697,315.2947377702434,369.2946567595298,399.48098391645385,280.7033394668389,232.13390849910195,102.34999157463099
156.46746329407046,315.18580799717586,368.72981005452283,398.5982974901336,280.6726410705817,230.59608295150235,102.39779214890252
156.46911077409953,315.0760798266851,368.16510800969735,397.80257074742923,280.63242259085223,229.03300534105182,102.44196410910965
156.47156283920518,314.96551026796743,367.60165079812884,397.0962187216954,280.58184524737266,227.44893352542033,102.48231633364827
156.47471381049283,314.8540012729383,367.04042162583545,396.4808183000043,280.5200676814769,225.84812889695348,102.51865223051048
156.47851968766858,314.74146725539083,366.48237908089436,395.9570802005225,280.4462788753646,224.23487783436647,102.55076191317973
156.48295062247126,314.62788762974475,365.9285196189062,395.5249135946753,280.3597825455328,222.61349696074222,102.57845705236016
156.4879521544332,314.5132371611042,365.37979861424714,395.1835766738334,280.25998659023486,220.98826316351216,102.60159227007236
156.4934730622606,314.39742371039455,364.8370706000764,394.93173696695953,280.1463147687809,219.3633585929147,102.62003709892696
156.4994904971403,314.28034053992576,364.3011604035435,394.767439030794,280.01819728832254,217.7428944361997,102.63364220833326
156.50597313630198,314.16190940326516,363.77291041402765,394.6881291274697,279.87517144982814,216.13092711493934,102.64225613523702
156.51284924980564,314.0420155680803,363.25309567266686,394.6907213911408,279.7169402710642,214.5314038694065,102.64577427456979
156.52005194091308,313.9204671258499,362.742360838439,394.77157673506474,279.5433276608124,212.9481205314167,102.64415290375828
156.5275845831539,313.79707983505267,362.2412881765818,394.92644075207636,279.35427086430093,211.384749677324,102.63737216515155
156.53551107078366,313.6717464758699,361.75044608121567,395.15048556412995,279.14991290651255,209.84485488028525,102.6254078503512
156.5438918610516,313.5443769274093,361.27031106311233,395.4384136629554,278.9306506326062,208.33183484312667,102.60825879570356
156.55276680333716,313.4148427712376,360.801213291246,395.78447610064904,278.6970718703038,206.84888644833183,102.58599261253482
156.5622036790207,313.2830400502847,360.3434119641412,396.1824417455811,278.44992712641266,205.39904717281283,102.55874592769132
156.57232162987188,313.1489410467483,359.8971486424666,396.6256620535036,278.1902044729624,203.98522572479885,102.52668755691965
156.5832429938474,313.0125272725774,359.4625699830809,397.1071965480293,277.9191622005749,202.61015442835043,102.49000822238808
156.5950524095397,312.87373540962255,359.0396712559388,397.6198631521923,277.6382494709192,201.27635174118845,102.44895157448732
156.60783449150424,312.73252284564916,358.6283707343795,398.1562493165993,277.34905840830237,199.98616242654037,102.4038292983273
156.62173257173205,312.58891956682925,358.22856577956753,398.70878760949046,277.0533766496604,198.74178747126592,102.3549852509186
156.63693647472238,312.4429590898214,357.84006066481396,399.26982199805695,276.75320085185825,197.54523434131326,102.30275379619853
156.65361985293322,312.29462182985776,357.4625121401628,399.8315679203727,276.45064956893475,196.39827359510565,102.24746950989162
156.67192357992985,312.14389972953563,357.0955005198871,400.3860693223459,276.1479220366032,195.30247266504597,102.18951022223055
156.69200331002145,311.9908505224383,356.73858182733585,400.92526565593755,275.8473653465456,194.25922498483266,102.1293055214909
156.71405380660883,311.835533674842,356.39121571753145,401.4410726337777,275.55149743843344,193.269706808079,102.0672943798242
156.73826496447916,311.67795879644376,356.0527175661881,401.9253605556261,275.2629163116333,192.33484361829525,102.00389072260614
156.76478297496095,311.5181525356763,355.7223446035889,402.36992648519254,274.98424111447656,191.45535161522693,101.93950104447363
156.7937354363795,311.35621184831933,355.39936680538443,402.766616671685,274.71815215975363,190.6317708468551,101.87455764143529
156.8252596167601,311.1922371058671,355.0830072816014,403.1075406010763,274.46739002243726,189.86442609076406,101.809508855657
156.85946509180314,311.02627770894475,354.77239819143296,403.38518349096546,274.23465380328497,189.153401529226,101.74477627710284
156.89637858639355,310.8583977532923,354.46666610492406,403.59241611544167,274.02254567408465,188.49859326286742,101.68074030790181
156.935957259334,310.68872923613884,354.16499887435947,403.72258436865127,273.833627788505,187.89975066379932,101.61776973098348
156.97815104233533,310.5174041620078,353.8665796494586,403.76969119279806,273.6704417375149,187.35643695119273,101.55623914406146
157.0229156488182,310.3444940759787,353.570537682447,403.7284856113095,273.53541929739913,186.86799349719416,101.49649609371644
157.0701516611141,310.1700626485967,353.2760316953101,403.5944250975345,273.4308351894659,186.43357950940816,101.4388191718363
157.11966052361018,309.9942063053395,352.9823167554966,403.36365628043484,273.35887500661795,186.0522094954366,101.38342301630699
157.17119157359858,309.8169833676021,352.68867866861916,403.0330266800127,273.3216664811351,185.72272384600404,101.33049560002182
157.22452427406992,309.6383627594181,352.39438271031287,402.6000223296995,273.3211982029317,185.44377527497377,101.28020599529755
157.279480622237,309.4582959472189,352.0987503457963,402.06269060049027,273.35927278457194,185.2138949830013,101.23266775343099
157.33587314409203,309.2767777244004,351.80121770545867,401.41971226048065,273.4375660821141,185.03154704842296,101.18791361058094
157.39348911854282,309.093782795988,351.50126392732454,400.67057070218993,273.5576463281454,184.8950961366734,101.14592464059629
157.45213960214863,308.90920193221626,351.1983563868711,399.8155930625821,273.7208805125637,184.80277260363928,101.10667738023099
157.511685042541,308.7228868871018,350.8920252284653,398.85584350962154,273.9283658870864,184.75271005123764,101.0701471182337
157.57198687118301,308.53468884394556,350.5819189904753,397.79307987907373,274.180958672207,184.74297990073364,101.03627467902481
157.6328639960388,308.34439534756683,350.2677251305667,396.62982765470804,274.4792768718088,184.77155793185975,101.00495846293988
157.6941318163363,308.15169416546576,349.94910257684603,395.3693895362167,274.82362270015216,184.83630171320146,100.97608785994068
157.7556684969618,307.9562631634056,349.6257470277959,394.0157371898101,275.21396102587386,184.93500167182694,100.94956300604495
157.81740924705505,307.7578461031499,349.2974464390621,392.57343938147284,275.65001043388884,185.06542312691656,100.92526540594073
157.87928365293553,307.55619967578775,348.9640075038317,391.0476527809698,276.13129608124774,185.2252707276858,100.9030235295947
157.94119727867982,307.35104496053043,348.6251963350572,389.44405214509516,276.65709334547154,185.4121527511112,100.88263142985107
158.00308087887797,307.14213900249854,348.280812181092,387.76876255301414,277.2264112751135,185.62361960774777,100.86390302505718
158.06491659026264,306.929337252442,347.93074883690247,386.02847435900486,277.8380882926907,185.85720984555002,100.84669142000429
158.12669135109778,306.7125341805957,347.5749223307837,384.23063701858683,278.4908483183752,186.11042467312063,100.83085373219207
158.18835755022246,306.49161229982934,347.21320974496257,382.38343844432313,279.1832411785538,186.38068968346673,100.81622229742857
158.2498766562683,306.26651159201566,346.84552292424553,380.49555390609726,279.913617786885,186.66540269056478,100.80263089740163
158.31128672252618,306.037288140593,346.4718738231963,378.575928689824,280.68021682926707,186.96203404728863,100.78995888858474
158.37269333080707,305.80405043851454,346.0923057449823,376.63370808739785,281.4812143655625,187.26815769392343,100.77812941067995
158.4342005824068,305.5669053759276,345.7068305841627,374.67814400032853,282.31465916597364,187.5813937070854,100.76706943404011
158.49588508808162,305.3260255655672,345.315498680362,372.7183755052438,283.17843703329044,187.89937418406052,100.75669541778085
158.55783896977314,305.08170624892716,344.9184650077059,370.763259818538,284.0703401962029,188.219790855156,100.74694206407837
158.6201936705795,304.8343000608506,344.5159223552004,368.821391227316,284.98810700463713,188.5404368287586,100.73777833281311
158.68307200164028,304.58416028059105,344.10802430686425,366.9011457469558,285.92936576230977,188.85917741055286,100.72917402826224
158.74654205040804,304.33170339936726,343.69491745050897,365.0105957361925,286.8916245796401,189.17393139315683,100.72106035649036
158.81064915124728,304.07746037307123,343.27676699928105,363.15743182566,287.8723730803084,189.48272662855132,100.71334180958841
158.87547567550675,303.82200577900386,342.8536701798793,361.3490247752055,288.86914129684163,189.7837433152374,100.70594379557394
158.94113347965845,303.5658960079695,342.4255876814072,359.59247209043485,289.8794331620304,190.0752739898546,100.69882887129084
159.0077024491488,303.3097277288424,341.99241818428357,357.89447215762544,290.90067999255086,190.35568416980914,100.69196103784277
159.07521308545483,303.05418482596923,341.55409065875426,356.2611529930402,291.93030022717875,190.62345422067418,100.68527363885609
159.1436959852937,302.79996194943925,341.11052114127875,354.6980366763861,292.96573176858675,190.87723066421142,100.6786898074905
159.21320894737104,302.5476968549589,340.6615279410247,353.2100800648594,294.00435918938,191.11579861548435,100.6721656780248
159.2837896773164,302.29802512481365,340.20687292325056,351.8016433873464,295.0434742446996,191.33803425587712,100.66569410941497
159.35540847583815,302.05162790058426,339.74637252031977,350.47643020149275,296.08035165523586,191.54294468997907,100.65927012429177
159.42800101563964,301.80916131611207,339.2799166095359,349.2375089684303,297.112303091608,191.72976232582354,100.65287837638074
159.50153614326356,301.57119799247556,338.8074440063358,348.08734274144535,298.1366254572408,191.89796706957853,100.64652210898414
159.5760192405551,301.3382915544359,338.32903465945793,347.0277348972304,299.15057334898324,192.0472266466705,100.64023914010384
159.6514345104954,301.1110323588313,337.8450509906656,346.05980171265753,300.15143109241035,192.17737346224985,100.63406741451438
159.72772294285778,300.8899814269955,337.3561421376847,345.18405987902815,301.1365531726989,192.28845226914567,100.6280030466798
159.80482530040194,300.6756120232607,336.86316851896333,344.40048485640654,302.1032991629878,192.38073060467278,100.62200907099441
159.88270525214836,300.46837079271813,336.3672439554344,343.708424463022,303.04899754974423,192.454618054104,100.61605989983588
159.9613015952819,300.26873006520066,335.8698555681196,343.1065050978946,303.971019900153,192.51059077610742,100.61015374340201
160.04048319190704,300.0771213812856,335.37287531646496,342.5926841235753,304.8668360873739,192.54919901832878,100.6042731929976
160.120081318604,299.8938814520445,334.878503637917,342.1643634094865,305.73397269640424,192.57108812508073,100.59835282335207
160.19994878370187,299.7193226004732,334.38928950515196,341.8184036088768,306.570004900204,192.5769489891726,100.59230405097249
160.2799525086535,299.5537942945955,333.9081323890938,341.55107368919624,307.3726507120689,192.56745276705715,100.58606369157445
160.35991397189147,299.3976171399012,333.4381238156191,341.3580763850457,308.13982740348126,192.54327286929632,100.57960059220366
160.43959458928663,299.25101537065615,332.98234972482754,341.23463549908365,308.8695974341903,192.50516665067914,100.57288329724712
160.51874869019937,299.1141650026907,332.54384265064107,341.17553087423533,309.56013667426237,192.4539906749119,100.56587199256013
160.59715478870356,298.9872382257919,332.12563784587195,341.1751153391548,310.2097912098941,192.3906192747512,100.55855382966612
160.67457307499419,298.870335511104,331.7307809688607,341.22742246987195,310.8170957012903,192.31587914488497,100.55096466422764
160.75070494690303,298.7634315993496,331.36232016310834,341.32629592574546,311.3806952364757,192.23057848088672,100.54316095994501
160.82523215882063,298.666445982508,331.02337862730747,341.4653942890193,311.89930770331983,192.13555440437202,100.53519075810155
160.89788399618695,298.5793065671775,330.7171930491303,341.6381293295501,312.37179800567753,192.03164317571094,100.5271170620142
160.96843498319714,298.5018877851366,330.44699827715357,341.83775676722155,312.7972295266079,191.919622424143,100.51906135321488
161.03664496219466,298.43394906810454,330.21591051190313,342.0576578055858,313.174817324893,191.80023258742216,100.51120069309492
161.10224082390738,298.3751926046344,330.02695481732263,342.29156823058133,313.50391260285045,191.67425679261677,100.50372327915163
161.16496725121536,298.3253193366484,329.88308775894524,342.53362334646204,313.7840823149268,191.54253741625084,100.49680894221729
161.2246181479228,298.28397005164857,329.787064938485,342.7783833031718,314.0151435286874,191.40590078973625,100.49065619754418
161.28099323072377,298.25067630494675,329.74127835009745,343.02092021521736,314.1970828726127,191.26510087012133,100.48549939616834
161.3338542994643,298.2249332552886,329.7477037256308,343.2568298010727,314.33000302684104,191.12085389087596,100.48157778383006
161.38296139773354,298.20626529313137,329.8078751780298,343.4821495701814,314.4141782282025,190.97388397809726,100.47910375369054
161.42813887807444,298.1941687371691,329.9227914784463,343.69333481826135,314.45008780644326,190.8248892899609,100.47828476250874
161.4692725851106,298.1880577534997,330.09285158088915,343.8872996537268,314.4383501839976,190.67448492404318,100.47936792710894
161.50624852208924,298.1873280817972,330.3179121471933,344.06138019581834,314.3796914706298,190.52323163365165,100.48263946834028
161.5389320423249,298.1914153617565,330.5973477936157,344.2132316151144,314.27502394209534,190.37172595940785,100.48838184969014
161.56721556888527,298.1997372715288,330.92998618549063,344.34082642038805,314.1254919697202,190.2206273970335,100.49685521890667
161.59104799573657,298.2116439897872,331.31399978390334,344.44255882688697,313.9324055681309,190.07060341636833,100.50832595872043
161.6103913060498,298.22648687923896,331.7468805312166,344.5172645180182,313.6972059847783,189.92230652060076,100.52308509615877
161.62517839465352,298.24367834680106,332.2254619903846,344.5641168623535,313.42154354807303,189.77642521756994,100.5414162422179
161.6353519811201,298.2626301024294,332.74590838104217,344.5826049542757,313.1073170027918,189.63370444491827,100.56355892111132
161.64093447193503,298.28269659565535,333.3037392673113,344.57266877556407,312.75658388570236,189.49487685976766,100.58972202288696
161.64202685653106,298.3032393668809,333.8939848750089,344.53478871033525,312.37148601478043,189.3605997575942,100.62012034054727
161.63874272546985,298.32368822984955,334.51137691040054,344.469935304127,311.9542856689241,189.23147735403575,100.65497161060118
161.6311768711796,298.3434847593307,335.1504204967541,344.37954092465986,311.5073825543569,189.10809726604407,100.69445757278228
161.61944221368458,298.3620334948453,335.8053810035385,344.2655366106959,311.03322550299885,188.99099142947853,100.73871202538564
161.60369344491215,298.37877488400545,336.47036552385356,344.13029628375654,310.53424745826226,188.8805720985974,100.78785512242608
161.58408292373545,298.39325107445677,337.13954955592277,343.9764865773642,310.01290583160636,188.77714946991316,100.84201552686265
161.5607197386869,298.4050472537377,337.80738074090794,343.8070062329824,309.47170040312596,188.681012031693,100.90130082220503
161.5337094185622,298.4137357317253,338.4686985515384,343.62502893923033,308.91308920471585,188.59245027532768,100.96576279418058
161.50322287013122,298.4189395597454,339.11892024706447,343.43396168699564,308.3394329320615,188.51170383166667,101.03541388545491
161.46949405261984,298.42038937628956,339.7542620688018,343.2372889291802,307.7530494613149,188.43894753730282,101.11026931378
161.43275689519234,298.4178576108321,340.37177334495436,343.03849652836334,307.15624715368943,188.37436140939928,101.19034940767482
161.3932221446651,298.41109594823024,340.96921882179186,342.8411306463253,306.551255583898,188.3181760445152,101.27564103639483
161.35112160827853,298.3998923329953,341.5450853001982,342.6488118488089,305.9401853342757,188.27063359633573,101.36608093283104
161.30673171777127,298.3841244451661,342.0987508342934,342.46514679764795,305.32509456191593,188.23196011801508,101.46158403312961
161.26032384082055,298.3636958288457,342.63057278841603,342.29368097620664,304.70802601820293,188.20240695422,101.56206245275597
161.2121181034728,298.3384783614931,343.14186625142804,342.13790175932706,304.09093449888815,188.18226796836652,101.66739682896437
161.1623213505277,298.3083747986199,343.6350132497898,342.00114802123784,303.47564368274186,188.17180968156262,101.77740534922555
161.1111985705358,298.27337677475924,344.1136816409403,341.8864497228171,302.86391725220517,188.17120335134823,101.89186362953933
161.05907484833224,298.2335027835249,344.5828560547829,341.79649318509985,302.25750300735666,188.18054183054466,102.01054696795111
161.00627361100112,298.1887389239689,345.04861441868,341.7337405454867,301.6580559645773,188.1998766557116,102.13323095700743
160.95309088038738,298.13909642675145,345.5178339517034,341.7005112584685,301.0670774003736,188.2291848001529,102.2596526998023
160.89983728351638,298.0846632580512,345.99790719453273,341.69898192057497,300.4859687965317,188.26831051646744,102.38949557842835
160.84686297037635,298.02553862759066,346.49643675723814,341.7312583394199,299.9160718303677,188.31699063557164,102.52241970719335
160.7945101509376,297.9617773277805,347.02096446672954,341.7994884220462,299.35860043735227,188.37494898368215,102.65808394978816
160.7430648047865,297.8934568332785,347.57880046253354,341.90581925870157,298.81459045805036,188.44193480506007,102.79611858004509
160.6927869973421,297.8207376358306,348.17685917337974,342.0522135136922,298.2849540076753,188.5176734969848,102.93608798379334
160.6439735431429,297.7437992663826,348.82143794414065,342.2403256207105,297.7705137874678,188.60184063727678,103.07750284134609
160.5969550650847,297.6627788660071,349.51811308095944,342.47148839817675,297.27193492928046,188.69411144349095,103.2198705153752
160.55203424323773,297.57783113906896,350.271867277623,342.7466737534538,296.78968354054894,188.7941873947912,103.36271509690367
160.50946368746358,297.4891852849938,351.0872282743749,343.0663983665032,296.32409810746816,188.90173564187734,103.50554337072445
160.46949177242243,297.39707640880664,351.968254737894,343.43073861565387,295.8754424609848,189.01632998888152,103.64781508228495
160.43238649192364,297.30166938713944,352.91855771564934,343.83949437202625,295.44384941800774,189.13747608535945,103.78896970387876
160.39838190445545,297.20310686767164,353.94146212041545,344.2922834711482,295.02928503514244,189.26465530188938,103.92847667238497
160.36762344482665,297.10158057173663,355.0400681393505,344.7884537213244,294.6316248299697,189.39729689525322,104.06584214911429
160.34019499691297,296.99728465682614,356.2170409985676,345.3269988101875,294.25071248878334,189.5347241813786,104.20057366661582
160.3161824810485,296.89032781129055,357.4742825184408,345.9066123532596,293.88631027556124,189.67618035890274,104.33216710244741
160.2956740501122,296.7807580312286,358.812720333801,346.52574104289937,293.53807113490376,189.8209181663252,104.46013894107017
160.27869907353687,296.6686578515731,360.2322693875323,347.18254086917864,293.2056215578322,189.96823365054965,104.58404889402203
160.2652021111514,296.55415414992825,361.73185835957844,347.8748818188056,292.8886200863739,190.1174179723252,104.70347253512088
160.25508646864847,296.43735733587795,363.3094942657688,348.6004714650706,292.58669483549807,190.2677367539577,104.81796572324576
160.24824639387154,296.3183724672158,364.96247569466567,349.3569252634268,292.2993892944437,190.41848552053202,104.9270803952783
160.2445301579255,296.19736831744405,366.6877088911031,350.1416997022891,292.0262161137041,190.569024619529,105.03041755284427
160.2437014618365,296.07456708450604,368.48188872602066,350.9520442664172,291.7667007720968,190.71873744286773,105.12764775931231
160.24547931294205,295.9501744697419,370.34150461527355,351.7850496643054,291.5203268709518,190.86700139191038,105.2184764117598
160.2496109546713,295.8243905366757,372.26283563559286,352.6376534391184,291.28650722496445,191.0132301597816,105.30261165442388
160.25587772111982,295.6974819556477,374.2419313073385,353.50654360040176,291.06466512765917,191.15690319079422,105.37978701180081
160.26403871514557,295.56977383698245,376.2745217320641,354.38812045904143,290.85428928665664,191.29752603694234,105.44980781590787
160.27381087706885,295.4415787251736,378.35602527544825,355.2786030691177,290.6548633657359,191.43460487224738,105.51255537799663
160.28491800714028,295.3132034931061,380.4817413696466,356.1741278673659,290.46579789739604,191.56768920804467,105.56794841114447
160.29712398359266,295.18501655633094,382.64698263350874,357.07074631097476,290.2864702091559,191.6963948918127,105.61592396384773
160.3101927659957,295.05743538605634,384.84698932546905,357.96444610657636,290.1162616891108,191.82034288156615,105.65646153913357
160.32384541848944,294.9308523875183,387.07684785170386,358.8512409525308,289.9545015481158,191.93909727321957,105.68959866863601
160.337793490983,294.80563918552434,389.33158791920556,359.7271845252371,289.8004344478652,192.0521875640273,105.71539843663979
160.35180286360782,294.6822118392872,391.6062750965912,360.58828234284283,289.653298306812,192.15915600631317,105.7339078618814
160.36569165144437,294.5610174464545,393.89594261559444,361.430489003888,289.5123849405234,192.25953553974875,105.74516508184351
160.3792682011981,294.4424592244076,396.19554639969624,362.24986051654525,289.37699028848954,192.35279370853996,105.74924380737708
160.39230471148957,294.32690025913035,398.500110950052,363.0426697251021,289.24637263721866,192.43834954667904,105.74626820679426
160.4045791552463,294.2147305916602,400.8048851460487,363.80538473059636,289.11980386077295,192.51565925799395,105.7363742389905
160.41590410788666,294.1063580504019,403.10530528040346,364.5346887954015,288.99659847855963,192.58425388714002,105.71967263688258
160.4260849283241,294.0021382044211,405.39689037866776,365.2276297554964,288.87604692654367,192.64369350109084,105.69626563426466
160.43487479546803,293.9023830255187,407.67524328793087,365.8817047473295,288.7573852062824,192.6935420353211,105.66628898428127
160.44200804533926,293.8074316193888,409.93607333925087,366.49478253191944,288.63988648009604,192.7334168614564,105.62991494686018
160.44726976391226,293.7176421136892,412.17514832324326,367.06504544985427,288.52293276296206,192.76302220181017,105.58731521053551
160.4505019022029,293.6333218883471,414.3882839880964,367.59104632558257,288.40596030788805,192.7821096776663,105.53864660112865
160.45154660226518,293.55473898606016,416.5714132185857,368.07171951308067,288.2884050563265,192.7904524841112,105.48408475431378
160.45022201163053,293.4821982313551,418.720573437667,368.5062748095539,288.16975133083895,192.78788893328408,105.42385027910714
160.44636405838207,293.41603689826593,420.83176358385464,368.8941518918216,288.04956966751723,192.7743466462077,105.358184011264
160.4398541568645,293.35655285818416,422.90088521544897,369.2351149003348,287.92745746501805,192.74978073255062,105.28731551900252
160.43057899561822,293.30400887820423,424.92387545418285,369.5292922182542,287.80300492705567,192.71411150024443,105.21148365497122
160.41839044519372,293.25870116577556,426.89681194623086,369.77704308803663,287.6758695777161,192.66726378443656,105.13098457191832
160.40314171808456,293.22095074374005,428.81584320074575,369.978822473761,287.5458275308601,192.60926020674972,105.04617800477685
160.38475343363604,293.1910322347649,430.6771480874512,370.13518069551554,287.4127094679209,192.54024080564994,104.95744644490232
160.36321268733678,293.1691821381253,432.4770694527266,370.2467713158702,287.27634744796694,192.46039787832518,104.86517003173688
160.33851117315936,293.15566968056027,434.2122141986633,370.31427199735174,287.1366255842262,192.3699462880368,104.76974556891625
160.3106195463331,293.1507858443046,435.87936589072336,370.3383587780373,286.993515036002,192.26918195653553,104.67160043208776
160.27953123121938,293.154767001288,437.4753978211475,370.3198076401181,286.8470046671272,192.15852617015744,104.57116154146026
160.24529305957492,293.16779923896587,438.9973336004734,370.2595594177178,286.6970499856103,192.0384859011165,104.46881906954538
160.20796419032308,293.1900898441074,440.44239362196225,370.1586697887682,286.54363324123307,191.90961725596244,104.36493823290651
160.1675705596823,293.2218601662585,441.8078887874237,370.0182865730577,286.38681174721773,191.77255891923681,104.25989712727468
160.12413558192236,293.2632703641512,443.09108093340524,369.83969656275383,286.2266553528504,191.62805310779717,104.15408771726956
160.0777442328857,293.31441976967847,444.2891344370303,369.6242923241411,286.06319066956235,191.4768932883073,104.04787669636586
160.02854274008908,293.37541333371973,445.39909387920846,369.37342976219577,285.89645133716306,191.31988526214053,103.94158750887254
159.97668024849418,293.446351799078,446.4178183542287,369.0883635710425,285.72651997931496,191.15788450668904,103.83552936680549
159.9222924250486,293.52725615213274,447.34197296602747,368.770344393162,285.5534652582541,190.99182203051882,103.73002051331369
159.8655551848723,293.6180711677799,448.1681547453148,368.4207054028071,285.3772911153283,190.82265273448087,103.62536385118356
159.80671774237834,293.7187397333948,448.8930104404622,368.04083179051713,285.1979970952627,190.65131015679614,103.52181622057117
159.74606626939124,293.8292025756239,449.5132193261838,367.63213543752636,285.0156317358439,190.47873137892995,103.4196065467531
159.68389460012727,293.94933035241354,450.0254381098574,367.19608361256417,284.83023656074283,190.30587237315373,103.31897894029711
159.6205311338838,294.0789325931837,450.42631050364474,366.734162996923,284.64179561503505,190.1336587762031,103.22019526052676
159.55634920748142,294.21783480096303,450.71247781917594,366.2477861126817,284.4502913277639,189.96295834154077,103.12349531974162
159.49170769786832,294.3658767270957,450.8805214389588,365.7383144828326,284.2557519376179,189.79463006861582,103.02907982516993
159.42689558758988,294.5228370009361,450.9269154845241,365.2072137207057,284.0581930096855,189.629558245618,102.93714307219727
159.36216325121416,294.68842848000435,450.84809216984144,364.6561205857454,283.85757212997066,189.46861286624562,102.8478998956443
159.29779446742208,294.8623614845069,450.64055520012994,364.08672617731,283.65385538859726,189.3126309118605,102.7615619410764
159.23411273316674,295.04433718790546,450.3009042441269,363.50066875843845,283.44707413100696,189.1624781938675,102.67830385952419
159.1714179619121,295.2339802280603,449.82580875446024,362.8995805088696,283.23727062778835,189.01908993485122,102.5982751088962
159.10995252427307,295.43084957561763,449.212111231338,362.28514313816567,283.0244527339096,188.8834183018489,102.52163578275095
159.04993764176652,295.6345140961736,448.457072874294,361.6590075046371,282.8086577027751,188.75637892333017,102.44855548181333
158.99159995757344,295.84454785672176,447.55853924823924,361.02270803496583,282.59000468193324,188.63886912918213,102.37917363775651
158.93512801726678,296.0604557071087,446.51491747567337,360.37772393000967,282.36863664654123,188.53177872145133,102.31358055226663
158.88062583504833,296.281676035262,445.32512249716666,359.7255678271436,282.1446732828652,188.43593378678153,102.25184347386232
158.82814594027278,296.5076554715808,443.98860057416937,359.06772762177303,281.918274370055,188.35205864140292,102.19402688367224
158.77775899041654,296.7378502297776,442.5053265770859,358.4055382105965,281.6896900876893,188.2808147739612,102.14016735644518
158.72955855618503,296.971654848893,440.87570949976697,357.7401690112684,281.45919488604153,188.22282723893034,102.09024431736279
158.6836034167564,297.2084002919615,439.10052172509825,357.07270983561443,281.22702846354264,188.1786346979531,102.0441996028945
158.63989777488035,297.4474225751435,437.180931865463,356.40419042973224,280.99345190794395,188.14864971652506,102.00198069804532
158.59844207765306,297.6880630863658,435.1185323742831,355.73554203832583,280.75879823566623,188.13319362467155,101.96354485108527
158.5592647458843,297.9296016769559,432.9152741379737,355.0676646761022,280.5234055659932,188.13252196893535,101.92882414095891
158.52237641057542,298.17126409837414,430.5734247763872,354.40157455750983,280.28754990919685,188.1467774582567,101.89771293518801
158.4877204974859,298.4123033257872,428.0956578157201,353.73843233501725,280.0514982777891,188.17595480854973,101.87009987278628
158.4552036789221,298.6520122190987,425.48514832766824,353.07944290160634,279.81557754552426,188.21994253505764,101.8458900007777
158.4247636504262,298.8896716597792,422.74553456737135,352.4258086791621,279.5801219312399,188.27855922131886,101.8249778585332
158.39637448239776,299.124581408065,419.88085199920596,351.7787641513439,279.3453709553041,188.35151973918653,101.80721432942426
158.36998939245152,299.3561642715883,416.895606243729,351.1395529517407,279.111470483845,188.43841338185385,101.79242021564191
158.3455160672727,299.58398261559324,413.7949099342113,350.5093631578715,278.8785563458975,188.53875708508482,101.78042325092467
158.32285923840044,299.8076624768537,410.584499268472,349.88938122743934,278.6467684864511,188.65204097403216,101.7710583496835
158.30195051661926,300.0268760967505,407.2706657141124,349.28093020366333,278.41617582601117,188.77769865719415,101.76413040703534
158.28270839121436,300.2413902694918,403.86026424959385,348.68549694189596,278.1867619147894,188.91507140574643,101.75939962879818
158.26499408958261,300.4510456276903,400.36075801660087,348.10466694175767,277.958519960258,189.06342739062643,101.75661304257545
158.2486440969152,300.65567297585824,396.7801366581508,347.54015123086947,277.7315112687592,189.22197701832403,101.7555290270196
158.2335393665399,300.8550863300246,393.1267510011983,346.9938732962816,277.5058251639755,189.38982629830784,101.75589414938227
158.21961195574764,301.04914736688926,389.4092951774101,346.46792432464883,277.28158032353355,189.56593355439776,101.75741495747792
158.2067883818108,301.23775823094377,385.63698078931367,345.9644041885271,277.0590231828149,189.74916675173955,101.75978021993703
158.1949660126243,301.42077946677364,381.8196443096332,345.48534681044777,276.8385758510853,189.93842267855732,101.7627093454651
158.18405639386287,301.5980076270383,377.96764592335575,345.03276075766365,276.62077475476076,190.1326745480943,101.76596077056772
158.1740109420225,301.76921668233746,374.0917473279076,344.60860714181433,276.40624652492045,190.33092834714807,101.76929680566938
158.16477192293272,301.9341417056728,370.2030892415376,344.2146679692526,276.19578089179765,190.5322007913807,101.77246786308447
158.15621966309465,302.09241770584424,366.3131272940251,343.8525075739964,275.9903545212353,190.73555986334935,101.77524231271077
158.1481995935291,302.2436044987406,362.433467810554,343.5236165447081,275.79104254003454,190.9401417728314,101.77742862965823
158.14058976660226,302.3872788723037,358.57576818511245,343.22952912472994,275.5989643614613,191.14511544564337,101.77884859139556
158.133308252901,302.5230469674033,354.75175748141186,342.97180193067555,275.4153360544907,191.3496880684495,101.77930457374241
158.12625533667662,302.65048198586675,350.97319484853364,342.752032016718,275.2414928228084,191.55318083609478,101.77859678816935
158.11928491408457,302.7691305885298,347.25168938816927,342.5719722021874,275.07881570626756,191.75506375059663,101.77656635427762
158.11224292654927,302.87858665245426,343.59857805480186,342.43354109441754,274.92869366014605,191.9548992591433,101.77309868308097
158.10499241786073,302.97849249949786,340.0249771004314,342.3386759165189,274.79257316439623,192.1523067705821,101.76808286670472
158.09736739315431,303.06847101135287,336.5418200106382,342.2892384965323,274.6719604770071,192.3470154486583,101.76139017605573
158.08912426750038,303.14813484545436,333.159742493036,342.2870541307796,274.56833038354597,192.53889797571233,101.75290618910401
158.07997501363687,303.2171750799573,329.888958743177,342.3339024532033,274.48308395092823,192.72790019313118,101.74256982011659
158.0696631604918,303.27538023954935,326.7392319579127,342.43137369382174,274.417608478196,192.9139608676023,101.73036430237798
158.0579793015642,303.3225775074758,323.71980397732693,342.5807496135058,274.37329734875436,193.0970430113444,101.71628193824638
158.04470689208623,303.35863991139786,320.8392100930784,342.78300522752886,274.35147229853067,193.27723466084112,101.70032342482601
158.0295928219388,303.3835621975878,318.1051392743349,343.03879739648715,274.35334723669405,193.4547775582776,101.68253324609886
158.01238737619238,303.39746092723607,315.52444436056635,343.34834602328476,274.3800881151717,193.629996784914,101.66300994159921
157.99287811773587,303.40049893659256,313.1031623488732,343.7113517353551,274.4328289461887,193.80324858640978,101.64186436351747
157.97085483095958,303.39287999307277,310.8464586170876,344.1270800364045,274.5125932472194,193.97494186018375,101.61917750852798
157.94606635829027,303.3749145844036,308.75865090383655,344.59447238713676,274.6202660596794,194.1455387617932,101.59501117128481
157.91825069671916,303.3470117037078,306.84337325325026,345.11210804406056,274.75666900373574,194.31548053128242,101.56944704597616
157.88720161835613,303.30959336089995,305.10366286867105,345.67810789767134,274.9225874635982,194.48514648651798,101.5425899797986
157.85277478777806,303.2630740991115,303.5418503832334,346.29016353046677,275.11868647438536,194.65492491698305,101.51452889485515
157.81483094102745,303.20791165136455,302.15945221004597,346.9456477656551,275.3454620357923,194.82528763254012,101.48531721209518
157.77321061678128,303.14459300418196,300.9572330140055,347.6416466943499,275.60329841321266,194.99674734270673,101.45500909858643
157.72777680630355,303.0735599753803,299.935297987166,348.3749614358395,275.89248916765945,195.16974787362363,101.42370460820882
157.67844308067745,302.99523271045945,299.0930433832043,349.14223256881155,276.2131451766388,195.34459730722273,101.39154517881117
157.62512786805453,302.91014027237765,298.429072669269,349.9401012642956,276.5651279905084,195.52144629001637,101.35867961254291
157.56770356891522,302.8189692471614,297.9412605708487,350.7652170360671,276.94809343008455,195.70024272743706,101.32526381830141
157.50602553580748,302.7224710192546,297.62689449474584,351.6141491343589,277.3615204992263,195.8806720491629,101.29149837865195
157.4400035306739,302.62140619712324,297.48270609975896,352.483367299278,277.8046508480609,196.06219373289983,101.25764197315937
157.36961379275053,302.5166176225225,297.50481747542517,353.36925332013413,278.27646366674566,196.24421012160278,101.2239712187965
157.2948451701983,302.4090782867518,297.6887416703799,354.268023953718,278.77575049770775,196.4262364217788,101.19073740559269
157.21567591471748,302.2998240666379,298.02940286030713,355.1756379265686,279.3011567865683,196.60798105527974,101.15817468499151
157.13211991632255,302.1899211966378,298.52106533893414,356.0878502998198,279.8511234748524,196.78940776887615,101.1265368400064
157.0442578114735,302.08055245303404,299.1572407415886,357.0003744629222,280.4238606904876,196.97080959546264,101.09609807863042
156.95219204514848,301.9730620446312,299.9307515267323,357.90895386237986,281.01742096331594,197.1528023896695,101.06711142863172
156.8559966969602,301.86886438903986,300.8339489863239,358.80932104202,281.6297436284263,197.33622241925153,101.039784727162
156.7557486936187,301.7693701360046,301.8588667204361,359.69721224632735,282.25860650453916,197.522065921854,101.01430229822917
156.65160090856452,301.67602971687796,302.99720965700163,360.5684608551221,282.90161348288217,197.7115626997426,100.99084307040765
156.5437938365171,301.5903567222834,304.24035492747987,361.41901184775884,283.5562794632994,197.90627325542266,100.96955364067983
156.43260180691246,301.51384425617624,305.57948282805717,362.2448440315133,284.2200813306012,198.10807409356866,100.95051581169693
156.31831088571099,301.4479116750153,307.0056912319505,363.04198327650147,284.89041331928144,198.3190963837834,100.93376616697485
156.20126293405116,301.3939582952234,308.50999739695834,363.80664865189607,285.564581622458,198.54172973361952,100.9193479213986
156.08187915522376,301.3533803452905,310.08338414940494,364.5353336841211,286.2399018436675,198.77862136862257,100.90732536304647
155.96060493144725,301.3274747264384,311.71697506141254,365.22473483053966,286.9137577215449,199.03258184013677,100.89774772161826
155.83784836349594,301.31737981445156,313.40215436503,365.87170038930833,287.5835467082559,199.30649921030735,100.89062399862443
155.71399803957337,301.324139969285,315.1305182496097,366.4733012209328,288.24665137402144,199.6033581024156,100.88594865234406
155.58948213096417,301.34875063684734,316.89382433848874,367.02687405054786,288.9005186124384,199.9262484390904,100.88373584874522
155.46476926838255,301.39210830059034,318.68406471040976,367.5299551310839,289.5427164806924,200.27825963538035,100.88400741258093
155.3403057261772,301.4550152968184,320.4935334565293,367.9802849938417,290.170890001684,200.66236306144808,100.88675524987256
155.2164831126442,301.53829824721447,322.31479353520047,368.37598511869874,290.7827384742839,201.0813743251358,100.8919413035055
