HandOpen,HandClose,Wrist Flexion,Wrist Extension,Supination,Pronation,Rest
1.353309585728887e-07,1.353309585728887e-07,1.353309585728887e-07,1.353309585728887e-07,4.059928757186661e-07,2.706619171457774e-07,9.473167100102209e-07
1.3257943117367246e-06,2.002449104601168e-06,1.596456228882502e-06,1.4611252703096133e-06,4.112713893783062e-06,2.9222505406192265e-06,9.821884016448627e-06
6.737359746691202e-06,1.3366331305374828e-05,9.253617411591763e-06,8.063154058427926e-06,2.113188067609166e-05,1.572031524113719e-05,5.084072397091065e-05
2.401305483535787e-05,5.661720590023078e-05,3.575598714128489e-05,3.0615083623476176e-05,7.493447227612752e-05,5.7658777187460854e-05,0.00017818397438341897
6.781500453648128e-05,0.00017727392421937685,0.00010539703344244145,9.050226506010243e-05,0.00020924843830932927,0.00016774711490394497,0.00048319966216723377
0.00016188904249354955,0.000448689158705301,0.0002566221609074186,0.00022391400399334987,0.0004942679749821397,0.00042395041895175163,0.0010950318860655014
0.00034042032114190807,0.000972993971874769,0.0005437712733456539,0.0004879828618579755,0.001030883690004541,0.0009746244161398036,0.002178258540960893
0.0006490431095561255,0.0018801374052039683,0.001038686315872426,0.0009714340177378719,0.0019534525014633965,0.0020692049853423223,0.00392930194660498
0.001145129055904316,0.0033261635178812544,0.00183175038414817,0.0018067873191028117,0.0034356122949692554,0.0040752924216258595,0.006571316646861289
0.0018965181874382065,0.005491807872518517,0.003032689626273775,0.003177594970043937,0.005703159692784223,0.007492429175677142,0.010348698364460122
0.0029789871586883613,0.008581614240725934,0.0047733052815034215,0.005319942373179643,0.009051982198443196,0.012979944497426964,0.015522971472533013
0.00447461501785337,0.012821831056743399,0.007213053217004321,0.00852674869241768,0.013864959833853163,0.021390012683811153,0.022369302329734823
0.006474553754791359,0.018456502746258895,0.010544641636668026,0.01316231573365131,0.020621377893522187,0.03378056071431385,0.03117193343375202
0.009087628738074694,0.02574348010347448,0.014995976692083449,0.019680546955084192,0.02989410729787056,0.05139971362323752,0.04221933647045688
0.012450673085382283,0.03495108508045724,0.020827959316471415,0.02863231032916868,0.0423349620611252,0.0756513530022663,0.05580136956880819
0.016734367357442253,0.04635453259615661,0.028330510595282035,0.040656771453977045,0.0586531253202813,0.10805186956404922,0.07220932278093053
0.02214241732277634,0.06023192633332412,0.037818529891212836,0.056462650311860624,0.07959200001134742,0.15018396637691697,0.09173735512303183
0.02890621063384646,0.07686090902077874,0.049627286091311264,0.07680594820066725,0.1059087718256611,0.20365036295338768,0.11468190941212995
0.03727773313563181,0.09651629923690971,0.06410644257399911,0.10246740771247047,0.13835853174147283,0.27002950700158657,0.14133662694791402
0.04752264621974068,0.11946761703355241,0.08161263548605276,0.13423185537802756,0.17768142293871533,0.3508365149148671,0.1719842105162248
0.059914674800887156,0.1459764194733473,0.10250097968332303,0.17287062803656628,0.22459070715352183,0.4474915141694094,0.20688905364856575
0.0747310079561879,0.1762948769102209,0.12711637790209235,0.21912653821532055,0.27976273688596864,0.5612950355078993,0.2462926638537391
0.09224737289854215,0.21066538354507044,0.1557853611331054,0.2736998229776065,0.343833270116192,0.6934085831446567,0.2904106477828796
0.11273251271326036,0.24931857974322494,0.18880918965386165,0.3372342122644906,0.41740796879661557,0.8448383829333971,0.3394294170864919
0.13644321831744521,0.2924682188573114,0.22645987838793266,0.4103045925470624,0.501093617327874,1.0164214552412976,0.3935027464352185
0.1636207139306592,0.3403046405275704,0.26898059199189583,0.49340921689217515,0.595540502694089,1.2088141086389872,0.4527493815062046
0.19448808097391143,0.39299156962297965,0.31658920989223766,0.5869670395407643,0.7014711232189038,1.4224830447152619,0.5172518474504416
0.22924804200315538,0.450672877888938,0.36948145045272407,0.6913170414037411,0.8196811287833731,1.6576994706844774,0.5870553438036088
0.2680804124943706,0.513494401248205,0.4278312898500502,0.8067164161388961,0.9510197573979612,1.9145367746872992,0.6621664947617034
0.31113880075851497,0.5816419641872248,0.49178944858646506,0.9333375245745859,1.0963628531644507,2.192871622012627,0.7425533959733467
0.3585474498584968,0.6553928289289814,0.5614812906070262,1.0712656015464517,1.2565861930528661,2.49238735483706,0.8281472999979883
0.41039990040865343,0.7351689262513479,0.6370057878365529,1.2204985561769304,1.4325411210642154,2.8125788822995896,0.9188445657399735
0.46675932533618886,0.8215714417450032,0.718439317697351,1.3809481667055385,1.6250308586656705,3.152759726947193,1.0145086921119435
0.5276584910699441,0.9153828164620039,0.8058466002632316,1.5524418062019907,1.8347861764742432,3.5120722739526054,1.1149732343280225
0.5930987668263632,1.0175395756129806,0.8992944260655618,1.7347256107228337,2.062442373059529,3.8895009330220676,1.2200450185101248
0.6630496244794235,1.1290901488979599,0.9988604997269466,1.9274699431613815,2.3085233498965607,4.2838873752184226,1.329506628812854
0.7374492578415215,1.251150229999321,1.1046340568548418,2.130275774935771,2.5734378060514227,4.69394724896383,1.4431184243291155
0.816206002934218,1.3848605915409855,1.2167105464362125,2.342680299479942,2.85748305063285,5.1182864968391355,1.560620979789884
0.8992005553716395,1.531347849537877,1.3351841216328932,2.5641620365570508,3.1608463966133002,5.555415329365683,1.6817385348909943
0.9862884247501393,1.6916929015444162,1.4601403646108035,2.7941460512630822,3.4836031660522115,6.003761008512142,1.8061837729206658
1.0773018925248312,1.86691918153759,1.5916502816278797,3.0320089796994836,3.8257170796857807,6.461682153034256,1.9336632143142571
1.1720516947866224,2.0580035292425825,1.7297657216099949,3.277084828478526,4.187041883585867,6.9274853861132,2.0638808662191646
1.2703286148139579,2.265893536888214,1.8745157821065699,3.528675296430178,4.56731933286914,7.399442366039286,2.1965390430866174
1.3719055431501483,2.491523076698821,2.0259027512743675,3.7860659615667385,4.966175578514794,7.8758038188338855,2.3313380949309965
1.4765419391533707,2.7358294042411333,2.1838958744734565,4.048542404110295,5.383120913238834,8.354809343496123,2.467975939443909
1.583990871018182,2.9997591313783456,2.348423491584111,4.31540141107615,5.8175515874409305,8.83469543763429,2.6061465097175267
1.6940050705860907,3.284251270542931,2.5193660609013193,4.585962580345848,6.268748684869479,9.31370430700163,2.745537632618855
1.8063392416407624,3.590210080947344,2.6965533345080948,4.859588161389633,6.7358735485638865,9.790093227230825,2.8858301246469917
1.9207499525429663,3.918479809465401,2.879770580198819,5.13570693410685,7.217965640329633,10.26214289568624,3.0266985955235466
2.0369962731431324,4.269817927250507,3.0687741568177507,5.413826417507178,7.713950846859482,10.728164726141664,3.167813245612132
2.1548438556347773,4.644864149303222,3.2633056813461048,5.693525792513824,8.222660623755372,11.186509088709919,3.308842325748371
2.274072159154901,5.044109635362717,3.4630952048787194,5.974438836365696,8.742850716111228,11.6355754256026,3.4494551099800344
2.3944800417155947,5.467871352053927,3.667856330240941,6.256241013875016,9.273212016949111,12.073821572603022,3.589324705500153
2.515885709278472,5.9162735727071905,3.8772796060858306,6.538651934778243,9.812379672382127,12.499769433487183,3.7281305542922203
2.638122723277863,6.389235726920862,4.091026699922578,6.821452296907908,10.358945984688525,12.912007850362372,3.8655613225279613
2.7610359661753945,6.886464240774164,4.30872684474084,7.1044964490791385,10.911473442826203,13.309194621599323,4.001318193923727
2.8844785866731466,7.407446930649706,4.529975660775907,7.387707948054485,11.468502976300547,13.69005805320283,4.135118027625626
3.008308578377217,7.951451319559402,4.754334365448468,7.671067469862342,12.028556487523568,14.053398633828738,4.26669607423617
3.132384309848263,8.517528610844987,4.98132855791777,7.954602892884084,12.590138272553226,14.398091579438365,4.395807463012237
3.2565600976221702,9.104523014315651,5.210448632099409,8.238379518735222,13.15174628495842,14.72308948204628,4.5222268380081525
3.380683394092937,9.711086214000872,5.441155225380958,8.522488372106574,13.711899014873095,15.027424836510946,4.645746751377523
3.504593899922544,10.335695623055777,5.6728899516935405,8.807036494981276,14.269172771698386,15.310213881561552,4.766175333848174
3.628123737624512,10.976671180501882,5.905085696066144,9.092141862813053,14.822246645326661,15.570661677903427,4.883333275906325
3.7510980982354942,11.63218845562206,6.1371730161160505,9.377929304217174,15.36995137562914,15.808066163765572,4.997051245205306
3.873337496341133,12.300292792969431,6.368588692077585,9.66452378096082,15.911307012934845,16.02181976052864,5.107169194637988
3.9946645584463014,12.978917114660662,6.598790088829896,9.952041088063753,16.445537999195285,16.211409297305998,5.213537225473737
4.114915882360755,13.66590002228675,6.827266423458898,10.240575809708846,16.972065030859973,16.37641612665812,5.316016754932211
4.23395388732978,14.359001980201688,7.053539307278777,10.53018686707686,17.49047698708251,16.51651713970041,5.414481231159083
4.3516728713155235,15.055920634036712,7.277157760729902,10.820883700474312,18.0004916723628,16.631485342505634,5.50881592018458
4.4679983068937625,15.754305044895089,7.497695431183989,11.112615980548384,18.50191762617833,16.721189311178925,5.598917070223534
4.582882632060376,16.451767720570302,7.714751005786782,11.405267131075602,18.9946264760372,16.7855928800531,5.684691390969642
4.696301884095125,17.145899109620512,7.927948780511883,11.698650075812074,19.478538126095167,16.824755483488214,5.766055930831611
4.808254817338524,17.83429656280962,8.136937442863358,11.992504017155582,19.953613125880686,16.838831583230807,5.84293746502133
4.918762280159407,18.514610227059965,8.341389440714563,12.286493021512635,20.419845451193478,16.82806818537793,5.915270815169215
5.027864218816038,19.184585330218336,8.541003539162354,12.580208504791159,20.877253557185153,16.792800885352946,5.982996866690387
5.135613829793806,19.84208140388796,8.735507484338257,12.873177256302117,21.325869757056132,16.73344936686621,6.046061593277455
5.242070151856121,20.485073263988927,8.92465690080561,13.164873660442732,21.76572611703288,16.650512850653815,6.104416327629378
5.347290999743356,21.111645992440874,9.108231661028622,13.454732363868105,22.19683655293925,16.544565222981582,6.158019315111027
5.451327116594302,21.71998793158181,9.2860325458205,13.742161824851365,22.61918091599195,16.41625030773522,6.206839231668887
5.55421824555286,22.308385952978536,9.457878869712076,14.026562184173935,23.032697397821693,16.26627820095887,6.250860099299869
5.655994098192093,22.875231852564642,9.623606793712794,14.307343535156196,23.437281919031737,16.09542163963406,6.290085616473901
5.75668107138592,23.419040657796888,9.78306795252598,14.583938116517476,23.832787332952993,15.904510753742166,6.324541696582858
5.856308394032368,23.93846690218223,9.936127275222727,14.855811253905806,24.219018360985014,15.694426239723835,6.35427734083547
5.954907874382755,24.432308720107002,10.08265977793037,15.122478109805309,24.595723749346348,15.466092102379216,6.379364247543762
6.052509915421683,24.899507797359465,10.222548064390343,15.383518343333765,24.9625878721228,15.220469455775975,6.399894966724902
6.149141159643098,25.339155728366773,10.355680993250385,15.638576705208132,25.31922388938226,14.958552043427536,6.415979606874098
6.2448244572977165,25.75050253931607,10.481951972066264,15.887352498850028,25.66517395337674,14.681362634772004,6.427742481892253
6.339578705261705,26.132956282980437,10.601256712620613,16.129589577914228,25.99992379789386,14.389950272763302,6.435320105525465
6.433417099066704,26.486071845634033,10.713491813530167,16.36507126017553,26.32292943731843,14.08538982625564,6.438860170233538
6.52634426377872,26.80953604118787,10.818554730081235,16.59361552694573,26.633641557419807,13.768783230694723,6.438520520254995
6.618353208972072,27.103159310159597,10.91634434516255,16.81506659291694,26.931520720036588,13.44126106792209,6.434468258854452
6.709422615583183,27.36688733404325,11.006761082327662,17.029284462649663,27.21605091060195,13.103988381227529,6.426879643320336
6.799515137351415,27.60083221977967,11.089706652399498,17.236134922854482,27.48675515013845,12.758176600954913,6.415940744968096
6.888577393528197,27.805297133038284,11.165084191819021,17.43548034821572,27.743206678966253,12.405091209749015,6.401848163727705
6.976541363144325,27.98077707269618,11.232798592195339,17.62717135424679,27.985034945870805,12.046046073390219,6.384809079860462
7.063326647513875,28.127951317909933,11.292756447595782,17.81103972523098,28.2119437263705,11.682390675486339,6.3650404746722735
7.148843554120579,28.24767996570683,11.344865699962234,17.98689417037549,28.42375228521081,11.315499952456449,6.342767398342888
7.232996810447526,28.340993230562283,11.389035595463282,18.15452067155633,28.620433917150542,10.946767024357303,6.318220068754952
7.315688788945066,28.409068998192158,11.425179070229735,18.313688237807757,28.80212131190793,10.577594415160707,6.29163086698284
7.396820388307333,28.453211290316847,11.453219923929733,18.464163334806155,28.96908498452053,10.209382638556665,6.263233321938432
7.476289046502186,28.47483333787698,11.473102279763923,18.605733317694902,29.121707962944893,9.843517998284373,6.233263132476518
7.553985541956249,28.475435217512164,11.484796312215169,18.73822662970541,29.260468440104777,9.481360868487073,6.201958656706577
7.629791366437272,28.456572439187397,11.488298774767554,18.861517649847176,29.385932099973715,9.124234949866354,6.169559186009759
7.7035773061016775,28.41982355966118,11.48363195895501,18.975519700566224,29.498746951151208,8.773418036414672,6.136301432019879
7.7752029183638065,28.36676589833284,11.470843399639953,19.080177420836648,29.599627739172316,8.430134442390647,6.1024148829341405
7.844516228709183,28.298961227746627,11.45000603578221,19.175465636895233,29.689326763380198,8.09554878542176,6.068116590583056
7.911353498946718,28.21794495201807,11.421219256491208,19.261393530679218,29.76860028843362,7.770760320321256,6.033606539589844
7.975539622011372,28.125211263693394,11.384611435241645,19.33800585206922,29.838179248905842,7.456798382742188,5.999065615987993
8.036890938444328,28.022194060845823,11.340341571012507,19.40537611450299,29.898747781883536,7.154623040057095,5.964658183293221
8.095223516782486,27.91025071868933,11.288597158827905,19.463596728217816,29.950931002531263,6.865132034667118,5.930537841414696
8.150366565441919,27.790659209855306,11.229589800277596,19.512775457305924,29.995290860289757,6.589165988830321,5.8968514881781315
8.202175453710314,27.6646325694759,11.163552131895376,19.553041552868443,30.032326010549152,6.327505345380791,5.86373935161611
8.250541721687686,27.533339291921102,11.090736262693492,19.584555453145615,30.062472043805364,6.08086415990823,5.83133281737611
8.295401501537558,27.397915209490538,11.01141154965463,19.607516717944243,30.08610070710581,5.849887691575449,5.799751853218033
8.336739332759189,27.25946454164895,10.925861306350455,19.622172498359873,30.103518649427382,5.635151548477517,5.769102428930263
8.37458403914758,27.119056138081625,10.834379219182662,19.62882717978104,30.114966678773953,5.437157283840934,5.739473854222255
8.409000590735966,26.97772289965644,10.737265570520115,19.627845834604692,30.12061951928857,5.2563256285906785,5.710936382547982
8.440082856297071,26.83646704660082,10.634823898268273,19.619646122742367,30.120587270794083,5.092991493941559,5.683540852093262
8.467947721321053,26.696261256098328,10.527359683657554,19.60468435965448,30.114921687466634,4.947401522769223,5.657321908849297
8.492729451130417,26.558035842362862,10.415184089787724,19.583443921666706,30.10362647897873,4.819712755515114,5.632303568572947
8.514573927321743,26.422657085523685,10.298626744947942,19.55642558680649,30.086664947090835,4.709991902109947,5.608504295694739
8.533633409624994,26.290908100115328,10.178054019078218,19.524135939351325,30.0639600840398,4.6182153400856745,5.585939570445198
8.55006316323619,26.163476779794344,10.053879623364493,19.487074380198298,30.035389384167658,4.544269521804183,5.564621278852926
8.564020338159393,26.040947913177867,9.926560971146381,19.445720849187385,30.000780098965265,4.48795179895155,5.544555741741517
8.575663075572281,25.923795278376566,9.796588791402435,19.40052449069853,29.959910287577838,4.448972749228255,5.525744463060002
8.585147508931172,25.812373015731673,9.66447854022445,19.35189331262079,29.912518302120144,4.426960594102476,5.508189117793969
8.592622963507473,25.706909388917957,9.530764468814397,19.3001855513696,29.858320669917546,4.421466660583651,5.491896930232176
8.598227129038701,25.60750733600879,9.395993487200931,19.24570330520662,29.797041147904338,4.4319710113691215,5.476882476323804
8.602081983273035,25.51415203596097,9.260717581562847,19.18868886295742,29.728448512442682,4.4578884703787995,5.463166525435348
8.604290280657631,25.426719318823714,9.12548610631173,19.129324846352812,29.652383841774505,4.498575353684311,5.450774102218974
8.604932855082474,25.34498040519977,8.99084012221742,19.06774022963488,29.568763234595654,4.55333714156674,5.439732481465223
8.60406760563604,25.26860517648269,8.85730998017835,19.00402218530339,29.477566451374113,4.621436584548349,5.4300692949904645
8.601730304710724,25.197167694605437,8.725414908110801,18.93822872519332,29.37882571360237,4.702100326456367,5.421810355404416
8.59793649718274,25.130156692663444,8.595661656653679,18.87039692176103,29.2726166755083,4.794522772675208,5.414976205312202
8.592684143590947,25.066991805979608,8.468540496548686,18.800546991777782,29.159051286238732,4.897869732087012,5.409577692811096
8.585956708422392,25.00704145152832,8.34451912214821,18.728685385737542,29.03827566779657,5.011287957818553,5.405612330479029
8.5777254914013,24.9496384281124,8.22403604153263,18.65480824499666,28.910473574121802,5.133921814746485,5.403062726864623
8.567950503202788,24.89409425356401,8.10749516654,18.578904703939568,28.775870507885674,5.264929673449399,5.401896753864247
8.556580965460457,24.839711993817133,7.995263121597364,18.500959474721633,28.634733376328143,5.403497497292611,5.4020681970371225
8.543556593643654,24.785797397640184,7.887670465833318,18.42095426593336,28.48736591916637,5.548853815756208,5.403517534315419
8.528809510367086,24.73167835352601,7.785016514174923,18.338867418107743,28.33410302054498,5.700281342393654,5.406173498563077
8.512266110235023,24.6767380975152,7.687574318815955,18.254671962095344,28.175304574661208,5.857116542372677,5.409955266778161
8.493848321345897,24.620443442186495,7.5955928622854,18.168333246765595,28.011348111750998,6.018739744861153,5.414774187013152
8.473474091129372,24.562349821580238,7.5092991121277555,18.079807623696336,27.842620378773177,6.184564324261694,5.420534567319251
8.451057510979629,24.502090631494504,7.428902912488974,17.989044332835807,27.669507925736532,6.354028685890464,5.427134102378018
8.426509195190715,24.439365652207098,7.3546009941265895,17.895993496784392,27.492386496896085,6.526590272617492,5.434464414014934
8.399737546960509,24.373936045292233,7.286577621824542,17.8006207172505,27.311610450087546,6.7017207876214915,5.442411144532743
8.370651275130072,24.305630568270058,7.225009253183412,17.70292258507028,27.127506462377784,6.878903042367383,5.450853559407522
8.339162350315005,24.23435765129547,7.170077930035041,17.60293612594694,26.940377904264125,7.057629061051958,5.45966539291871
8.305188456361865,24.160107339240184,7.121982736055356,17.50074172812014,26.750520291428376,7.237397902059853,5.46871819281516
8.268655932290875,24.08293672000601,7.08093874355356,17.396464166408244,26.558236561887192,7.417712353982133,5.477886110151965
8.229503733562193,24.002950456873187,7.047169796899285,17.29027551916208,26.3638409523843,7.598076279137992,5.48704988945754
8.187685843453602,23.920293862444613,7.020905438460886,17.182398570252893,26.167653612309717,7.7779970202188045,5.496098237289744
8.143170739522667,23.835163048299915,7.002379893876768,17.07310452497874,25.969993692545003,7.956993807627285,5.5049262108713615
8.095940484131138,23.74781482114856,6.991825967012383,16.962702002264795,25.771172792053687,8.13460550634548,5.5134321493640215
8.045991271849314,23.65855879247468,6.989463793548721,16.85152148899305,25.571489893539415,8.310392134399882,5.521515637950881
7.9933340596867914,23.56773775272666,6.995489119029291,16.739901477151896,25.37123058497071,8.483931945443096,5.529077978944151
7.937994291408578,23.475715555035876,7.010063442696663,16.628179043630492,25.17066817140102,8.654817786642523,5.536024567592178
7.880011684512079,23.382880780408705,7.033305750993913,16.516682588592694,24.970064281154144,8.822655371088365,5.542267561160168
7.819440327313975,23.28965477887482,7.065286545047135,16.40572307856676,24.76967202736041,8.987064908641413,5.547727788509436
7.756348063667654,23.196488599860754,7.106027140056127,16.295583962878883,24.56974133086382,9.147684233141375,5.552335999743266
7.69081529124261,23.103849369832098,7.155504949963592,16.186512644044377,24.370523331145225,9.304170251484173,5.5560340886568635
7.6229342347963405,23.012207333850153,7.213659407804992,16.07871542949196,24.172276260655902,9.456199265099642,5.558776532298269
7.552808198840113,22.922026490393904,7.2803937341283,15.9723558576006,23.975272251174587,9.603471233800054,5.560531834918816
7.4805494486203585,22.833752629213016,7.355575217716779,15.867554087924342,23.779796763958796,9.745719741315419,5.561283123778502
7.4062764030224795,22.74779703005043,7.439038105549692,15.76438491249371,23.58613805775713,9.882719915075347,5.5610270798898265
7.33011220110655,22.664520994762412,7.530586847500517,15.662874724474147,23.394573843830166,10.014286922341467,5.559772191868649
7.252184677020855,22.584225843756492,7.62999500560247,15.562999502318432,23.205361433778894,10.140267719197787,5.557537829576903
7.172625715867761,22.507150987498132,7.737000006769507,15.464684933611455,23.018732414151465,10.260532155941823,5.554353585207197
7.091569430486313,22.433479084503034,7.851297621955634,15.367808882653692,22.834890045159796,10.374965868748255,5.550257479207121
7.009150755347354,22.36334125737718,7.9725385414983245,15.272206189919258,22.654008002552978,10.483465020754869,5.545293532713224
6.925505347901098,22.296816762416455,8.100327324523338,15.177674936097791,22.476230532040013,10.58593305148495,5.539511159726553
6.840770146832095,22.233928597299325,8.234224045045037,15.083983431223471,22.30167283031145,10.682280207975033,5.532967400922914
6.755083773017986,22.174638910541425,8.373748173005037,14.99087825328541,22.130419057628465,10.772426167899496,5.525729530592924
6.668586381682829,22.11884642956542,8.518382646836866,14.898092220797409,21.962517399596603,10.856304189242719,5.517875200264657
6.581419197525766,22.06638646753443,8.667577546832511,14.80535002881401,21.797975688109798,10.933864528940495,5.509490149105659
6.4937241987118925,22.017035546207484,8.820754786953641,14.712372168240362,21.636762878083196,11.005078409647263,5.500665581869839
6.405643650723727,21.97052572971346,8.977313471215483,14.618879961956717,21.47881748325279,11.069945457708146,5.491496801897244
6.317318843210448,21.926570741976736,9.136633579377259,14.524602244826115,21.32405778250193,11.128501376371693,5.4820828844320895
6.228887923789634,21.884901392538314,9.29807826921803,14.42928150894653,21.17238870835799,11.180819274614036,5.472526519649173
6.140483167091156,21.84530429254649,9.460998978184902,14.332677874131207,21.02370700259257,11.227004266404236,5.462933717835284
6.052228374534103,21.80764855939535,9.624745464096941,14.234572286375233,20.87790785285813,11.267186024566984,5.453413128359052
5.964237514498929,21.77188671962897,9.788677694063987,14.134774293833559,20.73488977945186,11.301512208360307,5.444074235998513
5.87661562307865,21.738035124726878,9.952177012760783,14.033136777936951,20.594555026659414,11.33014337806302,5.435024261955061
5.789461673530396,21.706149974687442,10.114656388603587,13.92956928545298,20.45681250181876,11.353250281085005,5.4263650089450195
5.702871784217515,21.676311104696392,10.275567547737548,13.824043017195464,20.32158936543532,11.371013784840352,5.418190666410279
5.616941695774843,21.64861737527817,10.434404203191708,13.716594129627504,20.18884295482551,11.38362519652281,5.410586036940018
5.5317684673610374,21.623188744428774,10.59070553470446,13.607330398638164,20.058562308974054,11.391283899807577,5.403624603547906
5.447451498508805,21.60016641551758,10.744060728646115,13.496433520075534,19.930766420989507,11.394192019499243,5.397367187730084
5.3640932450195615,21.579704884109482,10.894108716437149,13.384151357628935,19.805517543497103,11.392548509193993,5.391862478197962
5.28180006938639,21.56195695315735,11.040530985237007,13.270784615243446,19.682951083150595,11.386544362712081,5.387149899325579
5.200683581504225,21.5470596353723,11.183043301207045,13.156673054131197,19.56330067041401,11.376359374990882,5.383263668135252
5.1208624785663694,21.53512537479696,11.321391138687098,13.042182206080689,19.446903557247627,11.362161046372933,5.380235856590643
5.042463797218222,21.526235216652047,11.455347114890715,12.92769041686464,19.33419216609619,11.344105401065882,5.3780972336868755
4.965622699813049,21.520431148587612,11.584707384221701,12.81357690386947,19.225678286467122,11.322338414846168,5.376876550631167
4.890480916525638,21.517709432766363,11.70928682952024,12.700211786905962,19.121931848424452,11.296997516202564,5.376599516083705
4.817183697711451,21.518016540327306,11.828913756038459,12.58794830894826,19.023560973695034,11.268213938924939,5.377287809188023
4.745875729171688,21.521246526947678,11.943424678623956,12.477117393201995,18.931196197865255,11.236117896354274,5.378958414719239
4.676697620966798,21.527238069205538,12.052660635225656,12.368025026463343,18.845473451505534,11.20084677459,5.381624048786405
4.609783465668965,21.535771751115828,12.156467119874332,12.260951738494763,18.767015078871246,11.162551163337227,5.385294064072156
4.545258636259732,21.546571060335026,12.254699818854512,12.156152327038821,18.6964143171889,11.121394122218216,5.389974243815288
4.483237686324463,21.55930849802035,12.347234572028057,12.053854992032642,18.634224098561205,11.077546545873208,5.39566542498569
4.423823594676364,21.573612573041725,12.433974499169206,11.954260156485459,18.580946753579905,11.031183610973667,5.402362684351248
4.367110021529464,21.58907193722464,12.514849655246996,11.857539885139488,18.53702317566061,10.98248270138854,5.410056493074342
4.313185985128773,21.605240016979277,12.589811385601859,11.763839041288026,18.502821647941225,10.931620538842811,5.4187346494170905
4.262139450223809,21.62164597954859,12.658825013276877,11.673277591902545,18.478626383736867,10.878768900119677,5.428383054729322
4.21405752239496,21.637811664810467,12.721862912921091,11.585953016027249,18.464626926415434,10.82409047624006,5.438985939421628
4.169023999130531,21.653267559123126,12.778900595469752,11.501943719331779,18.460910426766436,10.767736821835214,5.45052658510141
4.127115753090372,21.66756216113704,12.82992019526751,11.421314034915039,18.467457187625516,10.709850490535542,5.462987492145753
4.0883995829555975,21.680267410544623,12.874921962830646,11.344119761235703,18.48413879705432,10.650572041210117,5.4763488745907924
4.052930861783956,21.69098716035038,12.913935300080292,11.2704125534624,18.51071988037593,10.590047776401478,5.490586090746496
4.020753278164322,21.69936769165488,12.947020667503795,11.200241269007332,18.54686465515188,10.52843264822063,5.505667611056327
3.9918986701227785,21.705101148511083,12.974264517276984,11.133650395233989,18.592146323646404,10.465888340693626,5.521554552236064
3.9663880294018576,21.707918631733783,12.995775095417406,11.070678966521324,18.646056558748434,10.402580414292139,5.53820110122424
3.94423507487065,21.707578874881076,13.01168238805262,11.011363555414565,18.708014459910668,10.338675943913264,5.555554448721673
3.9254519974988975,21.70385864542926,13.022140883488312,10.955744261195216,18.777376097579516,10.274340375742192,5.5735541980565095
3.9100549767431,21.69654972735401,13.027332657527081,10.90386883146625,18.853447976638304,10.209733527928229,5.592132043966769
3.898066424948395,21.685465925352666,13.027467248809483,10.85579422424846,18.935505293776988,10.1450065885925,5.6112115535659175
3.88951329218617,21.67045445235332,13.022776174704568,10.81158833761932,19.02280869535545,10.080301338500648,5.6307077761165765
3.884423666492781,21.651400374693555,13.013503819235305,10.771330066625149,19.114615221992,10.015750801431226,5.650527951180822
3.8828239338349353,21.62822257126354,12.999897669777997,10.735104862229157,19.210188133592453,9.951479562948714,5.670574736803414
3.8847368499159165,21.600869171068407,12.982199677303305,10.702998445037041,19.308810536994894,9.887603139938355,5.6907509034498815
3.8901793082951017,21.56931532743907,12.960639771767024,10.675093585444015,19.40980322946255,9.824227268442142,5.710962842349441
3.899159091909376,21.53355980090748,12.93543220769001,10.65147065817742,19.512547403588943,9.761447549650349,5.731122095555184
3.911671537405183,21.493619661691977,12.906774702768804,10.632206660709604,19.616507887931665,9.699348859917029,5.7511459188472625
3.9276968765605202,21.4495247540673,12.874849613461626,10.617368526632452,19.721243204704347,9.638004451337048,5.770956771926822
3.947197922535011,21.401310972026454,12.839826222244563,10.607003398140266,19.82639499277456,9.57747577266181,5.790480128300612
3.9701180976618353,21.349011328747167,12.801862953219157,10.601130399054135,19.931667067054935,9.517813161790887,5.809642171887366
3.9963807443647927,21.29264688173081,12.76110909097063,10.599736108778238,20.036809876751605,9.459055622484277,5.828369746343087
4.025890465995646,21.232220427406013,12.717709317072345,10.60277506616689,20.14161434564469,9.401228650161709,5.8465926876743
4.058535445604806,21.16771394721981,12.6718145245863,10.610175079486323,20.24590762410987,9.34434187181522,5.864247788803604
4.0941887820873974,21.0990886477357,12.62359429986832,10.62184341406853,20.34954773861627,9.288388758969626,5.88128456069884
4.13270861432124,21.0262864688355,12.573242662918423,10.637669141629699,20.452421876452103,9.23334859643885,5.897670990170591
4.173937951382815,20.949233602553573,12.520975732581121,10.657520848167673,20.554448723173685,9.179189866226489,5.913395382474298
4.217704558312055,20.867846560919684,12.467025518698888,10.68124265146098,20.655580379461092,9.125874602321467,5.928464277312733
4.263821453198219,20.782039555600818,12.411632534335178,10.708651919802847,20.755801023262453,9.07336251971296,5.942901238208495
4.312088864256926,20.691730929900533,12.355038236745125,10.739539808589242,20.855120334395345,9.021612722751648,5.956748522043506
4.362297364153841,20.596846809259127,12.297478537531106,10.773673310280437,20.953561247504137,8.970582461867084,5.970067933416913
4.414230843954954,20.497321602516507,12.239178976152102,10.81079691286275,21.05114720839442,8.920225266993654,5.982937996719724
4.467668505932428,20.39309646337147,12.180350934538652,10.850632724914876,21.147898863692774,8.87049131851194,5.995448964813272
4.522386845398237,20.284116926424595,12.121188370924187,10.892879653040774,21.243844194751432,8.821330860645661,6.007697895244999
4.578164035452916,20.17033045553584,12.061864912586417,10.937213347010855,21.33903009146758,8.772698413231817,6.019784265032717
4.634787147312246,20.05168491678069,12.002530768226958,10.983287758434797,21.433519846818594,8.724554307399865,6.0318056913814875
4.692058574913498,19.928129057666094,11.943309433609103,11.030738702745472,21.52737756374159,8.676862786577091,6.043853678884791
4.749798301411103,19.799614891011046,11.88429634276501,11.07918970334659,21.620651635315383,8.629589095356044,6.056010144881682
4.807842990031753,19.666100374643907,11.825563218400148,11.128258945074379,21.71336387413562,8.582697689903013,6.068345191162354
4.866045871550002,19.527551336182537,11.76716796455717,11.177566352574079,21.80550374849878,8.536152074726647,6.0809154018028515
4.924280113421309,19.383943826673857,11.70916309589188,11.22674092766112,21.897026115590588,8.489916242523304,6.09376193705363
4.9824435985753155,19.23526867015137,11.65159741029628,11.275427224031473,21.987850672890332,8.443956990781173,6.106908781369778
5.04046095526466,19.0815415000464,11.594513337568953,11.323289104719345,22.07786083546887,8.398245285907228,6.120362249685411
5.09828165634105,18.9228231565326,11.537944060714489,11.370010125411435,22.166900452742286,8.352755333153253,6.13411276672017
5.155876408703957,18.759245277255044,11.481912542360522,11.415291421035267,22.25476968622226,8.307461788667784,6.148138622227782
5.2132350324546675,18.591023611475126,11.426433080716643,11.4588493473293,22.34122723847456,8.262336318509282,6.162409796306626
5.270366791092761,18.418451095935296,11.371512880087154,11.500414180093156,22.4260067147416,8.217344638946894,6.176890159091481
5.327300934246702,18.241883242423807,11.317151176043161,11.539729022382456,22.50884169036129,8.172445093879945,6.191538041774357
5.38408535033068,18.061731778834563,11.263337201632499,11.57654917072661,22.58948187818128,8.127589063703361,6.206306152929797
5.4407832723228795,17.87846722684218,11.210048338695001,11.610645385261725,22.6676919917905,8.082722735831764,6.221141917796446
5.497468840563193,17.69261781396393,11.157248061649435,11.641813799814553,22.743244625025458,8.03778969181981,6.235989788741675
5.554223015692942,17.504757072799258,11.104884984075312,11.669889158784851,22.81592435049907,7.992733848766467,6.250796210754902
5.611131463981215,17.315485471787948,11.052896089044989,11.694754675973945,22.88554779875764,7.9475025033904645,6.265514362937848
5.668284351806394,17.125415978759325,11.001213871685808,11.716345393013542,22.95198664420439,7.902048997402689,6.28010483657439
5.72577660974655,16.935172121751947,10.94977222180298,11.73464611999532,23.01517571165187,7.856333938355401,6.294533114073597
5.783707347208591,16.745398408357314,10.898507383699357,11.74968683461892,23.075101827310537,7.8103244014549364,6.30876799793421
5.842177627708491,16.556768814074896,10.847355423041645,11.761537394765256,23.13178319433313,7.763991763425889,6.322782600476987
5.901286533638963,16.369981703268074,10.796248922356805,11.770299982029563,23.185251120790348,7.717309268092614,6.33655618370852
5.96112630988282,16.185745605991617,10.745114467177082,11.776098439081691,23.235540210149807,7.670250093201258,6.350074623754342
6.021778606078196,16.004763294595257,10.693871374262226,11.779067403638555,23.282686038265485,7.6227864041921904,6.363328519958305
6.0833150743559194,15.827715140008385,10.6424325509013,11.779343352354639,23.326726410101355,7.574889639174493,6.376309817656164
6.145802464862999,15.655242173535923,10.590711419416921,11.777057089050238,23.367705513221527,7.526532066501077,6.389008902387409
6.209306293535739,15.487931392573097,10.538635969388679,11.772327144493158,23.405681435904935,7.477689623893163,6.401413351859862
6.273888945402105,15.32630535933285,10.48616132113685,11.765254050364154,23.4407330309272,7.428345343190828,6.413507661206838
6.339605301556707,15.170817024293981,10.433272969273224,11.755915989573296,23.47296108944516,7.378491560114218,6.425272418540902
6.40649886574956,15.021849771823698,10.379984088629024,11.744367025564028,23.50248523003463,7.328129594220499,6.436682646474143
6.474597431401189,14.879720293333174,10.32633369644069,11.730638306893505,23.529443684148745,7.277267631303894,6.4477065834937575
6.54390860291069,14.744681199539013,10.272386733901584,11.714741162855566,23.553997859957754,7.225918658367127,6.458306209053419
6.614417601246985,14.616924916065589,10.218232973875953,11.696670491886827,23.576332977473708,7.174099149996152,6.4684394617736425
6.686087674758773,14.496592127252397,10.163982928772674,11.676407942198377,23.596648957404255,7.121827440096387,6.478062452516557
6.758861435780087,14.383784229821115,10.109761762524684,11.653926912922039,23.615146881974546,7.069121322560268,6.487130284328006
6.832662411995437,14.278581302011721,10.055702609478022,11.62920085722795,23.63201654522612,7.015996825746532,6.495597807024825
6.907396633637613,14.181065885376665,10.001939650683344,11.602213185106361,23.647425800338443,6.9624695925959825,6.503422202231912
6.9829532969481525,14.091341050895654,9.948600974974141,11.572968418819116,23.661514426903814,6.908556738005728,6.510566067697541
7.0592037377463335,14.009537755307614,9.895802341944739,11.541505364289431,23.674394936810046,6.854276353280793,6.516998277972473
7.135999340607239,13.935827761303402,9.843643967491538,11.507910026327936,23.686154723562332,6.799644962725626,6.522692739314612
7.213170540678497,13.870448787233514,9.792210793812023,11.472328566893413,23.696853069147267,6.744675386630383,6.527627068989027
7.290528931290291,13.813722035977648,9.741574121956464,11.43498188562466,23.706515392388415,6.689377008469579,6.531781504942334
7.3678724384171765,13.766049403132628,9.691792714183265,11.396174536040384,23.715129583950127,6.633759085446083,6.5351370745032895
7.4449917102807905,13.727899044854302,9.642913454515604,11.356291037653175,23.72264428959828,6.57783675302375,6.537673056975043
7.521674964433042,13.699784446889426,9.594972459359496,11.315784705807799,23.72896737324234,6.5216387058544285,6.539364325649394
7.597709741558542,13.682235239220109,9.547996815631446,11.27516562389824,23.73396474106189,6.4652144671080505,6.540179323088944
7.672883061518526,13.675766083700937,9.502005995583474,11.234987505788178,23.737461836714562,6.408638728747851,6.54008008790864
7.7469819075895865,13.68085360453803,9.457012041733982,11.19583192188388,23.739250456371895,6.3520118382027215,6.539025047420978
7.819793574162212,13.697923288466129,9.41301915785197,11.158290872366106,23.739098747218108,6.295457639713694,6.536973346670917
7.891104553625537,13.727340455054463,9.370024183797627,11.122950182720702,23.736757571215296,6.2391202468264195,6.53388859526509
7.960698398454939,13.76939988069638,9.328018196532215,11.090375744835645,23.73196097824831,6.183160242396554,6.529740580084353
8.028354424229077,13.824313755498869,9.286987924426514,11.061102324332362,23.724426904279234,6.127750318933623,6.524504605817043
8.093847950590515,13.89220073588345,9.246915770254677,11.035623049279138,23.71386308082061,6.073070654787416,6.5181589076234525
8.156950861830705,13.973079155823667,9.207778432646151,11.01437885521146,23.699974139517575,6.019304141489092,6.510681077548128
8.217432298894304,14.066864802770898,9.169544956863014,10.997748798091592,23.682466334761166,5.966631564145426,6.502044700966455
8.275062980330798,14.173369724745886,9.132176123758814,10.98604211202962,23.661058506667448,5.915227636246949,6.492217450063964
8.329625394265504,14.292299578740682,9.095627793991522,10.97949284273835,23.635506870931618,5.865258748821595,6.48116176324339
8.380924264770425,14.423252665743563,9.05985783181259,10.978257697288335,23.605632764943085,5.816882024669748,6.468838307596709
8.428790272359253,14.56572387118227,9.02483243988506,10.982416091644994,23.571337219815288,5.7702449154291715,6.455210842432981
8.473078048476701,14.71911036503633,8.99052958951799,10.991971393044736,23.532599023656424,5.725485116399854,6.440250242540722
8.513663847184269,14.882715107988007,8.956941223691173,11.0068545491072,23.48946400279236,5.68273061012538,6.423935862710393
8.550445551258324,15.055749173385857,8.92407535004328,11.026931844150521,23.442037001235143,5.6421000884357895,6.406254023941277
8.58334402514021,15.237334950555018,8.891956092371487,11.052018392986296,23.390480199609307,5.603703949677095,6.387195525697873
8.612303222728316,15.42651068201983,8.860619754828898,11.081897351386145,23.335009261223057,5.567644261068588,6.366754705718352
8.637287768445935,15.622237085197355,8.830109447135253,11.116339695314315,23.27588446053069,5.5340119854978,6.344930724421164
8.658279720109233,15.823408389405603,8.800475118557397,11.155121013102647,23.21340729257942,5.502882574099919,6.321729825087091
8.675277278747547,16.02887014287437,8.771782324579917,11.198040158114745,23.14792819051817,5.474312753139821,6.297167124259894
8.688295637176138,16.237440834934663,8.744122931780222,11.244940007812813,23.079858768447952,5.448340119314512,6.271267029570441
8.697367376727328,16.447930094423242,8.7176175670533,11.295719775311266,23.009679736088433,5.424985051637834,6.2440626549385
8.702540711208876,16.65915287831338,8.692408405233229,11.350335676332682,22.93793705632936,5.404253547869979,6.215596042080169
8.703876125060209,16.86994545508643,8.66864890855818,11.408797429743382,22.8652237457837,5.386139424303264,6.185919837084914
8.701442560974854,17.079182320133764,8.646495439261702,11.471162575498695,22.792153730189085,5.370624749937844,6.15509848670471
8.695314247026767,17.285786806658507,8.626101488265693,11.537525671303237,22.71933627121928,5.3576793851786215,6.1232072465895175
8.685568909111387,17.48873297155405,8.607613867353392,11.608003862626465,22.647354278287278,5.347261841015547,6.0903298134904365
8.672287277304145,17.687042349039125,8.59116962453208,11.682722427203792,22.576746186618063,5.339321889192543,6.056556083167558
8.655552841148687,17.879779681750517,8.576893067221599,11.761801354149103,22.507991504856776,5.333802804444695,6.0219800413071045
8.635450996758687,18.066049651670244,8.564893204994949,11.845342465948542,22.441500745147987,5.330641514286147,5.986697387123286
8.612069198796716,18.24499475705892,8.555261050113987,11.933417499505996,22.377608628109538,5.329767723223337,5.950803788335646
8.58549995632714,18.415794435385443,8.54806591782943,12.026057889173515,22.316568527691256,5.331104390534149,5.914395303265602
8.555844328633098,18.57766562667761,8.543351402825142,12.123245757793633,22.25854783589424,5.334570530919824,5.877570965356607
8.523212776966245,18.72986355492556,8.54113294854067,12.224905432508608,22.203625196425097,5.340086271967324,5.840435183337392
8.487724236481709,18.871682400899527,8.541398142504995,12.330896148505419,22.15179076082096,5.347580067931149,5.803098177739687
8.449505364365073,19.00246006588159,8.544108448511386,12.44100782486059,22.102951439822178,5.356996181006326,5.765675743265168
8.408689933438373,19.12159213144815,8.549200078920414,12.554961402279625,22.056941043082848,5.368299521594081,5.728290213319736
8.36541807313723,19.228552500666105,8.556584449423884,12.672412983993565,22.01353079274533,5.381477410431168,5.691072510504318
8.319835659151378,19.32290986024709,8.566151562712863,12.792959466313473,21.972438812123006,5.396539582671874,5.6541636771057515
8.27209341853311,19.404331290425112,8.577776559863144,12.916146311995558,21.93334233050772,5.413517541934882,5.617713905630383
8.222344996621661,19.47257469599629,8.591324563027012,13.041482961691042,21.89589112985536,5.432463773950657,5.581878852947589
8.170744744861194,19.52747690922063,8.606650939095848,13.168466153783978,21.859715851655142,5.453449614145231,5.546815685732809
8.117446938938143,19.568940977817213,8.62359973268772,13.296598889423985,21.82443226681863,5.47656026994463,5.512680728266831
8.062606714273953,19.5969247190618,8.642004711930287,13.425395093923555,21.78965560490662,5.501887725598587,5.479627912224609
8.006381702758102,19.611436556231684,8.661694710250377,13.554375508137744,21.755039900796685,5.529522981378776,5.447806956568681
7.94893447410603,19.612542334362313,8.682499952869943,13.683065172708526,21.72033430675192,5.559549238615747,5.41736162789329
7.890437607803244,19.600374960896055,8.70425461119913,13.810995251353168,21.685426012337555,5.592040313604307,5.388428097075262
7.831081478275149,19.57513473900207,8.726795017061967,13.937706481560319,21.650350061214873,5.627067141299452,5.361132322849165
7.771080566539146,19.537079726244297,8.74995626655098,14.06275241265052,21.615273298888848,5.664706835512837,5.335586557961061
7.710674629704779,19.48651577741635,8.773569068185536,14.185703095087261,21.58047060894216,5.705046215067851,5.31188670027757
7.650125343930959,19.42379267885696,8.79745726557569,14.306149885390864,21.54630381417713,5.748178703246219,5.290111205935581
7.589710090422228,19.349303374339,8.821436782655448,14.423708769914612,21.513201666467165,5.794198162730801,5.270320634643211
7.5297143046512085,19.26348079999177,8.845316713147206,14.538019163619902,21.48163639076636,5.843192635111876,5.252557328823721
7.470424258369454,19.166791417981745,8.868902697510595,14.648741060669343,21.452097094379653,5.89523960464218,5.236845360024826
7.4121211232919935,19.059728425350727,8.892004147968164,14.75555562334826,21.4250637642795,5.950402597355059,5.223190306144652
7.355076045267983,18.94281411583004,8.91444732911255,14.858169371567024,21.400987344830078,6.008728400302287,5.211579048797651
7.2995458597818095,18.816627348555542,8.936090668122114,14.956319869203927,21.380281102756772,6.070246339858422,5.201981099317079
7.245769005856447,18.681852954331205,8.956833728310864,15.049780750003512,21.36332056800082,6.134970622159709,5.19435211456744
7.193961549226238,18.539317555267427,8.97661661302058,15.138362432995555,21.350441293541323,6.20290270741731,5.188638339767826
7.144314192677419,18.3899858515635,8.99541423602338,15.22190751956236,21.341930166236935,6.274030432396683,5.184780114573774
7.096991247006791,18.234930073569554,9.013229852872398,15.300285292614134,21.338020177149502,6.348324102481426,5.1827138822835845
7.052131646915465,18.075294843358524,9.030089157773958,15.373390570254218,21.33889817046607,6.425731418094637,5.182373488174338
7.009852855422574,17.912265159421818,9.046034381915769,15.441148549819717,21.344718480601937,6.506173190982541,5.183691149255795
6.970260048542529,17.747038091453344,9.061117126871666,15.503522801914901,21.355607754559934,6.589541843787323,5.18659841237107
6.933458907623716,17.580799439309477,9.075390554274195,15.560520645700922,21.371658590860935,6.675704136781796,5.191028035124666
6.899565567360133,17.414705909322034,9.088903353637342,15.612191237723367,21.392920017341243,6.764507056214156,5.1969161800018995
6.868713772447398,17.249871014470962,9.101696221299033,15.65861662242098,21.41938939378227,6.855782819255773,5.204202656680603
6.8410641996180965,17.08735264302147,9.113799512729502,15.69990000750909,21.451006489751926,6.949351871372237,5.212828617312563
6.81681154801411,16.928142092447924,9.125231093782029,15.736155211399172,21.487652485123803,7.045028405723746,5.222733433131364
6.7961817808323515,16.773155608742425,9.135994271793788,15.767498734256138,21.529157403081257,7.142629748528219,5.233852316511865
6.779421873409527,16.623228299158818,9.14607625221625,15.794045057036614,21.57531299684762,7.241984130488049,5.246114736212475
6.76678846631373,16.47910851814496,9.155448018708233,15.815906555761567,21.625882593481847,7.342933340262467,5.259443246489322
6.758538105240913,16.341451988838745,9.164065667815416,15.8331974554795,21.68060790902871,7.44533168532903,5.273753497419221
6.75491961407861,16.210818050478352,9.171871978487099,15.84603694584932,21.739219661598163,7.549042761602704,5.288956302187467
6.756167799061055,16.08767252297571,9.178797215755385,15.854547218635489,21.801447864118625,7.6539348939658955,5.304960677319687
6.762496865629021,15.972397892045898,9.18475890695877,15.858847527526661,21.867022882242082,7.759876657002547,5.321675732439223
6.774094270758189,15.865302992852275,9.189660937867412,15.859047818287223,21.93567097620173,7.866733629598702,5.339010507664352
6.791117089227508,15.766624998715184,9.19339361948913,15.855244704299961,22.00711355638237,7.9743664943454196,5.356872684155738
6.813690248943646,15.676526511196888,9.195836055587332,15.84752242042762,22.081071798650843,8.0826296030676,5.375168027674137
6.84190458990959,15.595094188427563,9.196859281136552,15.835959459479122,22.157273394584475,8.191369285082807,5.3938013936105405
6.875814437956071,15.522340757692948,9.196328365088384,15.820636213102437,22.235461600777878,8.300422262296976,5.412678316218106
6.915435130953257,15.458207798330633,9.194104456014626,15.801637336875292,22.31541127010365,8.409615415981106,5.431706507619221
6.96074099536966,15.402566471456439,9.190048650783961,15.77904827365833,22.39694917966464,8.518768168014523,5.450797663514857
7.011665528700207,15.355216503529114,9.184028371171303,15.752950455005752,22.479962828263584,8.627696562790483,5.469869485791077
7.068105046587756,15.315885334366738,9.175924995148758,15.723420928125334,22.564388233135325,8.736215427076045,5.4888486543213775
7.129924050027717,15.28422831340171,9.165639929063161,15.690542913195848,22.65018630703637,8.844136225710818,5.507676948585568
7.196960041406362,15.259830784936925,9.153097386625209,15.654427516565047,22.737320332107746,8.951261998067658,5.526319137540352
7.2690270246204784,15.242215286617213,9.138244003977128,15.615233699399393,22.82573703525066,9.057382188476856,5.544766867223315
7.345916409699895,15.23085842438413,9.121046400454427,15.573173681503809,22.915349882448627,9.162269133346758,5.563035934393782
7.427394460352272,15.225215000967186,9.1014892535582,15.528505212989886,23.006025338741004,9.265676941583031,5.581160079546338
7.513198084205074,15.22473765510117,9.079575434734494,15.481518758485032,23.09757374977285,9.367342922286685,5.599184601937704
7.60303168861731,15.228884789978498,9.055325775707447,15.432523691832968,23.189746125327225,9.466990285272118,5.617160606757276
7.696566091827781,15.23712057500546,9.028775947156827,15.381834712235989,23.282236009855872,9.564330237246088,5.6351402695685255
7.793438503530098,15.24891390636127,8.999971427383255,15.329760157418903,23.374682706245032,9.65906384593326,5.653173689760745
7.893253158841647,15.263746160328369,8.968962481161686,15.276593695215938,23.466673728028763,9.750885196716355,5.671307368353117
7.995583608758267,15.281137625468265,8.93580031486029,15.222608791624355,23.55774868474005,9.83948502943219,5.689583634738677
8.099977184065722,15.3006835297872,8.900534936265664,15.168054338086232,23.647407454195065,9.924552826761492,5.70804004885427
8.205962282342359,15.32207362814439,8.863214580522783,15.113151050488286,23.73512204368141,10.005777213622926,5.726709203689099
8.313058679347007,15.345086963789106,8.823887508724736,15.058088991471688,23.820347784265177,10.082845936630722,5.745620079996341
8.420787444794884,15.369581802700045,8.782607062859316,15.003025403928737,23.90253030465694,10.155446331756016,5.764799833615677
8.52867604424624,15.395496613311844,8.739438197250855,14.948081243818853,23.98110883780712,10.223266876802597,5.7842741447276
8.636258216111004,15.422852914922984,8.694462240164714,14.893336614683617,24.05551854039685,10.286000970986892,5.804066116955711
8.743071631299161,15.451745834814194,8.647777803860183,14.838827731752465,24.125194975441385,10.343355859096764,5.824194420726127
8.848656373973059,15.482324718342038,8.599498783659904,14.784547672892993,24.189581660760503,10.395069518488127,5.844671534138953
8.952556303856468,15.514774700998272,8.54975270370496,14.730450525426942,24.248138920044436,10.440930742179939,5.865502778071453
9.054325604521749,15.549303138308359,8.498680303145361,14.676456650697915,24.300356488456547,10.480790867301186,5.886685889044765
9.153539995952128,15.586126690775702,8.446433821382277,14.622456641542325,24.345772467030795,10.514562595834393,5.908210911658107
9.249805998026442,15.625455636606063,8.393173016166312,14.568312691328288,24.383989642723762,10.542212304211066,5.930060362558958
9.342762872422448,15.667477826270744,8.339061960530282,14.513858405723486,24.414678352269362,10.563752944825191,5.952209216007086
9.432079213669624,15.7123457628073,8.284269499166008,14.458899281749348,24.437568529821743,10.57923967668407,5.974624618157363
9.517449821823877,15.760167309397726,8.228971452309054,14.403214846107376,24.452439385021712,10.588767080732469,5.997265801215595
9.598599209572269,15.81100038012065,8.173350536459267,14.346563637071396,24.459111220397673,10.592466592602484,6.020084714111009
9.675293148323924,15.864851840263274,8.117594137270352,14.288693428931976,24.45744777266826,10.590504522999092,6.0430273719309895
9.747349630542828,15.921677344863486,8.061892928049623,14.22935489672771,24.447379378350373,10.583080957700263,6.0660350997267
9.814641261090028,15.98137889031845,8.006440326412264,14.168313654369106,24.42893709847655,10.570427593754866,6.089044998774178
9.877090965669458,16.043801959992017,7.951430467513437,14.105363042995156,24.4022713766836,10.552803081541933,6.11199004814565
9.93466538742072,16.108735029817677,7.897054317112129,14.040342963196812,24.367645424779173,10.530487867215452,6.134799591199291
9.987367555808046,16.17591013278808,7.843495955745753,13.973159194049863,24.325415417583546,10.503780718009386,6.157400134694727
10.03523041094982,16.245002591583052,7.79093109872358,13.903794706450801,24.276008965780388,10.472995976987317,6.179715989175369
10.07831219499618,16.315630965993037,7.739528280087149,13.83231442513819,24.21990518708107,10.438460216863193,6.201669909640801
10.116692205579069,16.387358744859565,7.689451376484545,13.75886717174379,24.15761704587438,10.400508709817883,6.223184001007708
10.15046540988138,16.45969778207482,7.640860739521012,13.683681789523906,24.089676485097304,10.359481789490204,6.244180963129936
10.179737020752402,16.532113172839825,7.593911137739051,13.607054837769967,24.016622742571247,10.315720225523558,6.264585864202477
10.204618481200324,16.604029293225764,7.548748348599237,13.529334248520165,23.938992637919714,10.269559186378261,6.284327773023983
10.225223850779837,16.6748385107631,7.505507554714548,13.450904242863476,23.857311002477267,10.221321153205732,6.303340298407101
10.241665092537053,16.743918611957607,7.4643160876025485,13.372172573626827,23.772082746485577,10.171309326084438,6.321561902185536
10.254047225990393,16.81066004966726,7.425304271859641,13.293559311803522,23.683791281220405,10.119804538697178,6.338937779056088
10.262465630713505,16.874490303803974,7.38862334816198,13.215486521882195,23.592906491366353,10.067066729844008,6.355423247091063
10.267005840451255,16.934884198792826,7.354458665441057,13.138368557497383,23.499898187181277,10.013337277796309,6.3709866768460115
10.267743895313123,16.991363765918333,7.32302816898662,13.062603434598968,23.405246322239666,9.958839030283935,6.385610760390242
10.264746206371795,17.04349739754229,7.294569816183736,12.988566187118053,23.30944659625397,9.903775954014257,6.399292252847388
10.258069848081158,17.090905175973518,7.269326916255993,12.916604374514094,23.213014723265548,9.848334928841982,6.412039915991772
10.247763476427002,17.13326897144017,7.24753594662042,12.847034087106033,23.116485428648655,9.792688864780551,6.423870748240799
10.233867804278523,17.17033753613942,7.229417011048805,12.780134690096231,23.020403058121566,9.737001256237878,6.434806228764435
10.216415717162587,17.20192222058698,7.2151659552217025,12.716143607700532,22.92531197303129,9.6814369724782,6.444870124592384
10.19543359271087,17.22789412527662,7.204948263508467,12.655254787408328,22.83175842340808,9.626179691511183,6.454087474630862
10.170945752973822,17.248196628067568,7.198896979130122,12.59762199204841,22.740303754947142,9.57144453014178,6.462483738638575
10.142983832712162,17.262869480035626,7.197118573311816,12.543363300659287,22.651532506702555,9.51747646534357,6.470084366012725
10.111599847340921,17.27206447629425,7.199706163107337,12.49256438095471,22.566043552742613,9.464539039660359,6.476915797181095
10.076876878038052,17.276041118677544,7.206750643955816,12.44528424850047,22.48443307153174,9.412902211583004,6.483007749543741
10.038931899182932,17.275147796934434,7.218341793661276,12.40156595228926,22.407281007890578,9.362833091317395,6.488394881821025
9.99791223760272,17.26979855537982,7.23456265518098,12.361447174892538,22.335140077509585,9.314590271480329,6.493116561235216
9.95399200416945,17.260452815042473,7.255485844563513,12.324965564790357,22.26852853584805,9.26842294975509,6.4972161630419505
9.9073717800412,17.247600919414285,7.281175425659223,12.292158992151728,22.207942941827497,9.224573975309136,6.500741483905671
9.858278762613102,17.231752610529963,7.311690183205296,12.263064088407475,22.15389701719839,9.18328116415553,6.503745373397778
9.80696386272345,17.21342427384222,7.347084458122584,12.237719092289643,22.10695885301391,9.144773787792134,6.5062851711385585
9.753695924829207,17.193124163432003,7.387411172047782,12.216174752696968,22.067758528129275,9.109270732573995,6.508421307701796
9.698755433190476,17.171337182680823,7.432731044236038,12.198506310525119,22.03697310107,9.076988445612239,6.51021619002735
9.642429512577461,17.1485109375174,7.483120453134746,12.184815418213386,22.015306312306095,9.048154953281669,6.511733469818904
9.585008327537267,17.12504499863691,7.538669362841489,12.175220528114574,22.003464539412875,9.02301651012555,6.5130366864094436
9.526782266791244,17.10128544982866,7.599472239056729,12.169843025250408,22.002127516114925,9.001831177205544,6.5141863386533805
9.468039536236661,17.077524299777366,7.665620432518326,12.168795675006171,22.01191922464205,8.984856695190565,6.5152358642213075
9.409063307148562,17.053999943877432,7.737199411222742,12.172174929300994,22.03338300102973,8.97234053826086,6.516228565218094
9.350127869808425,17.030896223635008,7.814287155393995,12.180054636199571,22.06696072120934,8.964513683721268,6.5171986192125155
9.29149485511522,17.008341629869108,7.896948793851566,12.192478996994687,22.11297604905369,8.961585771391153,6.518178526973316
9.23341052989573,16.98641018267799,7.985227194684593,12.209455335031016,22.171621816609605,8.96373892392292,6.519209512603464
9.17610361730794,16.965123586033446,8.079133691448346,12.230947961894454,22.242951944821332,8.971120198970663,6.520346960043225
9.119782782216564,16.94445498229048,8.17864439602926,12.256874178987538,22.326883584106078,8.983834308193542,6.521658434369124
9.064633765971815,16.924335352967535,8.283704014744023,12.287103094139033,22.423216363491917,9.001937265721013,6.523218648687712
9.010816844982637,16.90466187770476,8.394231555504247,12.321456136431436,22.531660915868414,9.025431634539373,6.525104724921988
8.958465161361524,16.88530588729332,8.510120329863254,12.359707652211686,22.651857100370258,9.054264165689101,6.527391773857452
8.907683548203908,16.86611766936386,8.63123170481422,12.401585886934928,22.78337694193914,9.088325222733415,6.530148408384331
8.858547264385518,16.846926754458284,8.757387288623114,12.446775136934441,22.925725147235998,9.127449601985939,6.533432693408919
8.81110097773385,16.827539893326485,8.888362464767821,12.494918336205838,23.07834394717621,9.171420031025653,6.537289616989372
8.765358812359754,16.807741010701232,9.023881877617997,12.545619469878266,23.240617137729267,9.219973394710708,6.541751078829931
8.72130597248442,16.787295244348634,9.16361909393467,12.59844748577702,23.41187077143056,9.272808186013428,6.546838081257204
8.678902196377592,16.765955870624815,9.30720407688659,12.652943308935777,23.591375791797134,9.329596528135681,6.552563199854742
8.638086534796564,16.743472402332404,9.45423655571095,12.708628364132817,23.77835635253342,9.390006786856095,6.558931486618242
8.598781794952966,16.719602354720678,9.604296569445616,12.765012186715929,23.971999186637355,9.453730640974907,6.565939408769404
8.56089770414532,16.69413229021675,9.756948221284663,12.821598374130906,24.171459268897628,9.52049826258688,6.573572619222458
8.524333394851036,16.666903865811424,9.911742867188162,12.877888292188226,24.375863231412527,9.590076719402537,6.581803773720794
8.488979306381268,16.63782868576799,10.068226283371594,12.933383448281829,24.584312303364797,9.662261448297075,6.590591388289672
8.454717777620887,16.60688460996163,10.225945186249268,12.987594199693913,24.795885144912223,9.736868294240606,6.599879854245051
8.421422709708681,16.57410193237545,10.384448251856991,13.040065801329781,25.009641012854896,9.813725325793175,6.609600009451619
8.388959843492751,16.539547710608495,10.54328291624853,13.090418924276971,25.224622253995715,9.892662849097299,6.619670306438284
8.357187954020782,16.50331194028726,10.70199151901292,13.13838291181697,25.43985585917237,9.973503353958689,6.62999886965444
8.325959837859799,16.465501817545487,10.860109307439163,13.183804805077834,25.654356583504132,10.056054037654905,6.64048530915723
8.29512393825642,16.426247418944378,11.017164565534072,13.22664033976488,25.867134729475925,10.140102809858218,6.651021504626704
8.264528502558814,16.385709662629072,11.172679692246977,13.266943809413318,26.077208997457006,10.225416698988983,6.661493037103799
8.23402651932243,16.344078172038763,11.326173875838945,13.304862624501157,26.283619350046788,10.311740520441154,6.671782624192372
8.20347849661118,16.301558327901486,11.477168402230877,13.340628790379776,26.485432233142845,10.3987944648123,6.68177432439908
8.172753832138241,16.25835539053301,11.625192142842383,13.374541966959924,26.68173718054297,10.486271564802594,6.691356943462795
8.1417323587618,16.21466287148547,11.769784127098463,13.406948584831712,26.87164269358492,10.57383745353703,6.700425915741324
8.110305322203832,16.170662166943703,11.910493295467818,13.438221844371174,27.054277311523965,10.661134613985636,6.708883228132743
8.078375058057325,16.126538159561218,12.046877321887031,13.468743022660753,27.22879302580597,10.747791070224473,6.716636151602907
8.045853876201535,16.082501736212418,12.178503012346715,13.4988844315962,27.394366232705583,10.833429601742367,6.7235962394729905
8.01266244716616,16.03880031511861,12.304949754755212,13.528995785403223,27.55019572958077,10.91767304584921,6.729678967303319
7.978728617985393,15.995710496429982,12.425814457749018,13.55939563720665,27.69550051920416,11.000145517875026,6.7348037675894785
7.943989708321226,15.953524468568139,12.540717347301085,13.590367533829612,27.829522254949648,11.080472189678042,6.738894521265381
7.9083993568900866,15.91253965424156,12.649310789955505,13.62215781608798,27.951534965103384,11.158279401729468,6.7418802769753885
7.871934557870785,15.873049814115614,12.751289327871211,13.654972531397949,28.060856216194125,11.233196416129317,6.74369614145103
7.834598504981678,15.83533437828789,12.846394673350723,13.688973442818398,28.156851256007897,11.304860928456318,6.744285643747992
7.79641925755753,15.799648421884159,12.934414298872248,13.724273956256697,28.238930662518932,11.372928232918868,6.7436047946753375
7.757445940377991,15.766217016239567,13.015177903360634,13.760936050467302,28.306549490177307,11.43707900575389,6.741625144251684
7.7177436513408715,15.735233410072217,13.08855366446173,13.798969217726293,28.35921183543916,11.497021072467602,6.738334327058233
7.677388198745416,15.706857281407576,13.154443270379133,13.83833139268426,28.39647674407785,11.552487437987551,6.733735749410273
7.636462268665663,15.68121094215499,13.212776019018467,13.878930868968492,28.417962641456604,11.6032375157024,6.72784878311095
7.595053900413537,15.658376546533296,13.2635029182937,13.920627963431318,28.423353689039846,11.649066207358297,6.720709757294401
7.5532556454765585,15.638402598951634,13.306592367310186,13.963236909731249,28.412409040119247,11.689819197895883,6.71237383452506
7.511161989917994,15.621323243341854,13.34203166020648,14.006530941491139,28.38496976801983,11.725408667761322,6.702916198466427
7.46886540040111,15.607179118624941,13.369835365191488,14.05025183635467,28.340960044739656,11.75582534056706,6.692430603368355
7.426453753092759,15.59602786999279,13.390052641174279,14.094122026367408,28.280385696182908,11.781144802486875,6.681026314247273
7.384010833582147,15.587946140024274,13.40276621251237,14.137859834969547,28.20333584301924,11.801524337061094,6.668825933102188
7.341619063893593,15.583027791833551,13.408085467940978,14.181198765669379,28.109987622820487,11.817189141322531,6.655963967713826
7.299361965222086,15.581378928097166,13.406138786203089,14.223904329048173,28.000605534183517,11.828413563184313,6.6425838481920145
7.257324190043908,15.583110635088628,13.397067243680109,14.265780952447491,27.875532518940897,11.835503424450993,6.628832632362477
7.215589429759647,15.588331206285599,13.381023068047593,14.306670637585208,27.73518547167499,11.838781263850594,6.614854858274399
7.174238247817178,15.597142543419508,13.358175362709583,14.346448528360062,27.580063151217143,11.83857420034347,6.600787568120588
7.133347244227478,15.609644632212945,13.328717715167537,14.385016006830266,27.41075341122731,11.835204137861275,6.586757869288777
7.092989592943995,15.625941377661968,13.292869460529847,14.422292143804441,27.2279278562337,11.828980458520347,6.572882886069061
7.053235471907401,15.646137686718,13.250869817097424,14.458209495067567,27.032333529467053,11.820194611082163,6.559270992254206
7.014150502823402,15.670327558047576,13.202969938324323,14.49271702727981,26.82479629675384,11.809115000260542,6.546022988788055
6.97579259684842,15.698579926129364,13.149428531807397,14.525783380236515,26.6062333271035,11.795981553641505,6.533231595031484
6.938209592155804,15.730928364350785,13.0905169491663,14.55739626499138,26.377660320723784,11.781001500663711,6.520978630499589
6.901439213011134,15.767368218299215,13.026533649478292,14.587566008000126,26.140186323468154,11.764348411788914,6.509331589335695
6.865511068251741,15.807860028960434,12.95781667205085,14.616338208604327,25.89499741206624,11.746164353132844,6.498342229958008
6.830449472783841,15.852332921203756,12.88474459486288,14.64380449562976,25.643331596417234,11.7265628155477,6.488048067475541
6.796276622990331,15.900684689699869,12.807730592797764,14.670100250626026,25.38644960884761,11.705630356439663,6.4784754094799455
6.763016815990667,15.95278436752258,12.727217821123105,14.695393171700887,25.125607255570447,11.683426647905398,6.4696423890643615
6.730701439947446,16.00848127491116,12.643675236943668,14.719871700215007,24.862031797943445,11.659984064430196,6.461561136410693
6.6993742222041694,16.06761258626493,12.557589475922951,14.743735679523132,24.596903518878666,11.6353080154986,6.454238266380283
6.669097252613207,16.13000104297291,12.469455648085653,14.767186953127801,24.331344698357025,11.609378452647592,6.447673988432878
6.639955611199401,16.195445906166597,12.379775373237296,14.790418854946697,24.066415797881543,11.582153014941547,6.441861468390149
6.612056817796736,16.263714003291632,12.289063031767153,14.813607558542268,23.80311315278109,11.553572159248928,6.436786685518931
6.585525764633999,16.33453308790096,12.197850584937145,14.836909171524873,23.5423636329822,11.523564893040454,6.432427351149551
6.5604984645240085,16.407588885214082,12.106685819674523,14.860460774201538,23.285019803978493,11.49205301765963,6.428750820154844
6.53711614395708,16.48252958871641,12.01612819481749,14.884380207096447,23.03186198734984,11.458953956890403,6.425712719652164
6.515520252384637,16.55897749411131,11.926744120277286,14.908765263612278,22.78360961109343,11.424183607893317,6.423257149755548
6.495848707418955,16.636540336461902,11.839102366361375,14.933695948436972,22.540937395844498,11.387659030333538,6.421317772434803
6.478232806733028,16.714818152616186,11.753772881031171,14.95923731803928,22.3044853302883,11.34930001134734,6.419819213598171
6.462794604440041,16.793407882436764,11.67132635079988,14.985438427537902,22.074856366108882,11.30903063427507,6.418678979169328
6.449645393779563,16.87190525066034,11.592328257822343,15.01232799953316,21.852606985173296,11.266785558826951,6.417809767231343
6.4388851252170864,16.94990238511038,11.517327854816504,15.039909547669396,21.638237691430078,11.22252746776957,6.417121123196379
6.430601657316441,17.0269837809056,11.446846431239274,15.068157253989023,21.43219136161654,11.176274904846062,6.416519994991497
6.424869350983226,17.102722504646184,11.381366571568824,15.09701351707095,21.23486592576142,11.128130446579075,6.4159110642559725
6.421747433742701,17.17667737286108,11.321322029690299,15.126389705137285,21.046632175560433,11.07830177169131,6.415197572211327
6.421278218170308,17.2483975096611,11.267088591283045,15.156170225866232,20.867839200748346,11.027111825676633,6.4142826755440465
6.423484977818327,17.31744167247699,11.218977575633069,15.186217640059889,20.69880476047146,10.97499394054349,6.413070944098597
6.428371224233414,17.38340522912584,11.17723288049415,15.216378429611648,20.539802886953826,10.92247665365653,6.411469814708043
6.435923325422179,17.44593649359955,11.142030083945343,15.246491385007676,20.391058415617763,10.870169332938621,6.409392202074775
6.446114467711671,17.504735651096897,11.113475951279588,15.276397182208793,20.252745949364705,10.818750226004695,6.406761222537059
6.458906543126907,17.559544866990542,11.091608889762627,15.305944566353956,20.12498708632574,10.768950775851728,6.403515195366872
6.47424923933323,17.610138792052652,11.076400644179609,15.334992299250725,20.007852686573553,10.721535185792419,6.399610330047503
6.492077418506258,17.656321765308423,11.067757556128434,15.363413158877764,19.90138522325362,10.677278976492374,6.395021052991032
6.512308247580274,17.697935518964776,11.065520975412419,15.39110670370678,19.805635513888664,10.636948412516636,6.389739736643363
6.534839552466833,17.73487189871508,11.069468400189514,15.41801703782688,19.720685056595276,10.60128233752121,6.383776873854963
6.559550037147951,17.767079383811165,11.079315673608802,15.444144002394083,19.64663952196223,10.570979140063466,6.377161186094829
6.5863007748741325,17.794558959001723,11.09471953839541,15.469543189491713,19.58360649876584,10.546689370056235,6.369938301125877
6.61493719328759,17.817352941447286,11.115281461582773,15.49432001823376,19.531672686871513,10.529011631066705,6.362167184126201
6.6452913141244485,17.835531735710298,11.140554667169196,15.518621854684554,19.49088458085028,10.518489487069196,6.353915053812931
6.6771837751325345,17.849181272642788,11.17005399970573,15.542627406896854,19.46123279143135,10.515609555442166,6.345252360588635
6.710426063078341,17.85839284056839,11.20326540893787,15.56653377495449,19.442640485107095,10.520801044467582,6.336249117865354
6.744826008637999,17.863260053864607,11.239652975527086,15.590543822755874,19.43495546332434,10.534435027941926,6.326973078376626
6.780197614258817,17.863887246072025,11.278664254662242,15.614855784871501,19.43794557256444,10.556826808120434,6.317488772142277
6.81636977402379,17.860403095494938,11.319734867746892,15.639655287671111,19.45129971328582,10.58825351824036,6.307855641949659
6.853188508218477,17.852966605473732,11.36229175732953,15.665108949283452,19.474635252205513,10.62899523186217,6.29812520879892
6.890514123117402,17.841760745524194,11.4057543788425,15.691359126668674,19.507506418895556,10.679389341758627,6.288338992578189
6.928217789537906,17.82697962602357,11.44953476192184,15.718519714288256,19.549407887457217,10.739873445879502,6.278528043491654
6.966181085490883,17.808816294704982,11.493041012959402,15.746671549975375,19.599775799396877,10.811002103012664,6.2687134007960825
7.004299988975437,17.787454775915467,11.535692254224411,15.775855721787373,19.65799474816736,10.893448157546514,6.258906904274464
7.042490523205576,17.76306680364507,11.576945480249053,15.80606573155209,19.723413640188266,10.98801279314613,6.249112424022442
7.080691027649077,17.73581015209504,11.616319725160764,15.837241627255676,19.795360725036563,11.095664394589154,6.239327282774192
7.118859311542099,17.705824792769928,11.653404017679234,15.869268752415845,19.873147437498783,11.217596179569894,6.22954327574583
7.156967016414953,17.673227364027646,11.687851227585679,15.901982516885818,19.956063220392657,11.3552575892779,6.219747079527387
7.194994631022553,17.638107364635722,11.719366952944467,15.935177922315422,20.04337084735282,11.510334640202451,6.209920026095653
7.2329286085338955,17.600526475951234,11.74769911938484,15.968618518407265,20.134308793101372,11.684699860633504,6.200037099105218
7.270759297981613,17.560520074146773,11.77262953301878,16.00204031228883,20.228099910636637,11.880364394965099,6.190065457423983
7.308479438398422,17.518100261697224,11.793967966933979,16.035151802390594,20.323960139780855,12.09946428299757,6.179963692685218
7.3460844904088285,17.47325970551742,11.811552056129829,16.067633600277727,20.42110401160538,12.344284767227032,6.169682928839293
7.383573105051902,17.42597514086858,11.825253401594995,16.099139663953725,20.5187500451558,12.617272673821416,6.159169415569285
7.420944986025893,17.376214078846314,11.83498264648736,16.129301900004332,20.61612734147791,12.921000899788215,6.148368031102503
7.45819747467569,17.32395349359561,11.840687765733389,16.157740450929857,20.71247980961208,13.258111637498533,6.13722687383464
7.495323728829457,17.269209291940786,11.842347624612254,16.18407914334497,20.80706596546328,13.631273232097886,6.1257021168365355
7.5323125109817495,17.212058306341955,11.839964740567813,16.20796000984586,20.899155951775818,14.043155261007504,6.1137612227590505
7.569148216441043,17.15263896737247,11.833558720761157,16.22905327073248,20.988030155262777,14.49642514041142,6.101383533684005
7.605810967201818,17.09113665858657,11.823160082653686,16.247070317319483,21.072987024378968,14.99379400915845,6.088558560855371
7.642276628275446,17.027766251709288,11.808806789594103,16.261784832773962,21.15336178568846,15.538113691040582,6.075283094584881
7.678515548527202,16.962757082250352,11.790551583822994,16.27305131633949,21.228543691551202,16.132459254968783,6.06155874944474
7.714489614647102,16.896340163648386,11.768481500073626,16.28081200415113,21.297981712997544,16.78014849884777,6.047391121981258
7.7501486701968885,16.828737584137592,11.742734610333292,16.285096809703536,21.36118485828179,17.484726194897373,6.032790410447972
7.785427038890745,16.76015455474796,11.713502100909691,16.286018825616647,21.417724555677847,18.249942138408766,6.017772669692719
7.820240487367405,16.690773098851356,11.681023149897563,16.283761993779873,21.467236466548478,19.07969566709616,6.0023614192881976
7.854484709365792,16.620746402371694,11.64558695260239,16.27856265846116,21.509418367205967,19.97792311360789,5.986589501635643
7.888035783251941,16.55019437314452,11.607544806729308,16.270690725853637,21.544024946422056,20.948475641461034,5.970500286719064
7.920751312408656,16.47920205942987,11.567319277238063,16.26043377365967,21.570860133735327,21.99504327636551,5.954147225731168
7.952471724085698,16.40782398469202,11.525397858474609,16.24808477250519,21.58976697058056,23.121112681818932,5.937591781321698
7.983022919345567,16.33609448175595,11.482316308475458,16.233932689138165,21.600617118389838,24.329938352813755,5.920900329780763
8.012220543934406,16.26403680209494,11.438646907873075,16.218254657373627,21.60330362435268,25.62453182107788,5.90414067810114
8.03987457803343,16.19166457648421,11.394997244383903,16.201308625275963,21.59773944152895,27.00763739849936,5.887379543322169
8.065793442571035,16.118977830609122,11.352009691943609,16.183326535546783,21.583862013183932,28.481656742835536,5.870682755658985
8.089788460421985,16.04595857008583,11.310351112609611,16.16450903190827,21.56164162214125,30.048539185208785,5.854117949187406
8.11167920978586,15.972567604221698,11.270694844028645,16.145021398464742,21.531089114016236,31.709680959063384,5.837756792452883
8.131297885116627,15.898742734784317,11.233702769478402,16.12498966462624,21.492260900719224,33.4658763565473,5.821674630041489
8.148491005106722,15.824399203183164,11.200010468066182,16.104498037598926,21.4452624194034,35.31733733234142,5.805948416307089
8.16311986506245,15.749437550628606,11.17021392800834,16.083589538549965,21.39025008027109,37.26374968017071,5.790654640746581
8.17506184289104,15.673768368046028,11.144857114327055,16.06226888036585,21.327430805972487,39.30434082965033,5.775868092892846
8.184212773586763,15.597350643057792,11.124422249052815,16.04050500048929,21.25706009616082,41.43796326700271,5.761661603435453
8.190489191480673,15.520221914465335,11.109323742901868,16.01823209061651,21.179440758813218,43.66318741954167,5.748106314422673
8.193828918178355,15.442507978564263,11.099904322635812,15.995349559156725,21.0949224188364,45.97838653498122,5.735271833141237
8.1941898652798,15.36441941886432,11.096432810324925,15.971721573812104,21.00389808895873,48.38178745154138,5.7232257449798665
8.191549819864019,15.286240454734038,11.099104439725108,15.947177398968567,20.906795367716274,50.87146124943538,5.712032475326706
8.185909452921393,15.208310546193413,11.108043847510944,15.921515941927437,20.804066743418623,53.44527359182697,5.701752182200816
8.17729625592892,15.131003050178755,11.123311344251594,15.894517755192478,20.696186067684643,56.100865306779475,5.692439830706026
8.165766021943115,15.054705185525895,11.14491343630861,15.86596334287113,20.583651304527173,58.83569401039673,5.684144570523831
8.151401993719329,14.979800342489476,11.172816274614046,15.835653313243352,20.46698716257885,61.64707293087467,5.676912082069649
8.134314256725972,14.906653694662852,11.206959530221319,15.803424788351958,20.34674347454565,64.53216568339748,5.670791874738661
8.114640663510077,14.83560293443795,11.247267416439056,15.769159016491344,20.223491168947593,67.48799428042814,5.6658452382485205
8.092547061045092,14.766954995232373,11.293652191030441,15.732780678426606,20.097824152958808,70.5114898285825,5.662147475858342
8.068224066433446,14.700987195873138,11.346008764248868,15.69425660982986,19.970371888888774,73.5995284623026,5.659783516359969
8.041881050123258,14.637949690791473,11.404207579345472,15.653602146120157,19.84180971092845,76.74891980785662,5.6588407582849545
8.013739680181706,14.578067334370052,11.468099638426802,15.610892841802423,19.712851602587207,79.95639998421406,5.65940275468986
7.98402801524956,14.521540372641013,11.5375375963058,15.566269060892829,19.584229259728883,83.2187071008139,5.6615445095630665
7.952975542308225,14.468542286919481,11.61239523789833,15.519927416863517,19.45666935682042,86.5327271270685,5.665328502788496
7.920810959352483,14.419214154002887,11.692569156229489,15.47210576174326,19.330874332784177,89.89558092276694,5.670801526879985
7.88776344774704,14.373658458565059,11.777969368855775,15.423068405579803,19.207508286266336,93.30457258659591,5.677994016875569
7.854063781832952,14.331934907015576,11.868512700977243,15.373092021843217,19.087190149347176,96.7570587423564,5.686922795651012
7.819942026241703,14.294057721985007,11.964121244059488,15.322451665895564,18.97049551618206,100.25032350076263,5.697594945512117
7.785623564217318,14.259993429348341,12.064719428327685,15.271407941288553,18.85796525031995,103.78148592639755,5.710009425183141
7.751325861492516,14.229659003901977,12.170225412291064,15.220197505648091,18.750118666901265,107.3474150090049,5.72415601348421
7.7172560236242225,14.202920126980663,12.280541922079658,15.16903082092702,18.64746858220618,110.94462372842807,5.740014265373633
7.683608641371046,14.179589763025445,12.395557245797214,15.118098447179564,18.550528933059013,114.5691839656276,5.757555079222998
7.650563915293226,14.159428440326451,12.515156949164266,15.067578794201923,18.459808587721415,118.21676075838855,5.776743969982134
7.618286726570035,14.14214733758832,12.63923168082716,15.017638672565687,18.37579871577147,121.88277548209874,5.797542433205375
7.586926912061409,14.127413940702114,12.76767122014389,14.968426746361814,18.298962025299065,125.56255670389407,5.8199061073969105
7.556619985242573,14.114859079416508,12.900351198270604,14.920065656404288,18.229723182791226,129.25139098545614,5.843782123654824
7.527488352473789,14.104084070980921,13.037121001062099,14.872647284429824,18.168457953135093,132.94458434624224,5.869107880771284
7.499644002404348,14.094667735719383,13.177795324159845,14.826234349869365,18.115482064910868,136.6376236540873,5.895810747487577
7.473191948362104,14.086173223843073,13.32215107043472,14.780868121507977,18.071043483057498,140.32631539794383,5.9238067807058
7.448231924153438,14.078154059443825,13.469929794845394,14.736575181259346,18.035320231187324,144.00676054473695,5.952998002666228
7.424857676866656,14.070161767060748,13.62084116129685,14.693367216496332,18.00842000319791,147.67521773590087,5.98327033004976
7.403155801547176,14.061759951399752,13.774563419470766,14.651236631596166,17.99037697821674,151.3279945041068,6.014495072130944
7.383204902583791,14.052543934915613,13.930742435946003,14.610153044006863,17.981149462210798,154.9614139256443,6.046534418051
7.365073687563741,14.042159820873309,14.088991372601956,14.570061268368665,17.980626446473835,158.57181869235072,6.079247659416272
7.348817960449723,14.030321212890156,14.248889597951615,14.530880310304031,17.98864126341149,162.1555913230385,6.112495067108036
7.334479623507144,14.016823386317778,14.409979964985853,14.49250539953729,18.004980022325434,165.70920288002534,6.146139517681913
7.322090190509585,14.001549628633873,14.571765948543572,14.45481533893066,18.02938013981439,169.22927345425973,6.1800469334468024
7.311676166692357,13.98446651643671,14.733711492407641,14.417685299314066,18.061528587600975,172.71262059809808,6.214085884155249
7.303260985262093,13.96561300149296,14.895248822401944,14.381002075943256,18.101068802030873,176.15634165567573,6.248126920512468
7.296862340405298,13.945091192182213,15.055795250611439,14.344675114062534,18.147612970544195,179.55800696118817,6.282042381081089
7.292488387474883,13.923061858941614,15.21476934132042,14.308638447239607,18.20074986808655,182.91592080155485,6.315706998703327
7.290135126258736,13.89974028516914,15.371599387048477,14.27284570182316,18.260043545958595,186.22924763785713,6.349000098704548
7.289784538487932,13.875387127317417,15.525730073701375,14.237262626355438,18.325027599290436,189.49788445452776,6.381810003924019
7.291403795387765,13.850294088355659,15.676632157028124,14.20185975437641,18.395204235860565,192.72220489373763,6.414038531883627
7.294946316474292,13.82476773662073,15.82380954583035,14.166607470059468,18.470052610383995,195.90286393393987,6.445602903980291
7.3003531176534215,13.799114510525921,15.96679885070574,14.131474884563012,18.549042177201585,199.0407395133575,6.476435630539638
7.3075523559643125,13.77362776129302,16.10516413362199,14.096431438905295,18.63164491945501,202.13694380239042,6.506484491971118
7.316457562526767,13.748576559765787,16.238491212287553,14.061448673511666,18.717347810541966,205.19277390077107,6.5357143437409775
7.326966750586957,13.724196701945285,16.366382920663487,14.02649952924487,18.80567255021511,208.20959089859332,6.564111171810551
7.338963492389751,13.700684510149495,16.488454697404954,13.991554563787544,18.896199099327166,211.18871755072433,6.59168558777848
7.352319061882556,13.678194010106212,16.604329853119378,13.956578294864837,18.988576681497676,214.13136478537717,6.618472257336813
7.366893938036124,13.656838713236569,16.713635621903133,13.921528698930736,19.082516445184186,217.03855326924275,6.644525180766582
7.382537964511106,13.636697028774345,16.816001430917247,13.886358220391052,19.177777220018058,219.91106815333367,6.669911274701398
7.399091593053596,13.617816514854322,16.911058489947518,13.851013432276162,19.274157219768107,222.74947053036308,6.694704426403888
7.4163923361184105,13.600214565534824,16.99843940362656,13.815433341168353,19.371499101932542,225.55411110039452,6.718980842703797
7.434285769025493,13.583881351924909,17.07777810133368,13.779547440030848,19.469704301616815,228.3251375229597,6.742815669421489
7.452634493704221,13.568793646552434,17.14871153806575,13.74327401074737,19.568739724075566,231.06253760681847,6.7662804363344895
7.471320391248966,13.554936886770026,17.210886618934506,13.706518677805489,19.66862691046497,233.7661716540612,6.789440952648526
7.490241881962,13.542320423892527,17.263973167339735,13.669172941358507,19.769420824300877,236.4357254470314,6.812356424007243
7.509310394820821,13.530978652015946,17.307675496547898,13.631113417981059,19.87118781992786,239.07062691164361,6.8350806699513065
7.52844827488995,13.52096516484139,17.34173598323441,13.592202913533038,19.973986168026315,241.6700000930889,6.857664225119031
7.547587622364622,13.512345093420743,17.36593432764226,13.552292452648558,20.077851056087116,244.23266232823818,6.880154959787147
7.566668551517653,13.505184998618631,17.380089103089894,13.511222719517034,20.18278543035662,246.7571246687334,6.902596534638473
7.585636595507208,13.49954270487667,17.38406152447138,13.46882528261147,20.288754587596316,249.2415607499617,6.925025660498293
7.604440404960101,13.495460794864645,17.377757136847897,13.424924587180872,20.395681261134385,251.68376004140177,6.947468844836245
7.623030809517095,13.492964170474707,17.36112533350283,13.379342585234356,20.50344030262903,254.08111578147896,6.969939465429644
7.641361955750463,13.492061128848714,17.334160186093246,13.331911265183647,20.611853053874096,256.43066206456854,6.9924363962027085
7.6593946585709585,13.492747168739971,17.29690283066975,13.282493969412787,20.720680958797193,258.729126988831,7.014943805585251
7.677100003888662,13.495008127091019,17.249445575467966,13.231004536861601,20.829619155079673,260.97296018344275,7.03743098526105
7.694460509689765,13.498821098422656,17.191939722290716,13.177414393451068,20.938292689535135,263.1583385041205,7.059852225000246
7.711468449978446,13.504157327171189,17.124602693323038,13.121750565138507,21.046257204307196,265.28122024671677,7.082146881724197
7.72812215434894,13.510988693992449,17.047716672580123,13.064092889102692,21.153003357429856,267.3374722820852,7.1042397608060375
7.744420580987879,13.519291873750989,16.961618782274478,13.004575296311291,21.257964713479986,269.32299491837466,7.1260425771722105
7.760357255480152,13.529047400016001,16.866688385648594,12.943391680919177,21.360530443892806,271.2338249892099,7.147456695968632
7.775915838664206,13.540242299418045,16.763335737057183,12.880802624590372,21.46006031240214,273.0662664893741,7.168376478072006
7.791068604908254,13.552884244339415,16.651996222023527,12.817135844393482,21.55589590457763,274.8170147279453,7.188692800886462
7.805776660591626,13.567019003670106,16.53313490625995,12.752776685180228,21.647367288810784,276.4832037000483,7.2082962616812125
7.819989969355136,13.58273614769091,16.4072584193549,12.688153285840805,21.733799664586527,278.06237639226003,7.227079122320667
7.8336472344639,13.600160138460094,16.27492266570569,12.623722743863695,21.814521814397153,279.5524131712839,7.244936060048577
7.846677712601098,13.61943502335398,16.136732044380935,12.559959645370721,21.888874010342413,280.9514455992388,7.261765421832865
7.859006479791385,13.640710110704786,15.993338174126281,12.49734533848672,21.9562131890855,282.25777590309923,7.277472492113899
7.8705613447769265,13.664128857335006,15.845444655975813,12.436357977646539,22.01591690259724,283.46982941242504,7.2919743415829785
7.881277057602508,13.689820170649314,15.693816048887422,12.377465252990623,22.06739040468868,284.5861493902423,7.305203839645573
7.891095336052478,13.717890764622638,15.539283254504321,12.321119973050372,22.11007779417576,285.60538488359464,7.317110326729235
7.899963775204884,13.748417720504994,15.382740216532675,12.267756561552709,22.14347436013503,286.52622034574125,7.327657127736743
7.907835756551148,13.781441377256769,15.225142280341286,12.217787144510531,22.16713952176599,287.3472870042724,7.336818144007174
7.914670358809912,13.816960146011345,15.067518141364918,12.171597377827334,22.18070848601516,288.0671740155181,7.344574422206272
7.920431591380214,13.854931228945789,14.910983740235894,12.12954255423765,22.183897173934483,288.68459479515985,7.350910354583651
7.925087221280235,13.89528092584294,14.756737858011418,12.091943617629594,22.17650271379567,289.19861416888955,7.3558104574423595
7.928607152467335,13.937920312668105,14.60603729697985,12.059082517999732,22.158407407012163,289.6088445795168,7.359258440911471
7.930962010527856,13.982755294763109,14.46016290169681,12.031197139912882,22.129583750433987,289.91562109990315,7.361238844798066
7.932122869424415,14.029685670531949,14.320387565248458,12.008476009683648,22.090093371898988,290.12011613051885,7.36173992772018
7.932061510926593,14.078597419685531,14.187954231545666,11.991053502063407,22.040080383141635,290.22431014112783,7.36075630618715
7.930751115531029,14.129354222780943,14.064067702934386,11.979006809873137,21.979761019590665,290.23086324199227,7.358290930200903
7.928170406273684,14.181791514057302,13.949898113885359,11.972354598814881,21.909409002854094,290.14300006408166,7.354356608774631
7.924312696036736,14.23571504748126,13.846588967801718,11.971056580910085,21.829338692726488,289.96442218063896,7.348976182831985
7.919194426408794,14.290905106898203,13.755261007546066,11.975014044214241,21.73988953151829,289.6992003898789,7.342180091563866
7.912857156637205,14.347125282734684,13.677006356478767,11.984072030932317,21.641413278344448,289.3516667471533,7.33400211799026
7.905364007502092,14.404132002329739,13.612873716354937,11.998023563659979,21.53426359444676,288.9263787131161,7.324475210478634
7.896795408111905,14.461679784117102,13.56385072139585,12.016614717876916,21.41878677817725,288.42813970230026,7.313627983958859
7.887247982742413,14.51952007796167,13.530852017333462,12.039548729245439,21.295313335658726,287.86196795785247,7.301482114613209
7.876836674996218,14.577396395816928,13.51471956352589,12.066488619942719,21.164151614345734,287.23297781433223,7.288051736837686
7.865694984108414,14.63503950118063,13.516236722482267,12.09705849044116,21.02558487738412,286.54625982082223,7.2733454412857155
7.853969570369803,14.692164654862733,13.53614889422569,12.13084497429735,20.87987153160934,285.80685682583686,7.257370366141918
7.841811831427052,14.74847251377973,13.575175983660717,12.167403593957397,20.72724645903489,285.0198274718977,7.240137112750993
7.829369719142866,14.803655054690815,13.634017822599807,12.20627243615718,20.567921758291586,284.19027803058106,7.2216632115974395
7.81678043994358,14.8574047032892,13.713370499869574,12.246987259656715,20.402087960761826,283.32327894320395,7.201973575793776
7.804164555859381,14.90942200315423,13.813948544856103,12.28909129430128,20.22991901698344,282.42370583242285,7.181098479862583
7.791622025528786,14.959420471287592,13.936485295189101,12.332141623974993,20.05158150376895,281.496081478718,7.159070090817741
7.779230189351188,15.007132453079821,14.081709022791713,12.375720654084192,19.867243190314703,280.5444567214761,7.135918690258326
7.767044211506114,15.052319874565633,14.250335257331779,12.419455840117863,19.677077133313333,279.5723410824531,7.111670744540727
7.755100082458624,15.094791075910722,14.443118981293502,12.463036833195156,19.481263529799143,278.5826775875155,7.086350145989243
7.74341832289742,15.134419418527823,14.660951791746644,12.506218106420018,19.27999362033643,277.577840018785,7.0599812099233565
7.732006314610194,15.171152651790477,14.90493017173537,12.548810706972466,19.073476125718898,276.5596470406581,7.032591290155205
7.720859077019355,15.205006641717743,15.176342349836995,12.590675243980607,18.86194236203602,275.52940988458136,7.004212626041987
7.70995918128599,15.236049761203564,15.476592458970819,12.631720293243873,18.645647040694023,274.4880206118475,6.974883928958127
7.699275841530128,15.26438746181846,15.807120294978395,12.671899788238317,18.42486671745153,273.4360738202975,6.944651313215966
7.688763502655894,15.290151559763872,16.16936279039291,12.71120403422668,18.199900107525274,272.37398276337564,6.913567988944162
7.67836155019777,15.313495829891743,16.564754737679667,12.74964767187877,17.97107096574981,271.3020278316385,6.881693346691658
7.667996584537817,15.334596526661368,16.994726249473842,12.787259808410644,17.738736080981337,270.2203227219807,6.849092230024892
7.657586628710406,15.353651200809374,17.460673695364427,12.824076620623945,17.503325532902128,269.1287525455501,6.815834366315515
7.647044956449486,15.370870161247158,17.963922594290608,12.860134476137596,17.26545188684928,268.026968517803,6.781993522905916
7.636282061679824,15.386463962880992,18.50569962531979,12.895463600943506,17.02605637903124,266.91446533657086,6.7476459058416935
7.62520635374458,15.400635854764563,19.087103271335877,12.930083125726048,16.7864925000759,265.7906690818384,6.712867963890731
7.613724618940115,15.41358287904115,19.709061354433732,12.963996817974046,16.5485031366217,264.6550069142792,6.677734014464796
7.601742695314376,15.425499677594553,20.372290263614143,12.997188656846532,16.31413985063827,263.5070145554315,6.642313631337305
7.589166585602623,15.436577532274452,21.077273524412043,13.029618383616993,16.08567534569728,262.3464517171284,6.606669835175255
7.575903641348005,15.446998040647607,21.824250654166125,13.061217413318001,15.865522295532843,261.17332114357043,6.570860142041672
7.561862839522339,15.456925509820621,22.61320766736563,13.091885827626355,15.656160186559681,259.98778200544865,6.534940064085092
7.546953775196388,15.466501026045023,23.443879769745834,13.121491833791382,15.460072130998412,258.7900304514488,6.498966111668767
7.531085576181379,15.47583815480748,24.31576989129534,13.149875183020352,15.279690970241854,257.5802124600753,6.4629969773946625
7.5141692976751715,15.485019128227066,25.228171529659445,13.176854880720592,15.117351975949228,256.3584333006265,6.427094022057965
7.496127040408008,15.494092207715992,26.180184508297398,13.202238938471075,14.97525069995744,255.12487696692287,6.391321717720951
7.476904622451799,15.503074014348373,27.170726515231017,13.225832389682818,14.855407185249431,253.87993365615148,6.355747364627933
7.4564801312246525,15.511958747573582,28.198551359139312,13.24744172684561,14.759637458288058,252.62423964319746,6.320439673046205
7.434865135181832,15.520728417362855,29.26226892919745,13.26687742979655,14.689532014039623,251.35864411124146,6.28546725172389
7.412100929393899,15.52935926663179,30.36035284270384,13.28395882090731,14.646443129604481,250.08416678451505,6.250898668289342
7.388252657165489,15.537830389569288,31.49113701609915,13.29852316706207,14.631484127530232,248.80199717740354,6.216805411846974
7.36340394150081,15.54613858470778,32.652816589599894,13.310434417218175,14.6455396814872,247.51352838943697,6.18326811044378
7.337655389452348,15.554313134627419,33.84346585929186,13.319587673252084,14.68927986100979,246.22036189276776,6.150383518082436
7.311127478887388,15.56243522735458,35.06106332689708,13.325915077395727,14.763167956678952,244.92425984178504,6.118268190712843
7.283965047170276,15.570680374158377,36.30350021841225,13.329401915067383,14.86745786161494,243.6270873779856,6.0870577417126395
7.2563431075949705,15.579385204701374,37.56857593534583,13.330108403947605,15.002187642897676,242.33076426436583,6.056903964128748
7.2284741437268245,15.58912827995139,38.85400706040059,13.328180486156462,15.167181568166438,241.03720415576336,6.027971591764306
7.200611554073439,15.600810835236596,40.15744797806059,13.323844719475114,15.362064495121677,239.74825170243244,6.000433989279067
7.173044557739573,15.615699734365354,41.47649680363213,13.317397901226474,15.58627886031978,238.46565691012546,5.974467215836411
7.14608711853523,15.635416008923345,42.808691673632126,13.309196822115712,15.839100302594296,237.19107862968804,5.950244480908618
7.120066477170954,15.661901598785922,44.15152755246279,13.29964755310316,16.11966399354761,235.92606873958155,5.927933315165038
7.095314518420051,15.697379009292305,45.50249463289177,13.289198262173738,16.427006978583574,234.67204550578447,5.9076954113630835
7.072161722238312,15.744290203859704,46.85911319978748,13.278337004938715,16.760118749449365,233.4303244426449,5.8896870204073135
7.050931423839592,15.805218346966763,48.218955167879436,13.267590840873966,17.11799633944318,232.20219882881514,5.8740574898613644
7.031933203949553,15.882809135585887,49.57966292777466,13.257529092366214,17.49970171863876,230.9889634230805,5.860945770979428
7.015457042233647,15.979702761540013,50.93896716675815,13.248773099517864,17.90441442436194,229.79184207021075,5.8504770940521995
7.001769830434929,16.098476600802808,52.29468878105588,13.242007357205667,18.33147557927319,228.6118913918044,5.842761337589272
6.991112803304826,16.241591947739668,53.64472993552907,13.238000677302098,18.780417821269975,227.44993271227847,5.837892819219917
6.9836977506337865,16.411344068351884,54.987077953688896,13.237646519117861,19.25096714666867,226.30651077170987,5.8359505846953965
6.979702189005826,16.60981958302971,56.31981581695698,13.24199531065057,19.743020899786124,225.1818810000511,5.8369984325971815
6.979265018004604,16.838860720080103,57.641119988339725,13.25224991868871,20.256630848874718,224.0760183255873,5.8410845993577585
6.982483902729116,17.100033960821207,58.94925157178471,13.269733877893286,20.791998507759494,222.98861947233172,5.8482415915562305
6.989414963368805,17.394603726556056,60.24254462283308,13.295850081316269,21.349459766785557,221.91909236506984,5.858486561027201
7.000074394067153,17.72351294199721,61.51938463726724,13.332053117748941,21.929446682900505,220.86654704629228,5.8718217239525625
7.014440991132686,18.08736958224126,62.77818905149556,13.379891983026498,22.532439837948477,219.829793630163,5.888233333643697
7.032459011352757,18.486436501143476,64.01740778681334,13.44113781017011,23.158933525958204,218.80735872826062,5.907688695712042
7.054041286121518,18.92062487457285,65.2355577814717,13.517899013212574,23.80941915374199,217.79752622555267,5.930133284087114
7.07907184742532,19.38949460083066,66.43131387040935,13.612651860899618,24.484369689736507,216.79837289552572,5.955490316637198
7.107407330560282,19.892262244923465,67.60363956617368,13.728253727047417,25.18421413104103,215.80777483828044,5.983662100758237
7.138878470292136,20.42781268038658,68.7518898474088,13.867990514949174,25.909308086083303,214.82340194582866,6.014530929654215
7.17329357476262,20.99471081969761,69.87585109395808,14.035581302537988,26.659904878171396,213.84273158361842,6.04795962118417
7.2104442581136645,21.591213466319793,70.97572368316818,14.235076810346506,27.436132686663715,212.86309278115093,6.08379299907466
7.2501132086220945,22.21528320956617,72.05204723873979,14.470695765737048,28.237987697699527,211.88172099775502,6.12185973531696
7.292082682493813,22.864605215399997,73.10559182742935,14.74667120539356,29.06533556179185,210.89580018444815,6.161973124443555
7.336140196020202,23.536606198879415,74.1372681324986,15.067163865846107,29.91790173502011,209.90250202432662,6.203930725378076
7.382079394181641,24.22847792544432,75.14808230246658,15.436278703443971,30.795248877446525,208.89904801820015,6.247513787504096
7.429700216096978,24.937217075077246,76.13911508165675,15.858136820159757,31.69675510786849,207.88278835020165,6.292487349719523
7.478816874497675,25.659694178675434,77.11150680792473,16.336890362217236,32.62160195647551,206.85125943766266,6.338601861640087
7.529274628740916,26.392745431793678,78.06645535293043,16.876634319509545,33.56876811542993,205.8022056349276,6.385596314648891
7.5809625733307895,27.133259352035697,79.00521928004854,17.481265939977128,34.53702328100936,204.73359553444524,6.433201353955431
7.633812341944389,27.87822890532531,79.92910749954021,18.154349140278768,35.52492854383463,203.64364871037006,6.481141527598836
7.687787461560936,28.624763966476404,80.83946949472157,18.899006043261085,36.53085092293394,202.53083823920664,6.529137485910596
7.742871460012689,29.370082685368523,81.73770314923944,19.71783737893168,37.55298715245574,201.39384154348286,6.576908252755611
7.799074366000274,30.111502986039937,82.62525652445287,20.61286625785487,38.58939443917761,200.23146144657247,6.6241732580066675
7.856506711518603,30.846454502122647,83.50360358038206,21.585515521905315,39.63803334825639,199.04255649363864,6.6706550980946915
7.915529077829675,31.57251900941805,84.37423336283989,22.63663862163624,40.696818914253264,197.82600852672957,6.7160833913568725
7.976879210304852,32.28747586424217,85.23868616113667,23.766584808661932,41.763673341843464,196.58073171412337,6.76019837918317
8.04168739408967,32.9893324536558,86.0985768737399,24.97525062597239,42.83657777218882,195.30569592646168,6.802752901844953
8.111405967928052,33.67635537466724,86.95553780065467,26.26210592714428,43.913609374598416,193.99994110537023,6.843512063079894
8.187717663958807,34.34711064288743,87.81111382417838,27.626230067254287,44.99295344976611,192.66258834297045,6.882250877643562
8.272449778553412,35.000491739760506,88.66668102819335,29.06639918656273,46.072912472921274,191.2928542772668,6.9187515341731265
8.367498599952713,35.63573069738638,89.52340499347791,30.58120540660888,47.15194760447696,189.8900611212676,6.9528022919116745
8.474765298170675,36.2524040117014,90.38221048495458,32.16912716694252,48.22876247663767,188.45363287316079,6.984198817955026
8.596102364319087,36.85042061221842,91.243742402002,33.82852864212193,49.30240052644767,186.9830808008797,7.012747088717204
8.733267694389522,37.4299820615852,92.10833250151849,35.55764650383378,50.37230689148377,185.47800177343223,7.03826710866474
8.887885757725492,37.99153849238296,92.97600600947577,37.35458583882768,51.438321002039416,183.9381028905952,7.060597358678108
9.061420591295452,38.53575416504556,93.84652952902317,39.21730659719763,52.500607992047456,182.3632326993852,7.079598259633915
9.255162145136177,39.06346717012134,94.71945147818721,41.14360275523163,53.55957462050406,180.7534032936843,7.095152182728224
9.47021644788363,39.57563660860602,95.5941065966857,43.131091161698066,54.615819531184655,179.10880658526494,7.107160354639832
9.707490005001976,40.07329387946798,96.46961446321879,45.17722782078836,55.67013140904102,177.4298245311649,7.115539436546007
9.967671021940838,40.55750810122548,97.34489671053734,47.279354629946695,56.72350489305073,175.71703607309033,7.120219783102881
10.251214797799706,41.029353329946716,98.21869632998933,49.434759627150235,57.777148490078886,173.97122362124185,7.121145365340285
10.558338016183594,41.48986791575864,99.08958370361337,51.64072686866505,58.83249675545919,172.1933678518626,7.1182742311099965
10.88902848767042,41.94001684659983,99.95595750637398,53.89454494826494,59.891233127863615,170.3846313356695,7.111578302494006
11.243073922658821,42.380670523588435,100.81604722366521,56.19346003408978,60.95528847656698,168.5463465173602,7.101041812832289
11.620106061275997,42.81259727018297,101.66791126176595,58.53459855320033,62.02678443645467,166.6800069679161,7.086658652226924
12.019658466082163,43.236460641332805,102.50942650512069,60.914895696286976,63.10794065702862,164.78725867134258,7.06842967524432
12.441227219820341,43.65282661340638,103.33828140640495,63.331048553756354,64.20101090815992,162.86989953090787,7.04636096937604
12.88430654937084,44.06219165456757,104.15199501120001,65.77948977113638,65.308302339438,160.92987588864128,7.020463612708047
13.34838846359124,44.46502373326769,104.94796428718259,68.25637086873253,66.43223418866863,158.96925491935858,6.990755595721144
13.832952527942082,44.86179434710792,105.72351406678791,70.75757180519017,67.57532668139793,156.99017722329364,6.957266551567099
14.337484605225693,45.25298990355355,106.47593003048698,73.27876134603503,68.74010004098226,154.99480803330735,6.9200437338504335
14.861532964795604,45.639106418566165,107.2024732436185,75.81549698871525,69.92898534929519,152.9853090427705,6.879155772725117
15.404758883683568,46.02064460987386,107.90037819667015,78.36334632500346,71.14431893089785,150.96386132343662,6.83469276684384
15.966939483445849,46.39813501521637,108.5668472066473,80.91801426323144,72.38836153106317,148.9327464600755,6.786764576686018
16.547948048985987,46.772201446604875,109.19905973175591,83.47544244164663,73.66325451476227,146.89445050615083,6.735499416361013
17.147783875600904,47.14361438814229,109.79419373198368,86.03188663014224,74.9709200693543,144.8517406306119,6.6810424203599075
17.766665918977946,47.5132835972145,110.34944810547788,88.58401802155595,76.31297936829682,142.80767137301254,6.6235527044819555
18.40510399784299,47.88220969622045,110.86207317514169,91.12905295998402,77.69073055252805,140.76551272429765,6.5631990958142445
19.063875860037548,48.25144457900656,111.32942366810458,93.66487718785675,79.10515589681019,138.7286459172412,6.500156462124848
19.7439356156439,48.62206963704936,111.74904509723906,96.19012360402735,80.5569101767022,136.7004771061579,6.434604614653862
20.446307218058724,48.99517571113196,112.11878062561436,98.70417147083488,82.04628271123339,134.68437622377695,6.366730537272385
21.1719868829985,49.37183866318459,112.43684176251412,101.20707748606694,83.57315549043108,132.683623567234,6.29673246317495
21.92186076062429,49.75311492463865,112.70180318016999,103.69947083101877,85.13698893654228,130.7013556165655,6.224822523689644
22.696638233280794,50.140135272117455,112.91255733223338,106.18243183417366,86.73684284821614,128.7405179824437,6.151225995275663
23.496800671546072,50.53431792122871,113.06828189703518,108.65738692863256,88.37138810794234,126.80383496913181,6.076178437687899
24.32257341938561,50.93755143946344,113.16842169241899,111.1260396081582,90.03888065838517,124.8937913245724,5.999923037109679
25.173926700404884,51.35221795906311,113.21265840990073,113.59029143220027,91.73714194806035,123.01261641802166,5.922709229009697
26.05058873501202,51.78110623152867,113.20087021282774,116.05212301770877,93.46358847014314,121.16227490931115,5.844792508251266
26.952049223716323,52.22728936655599,113.13311976234557,118.51348739791649,95.21530164244939,119.34447457202909,5.766434246557816
27.877560183620176,52.69398131625907,113.00968511814463,120.9762683994554,96.9891237341352,117.56068991716752,5.687900283486047
28.82615288935787,53.184396566642654,112.8310850704927,123.44228943734932,98.78175475178445,115.81219019438784,5.609458390145371
29.79666710774485,53.70164216140165,112.59807039776847,125.91331442058905,100.5898020890846,114.10006018184276,5.5313753862633055
30.78777600795092,54.24863531807016,112.31164785957745,128.39100767898685,102.40977730582165,112.42521173041975,5.453914692222761
31.79799635853186,54.82802344964188,111.97319026708553,130.87687542110527,104.23807849569303,110.78839945034606,5.377334813329577
32.825681616969504,55.44210329113467,111.58455820529535,133.37220966248535,106.07098937293897,109.19024555868624,5.30188874087728
33.86900900558719,56.09275915929026,111.14813454874715,135.8780234528457,107.90472789945225,107.63125343440916,5.22782397083821
34.92598261560694,56.78143466828861,110.66677787887262,138.394975701542,109.73556270918776,106.11180001693295,5.155382072890279
35.99446401518763,57.509126702964046,110.1437608313379,140.92332225938978,111.55996485552434,104.63212619202405,5.084796947578336
37.072215653126285,58.276383202353905,109.58271969426121,143.4629548395586,113.37472980861001,103.19234665838053,5.016292447256305
38.15693327892718,59.08330034512345,108.9875869018125,146.0135271477128,115.17700982185795,101.79250051423094,4.950079926584343
39.24626966090916,59.92952017486324,108.36248676798425,148.57454636302052,116.96426500154551,100.4326494945614,4.886355782656515
40.33787203398745,60.814234263965986,107.71162534192659,151.14533472180668,118.73420852099227,99.11298130821207,4.82529998455108
41.42943342837711,61.73622008588266,107.03922348985854,153.72491797249748,120.48478157773616,97.8338696064274,4.767076121749186
42.51872995029171,62.693930025365646,106.34950684713999,156.3119579136424,122.21413682045893,96.59588855332335,4.711831752469419
43.60362170667676,63.68561062819266,105.64671145981227,158.90482990637827,123.9206130153675,95.39979386010152,4.659698458025456
44.6820222920513,64.70941121810954,104.93505687315626,161.50185285452574,125.60268950906111,94.24647557514153,4.610792477770355
45.751859723781756,65.76344644079822,104.21869109039054,164.10149759980186,127.25891900654547,93.1368938671653,4.56521608626593
46.811046888792504,66.84579635769897,103.50163797160143,166.70241237203047,128.88785497426232,92.0720073475175,4.523058747445633
47.85746541311256,67.95446637043018,102.78774808094477,169.30333164910598,130.48798323266323,91.05270247761982,4.484396855396811
48.88896051088918,69.08734325696093,102.08064162217568,171.9030023281851,132.05766175919152,90.07974002931716,4.449291658183483
49.90334814813105,70.24215972899631,101.38365403086564,174.5001375825961,133.59507989347546,89.15372867715472,4.417787236579687
50.89843849532833,71.41647495958125,100.6998049142768,177.09337231949382,135.09824361527137,88.27511468023418,4.389911285103999
51.872078186313175,72.60770897503674,100.03180589826006,179.6812617730834,136.56498729098277,87.44416957374249,4.3656783149141445
52.82221142528085,73.81324296181779,99.38210029296096,182.2623539136739,137.9930239081592,86.660974572603,4.345091673255856
53.74694156409594,75.03051160107256,98.75289610842255,184.83528878175935,139.3800385281804,85.92541194650175,4.328142133929769
54.64456291344807,76.25702460942337,98.14617573776519,187.3988695073061,140.72378706150784,85.2371654047107,4.31480440337458
55.51357027956257,77.49034719239162,97.56370944427147,189.95208107215757,142.02215705459858,84.59572328552832,4.305034170618334
56.35268425693561,78.72808837008812,97.00708294485685,192.49403995723037,143.273185130343,84.00038539630145,4.298767028063355
57.16088996537422,79.9679034337187,96.47772988616661,195.02388752961525,144.47505792025933,83.45027751268242,4.29591869017258
57.93745104880675,81.20748831474373,95.97698756691231,197.5406802098699,145.62614831834063,82.94436163966999,4.296385343092894
58.681890124186765,82.44454856699139,95.50617889834419,200.04331393159455,146.72511187970233,82.48142955781994,4.300043847843845
59.39395996479772,83.67675248383338,95.06666780190658,202.53048847941466,147.77100137481395,82.06009388168698,4.306752250786682
60.07363300239396,84.90169297477233,94.6598591792074,205.00071369640244,148.7633487928962,81.67880508483181,4.31635164306374
60.721118064212945,86.11688197341813,94.2871716516884,207.4523359646711,149.70218702271467,81.33591411565544,4.328671005336256
61.33687401638801,87.31979511421571,93.95000335281345,209.88354353627085,150.58799162597353,81.02976500589098,4.343534825506258
61.92158503978578,88.50794960889448,93.64970667529676,212.29235370414347,151.42155704175678,80.75875632586498,4.36077000973793
62.47610343617116,89.67895361033332,93.38759022978316,214.6766137017467,152.2038548797257,80.5213388680331,4.380208981819772
63.00138572166176,90.83049706067165,93.16491775805987,217.03401282719693,152.93590527506103,80.31599731414305,4.401689480045892
63.498441859607716,91.9603382908327,92.9828606934654,219.36210597651402,153.6186713269085,80.14125854732507,4.425053692369005
63.968309046521796,93.06634116376586,92.84242135305013,221.65838626872076,154.25300060487518,79.99570016336976,4.450148356204256
64.41204717309903,94.14653627327979,92.74438346927676,223.92038444198394,154.83962750472188,79.87793542258034,4.476825237679707
64.83074659118478,95.19914942937969,92.68931506199525,226.1456891928684,155.37919097641813,79.78660644838574,4.504941099319235
65.22553475904573,96.22258427614247,92.67759276498,228.33185697043425,155.87221141060562,79.72040796539113,4.534357656301486
65.59757108913581,97.21537743727437,92.70941550102214,230.4763113325801,156.3190347702199,79.6781185865107,4.5649422002219175
65.94805208909517,98.17614837445909,92.7848123485358,232.5763391678239,156.71978506266706,79.65863275927634,4.59656916075532
66.27825288167085,99.10358021004747,92.9036500085911,234.62920720935082,157.0743376214196,79.661001094901,4.629123483547523
66.58957925964425,99.99645608751698,93.06562602235535,236.63236002801915,157.38230557787512,79.68444552685466,4.662505285963235
66.88359445058677,100.85371688519393,93.27024131253164,238.58362877652866,157.64304500377577,79.72832140504619,4.696632074449202
67.16202466402727,101.67448675974873,93.51676305353931,240.48134448420655,157.85569206632044,79.7920591669018,4.731436344114831
67.42674765494245,102.45805708968905,93.8041950627685,242.32429653904657,158.0192285322032,79.87513092269398,4.766861063235112
67.679749800955,103.20384976771415,94.13126586189591,244.11160321082443,158.1325602772917,79.97705850527912,4.8028560751546925
67.9230557642991,103.91137612813812,94.4964337350366,245.8425913627169,158.19459244355252,80.09744635975164,4.839376255234703
68.15865439150153,104.5801976126389,94.8979171365356,247.51672655420518,158.20428503005928,80.23599003119998,4.876381129118882
68.38843691946451,105.20990223272773,95.33375272267179,249.1336058809834,158.16070724020457,80.39243267899273,4.9138346037815674
68.61416017841974,105.80012617414623,95.8018445493736,250.6929927186914,158.06312538632142,80.56650372987484,4.95170316775672
68.83744676985994,106.35061657780489,96.29999036243727,252.19484146196996,157.91110209611247,80.75787899563468,4.989952602404906
69.05980805068909,106.86127839012399,96.82593478757462,253.63928385138942,157.70455490449137,80.96616301222919,5.028544487108283
69.28265343168063,107.33216784536327,97.37746488850544,255.02658080148433,157.4437559346354,81.19088030567181,5.067433282442194
69.50727052886536,107.76344887673261,97.95248121192475,256.3570759406942,157.12929072897506,81.43146715988787,5.106564353604416
69.73479428535641,108.15533892059909,98.54899579053162,257.63119842689184,156.76200933259634,81.68725823468989,5.145873621354178
69.9661872601123,108.50806135766253,99.16509501968658,258.84948203569735,156.34298234266967,81.95746543025564,5.185289101959301
70.20224266161124,108.82182278995654,99.79893272016221,260.01251981479544,155.87346087906505,82.24115638196069,5.224733566656225
70.44361185714848,109.09683025637132,100.44875606748725,261.1208498873153,155.3548521744293,82.5372509639404,5.264127534412419
70.69084525664671,109.33334535105627,101.11290775537334,262.1748159205701,154.78870585588052,82.84454642290675,5.303392082542559
70.94444142344125,109.53175363020608,101.78978242610407,263.17446938423143,154.17668681774452,83.16175599152913,5.342451190086076
71.20490379833797,109.69262508381465,102.47778324915791,264.11965881342695,153.52053964643673,83.48753047207023,5.381234063730227
71.47277943258504,109.81675817135938,103.17532465936551,265.0103585660243,152.82206669750994,83.82045496459294,5.419677134157248
71.74866615424058,109.90522616823304,103.88087343625499,265.8470325390766,152.08311543692133,84.15905216375334,5.457723982944419
72.0332101311808,109.95944967372047,104.59298053892287,266.63080871983726,151.30556413631135,84.50181666411972,5.495322764954193
72.32709352128829,109.98127871289888,105.31027149263133,267.363424687912,150.49130897190003,84.84726064306548,5.532422849315154
72.6309953676446,109.97303327507484,106.03140878472652,268.04702031887723,149.64224688221776,85.19394165383443,5.568972238279767
72.94553769598086,109.93749952865981,106.75506215975979,268.6839305855215,148.76024710187153,85.54046842695821,5.6049159425793365
73.27123827003192,109.87791624265739,107.47991165980578,269.276618865724,147.8471234218942,85.88549633968739,5.640195173048872
73.60848568968404,109.79793889051112,108.20467899874643,269.827721157392,146.90462474252558,86.22772537152069,5.6747476264351215
73.95754763509913,109.70158138390178,108.92815835592009,270.3400543984152,145.93445901492953,86.56590649560657,5.708508395564792
74.31860165614975,109.59317184350267,109.64922540504703,270.81651764227155,144.9383491313776,86.89885335046657,5.741410161022793
74.69175938881371,109.47729505282004,110.3668331164985,271.259962216723,143.91807672101237,87.22545867188965,5.773382393560964
75.07706784107329,109.35868549145934,111.08000884956107,271.6731840931968,142.8754780787205,87.54471359991747,5.804350853959551
75.47451027460322,109.24211800827261,111.78784452844097,272.0590807691795,141.81243441295487,87.85571105833478,5.834238435681905
75.88403468083433,109.1323386194673,112.48946887434045,272.42078870447995,140.73090704985353,88.15762166388723,5.862966689567021
76.30558723713186,109.03400908907638,113.18401862849662,272.76163853229906,139.63297915492777,88.44966398899234,5.890456665461048
76.7391083442232,108.95163183551489,113.87063048505574,273.0850205049679,138.52084482722452,88.73110187118,5.916629186396173
77.18449711851345,108.8894625478099,114.5484413176787,273.39430370454363,137.39676498219413,89.00127357548271,5.941406013013096
77.64159684084927,108.85144420176617,115.21656950247262,273.6927780104492,136.26303885722638,89.25962079732217,5.9647123935994
78.11022922534981,108.84117856652132,115.87407648633747,273.98353146537556,135.12199270459723,89.50568837323631,5.986479345915017
78.59022908537004,108.86191183299476,116.51994092589023,274.2692993068549,133.97596147513772,89.73910366359019,6.006643782083291
79.08142535740811,108.91651953521954,117.15308402999791,274.5524002135411,132.82725959232835,89.95956807568248,6.025147410090092
79.58359751349509,109.00751470618059,117.772433235384,274.8347896306814,131.67815180291583,90.16687618081181,6.041937091521601
80.09646402733225,109.13707903523907,118.37695759702744,275.11816143371095,130.53082673963058,90.36093661683296,6.056966785119809
80.61969578779484,109.30708608370095,118.96565145548281,275.40408957734445,129.38737384008846,90.54176445365121,6.070198579396483
81.15291192765889,109.51914300016801,119.53751411799784,275.69423221277884,128.24976790450157,90.70945882815452,6.081601874669447
81.69565143114225,109.77468817917713,120.09155431630475,275.99047613034963,127.11986182712502,90.86419864970095,6.091152553248447
82.24734359353957,110.07507185279245,120.6267977981707,276.29490531073645,125.9993970042906,91.00625304201438,6.098833639015544
82.80728782922449,110.421527781916,121.1422862819055,276.6096692356416,124.89003749115685,91.13597618099108,6.10463674871298
83.37463663677845,110.81506123782842,121.63708092722476,276.93685687093136,123.79339856218452,91.25378655068343,6.108562801966847
83.94838976573416,111.2563331324314,122.11026500049395,277.2784116300669,122.71104620637365,91.36015543309361,6.110621292718254
84.52743573312509,111.74559295407809,122.56092665209228,277.6361016826432,121.6444908877674,91.4555960335201,6.110828797539501
85.11064736332776,112.28267223570822,122.98812488531625,278.0115075117868,120.59519350247591,91.54062578896078,6.1092080991794155
85.69696885796463,112.86700239397771,123.39085185985208,278.40596367573096,119.56456342747812,91.61570840634052,6.105788904250574
86.28543993713434,113.49761738056395,123.76799573586165,278.8204621575593,118.55393538001807,91.68119994765998,6.100609841150659
86.87517489413898,114.17313825340024,124.11830982911134,279.2555785508363,117.56454362350689,91.73731744296674,6.093720238213471
87.46535851447331,114.89174890485734,124.44039582585478,279.71145477630444,116.59751359729268,91.78416206670775,6.085181136231688
88.05530504615291,115.65117366997242,124.73270431043667,280.18783668954086,115.65386688619755,91.8218041442042,6.0750661847484295
88.6445461872809,116.4486810058532,124.99356104361509,280.684183844916,114.73452945776646,91.8503671724904,6.063462005163742
89.23286406438578,117.28113306901523,125.22122295157047,281.199863273662,113.84034043213143,91.8700656096967,6.050467283038442
89.82024529842052,118.1450645638069,125.41394318289828,281.73433899483075,112.97205074574246,91.88122539845097,6.036190823133233
90.4067992963908,119.036749762045,125.57002666488928,282.28721863564357,112.13031052374119,91.88430221106044,6.0207487781926226
90.99268008647074,119.95224921168372,125.6878758671534,282.8581468584658,111.31566431026899,91.87987082067431,6.0042613766575865
91.57802945595708,120.88746689283315,125.76601542474124,283.4466672936577,110.52855516886702,91.8685828313122,5.986849697800446
92.162959621846,121.83824348787131,125.80308684766898,284.0521386684994,109.76932316053868,91.85112509404357,5.9686325384857
92.74757946373461,122.80048511487492,125.79784418892658,284.67370880999806,109.038203127557,91.8282083326132,5.949723409501061
