HandOpen,HandClose,Wrist Flexion,Wrist Extension,Supination,Pronation,Rest
43.75050164259843,46.34593911829321,94.8733880008424,53.918582532334504,49.04844211651382,7.57275784171678,11.428674337242843
43.282232928947906,47.88747671612474,95.68590776016075,51.9938433709707,48.58565759007487,7.647517134231684,11.582183146457087
42.77717264347516,49.50144454050559,96.43055606672146,50.120825502561594,48.126027812136364,7.722419963942472,11.731008476771127
42.236126482443545,51.182449073345836,97.10448520741647,48.300234281889786,47.670482843013446,7.797100157348793,11.874814393500134
41.66014137170163,52.92457300418526,97.7049621823259,46.53259323494871,47.21990088772182,7.871196862037466,12.013271940081564
41.05049277152211,54.721406588192416,98.2294002190347,44.81825299095753,46.77510299126823,7.944353216035093,12.146057410598242
40.408664812284094,56.56609553206702,98.67540688016634,43.15739924781189,46.336845843704616,8.016214893028884,12.272851208964205
39.73633576442973,58.45139590142978,99.04082679577955,41.550059799874276,45.90581428920526,8.08643021060714,12.393336816313743
39.03536555710875,60.36972596180882,99.32376289480175,39.996110803040004,45.48262081100788,8.154653285276565,12.507199746193685
38.30777532396017,62.31321797288895,99.52259662447587,38.495283651370656,45.06781739671835,8.22054922094948,12.614127202891078
37.555718129866534,64.2737746626028,99.63602900351945,37.04717316849154,44.66191665050414,8.283799649182289,12.713808879106846
36.78144971118664,66.24312422742628,99.66312241100985,35.65124617223504,44.26541169135415,8.34410858914928,12.805938144883877
35.98730646284909,68.21286584000585,99.60331147872823,34.30685071662419,43.87878278295739,8.401208182091871,12.890212873709421
35.175690778587345,70.1745079158454,99.45638419686836,33.013227866425616,43.50248704669557,8.4548625784004,12.96633597284429
34.34905910805413,72.11950635384026,99.2224543073798,31.769525569681146,43.13693956124099,8.50486900621272,13.034016083385723
33.509907824776164,74.0393057629784,98.90193626569278,30.57481151817525,42.78249699839689,8.551056360348475,13.092970179353975
32.66075511868323,75.92538279264673,98.49552219988122,29.428083142961935,42.43945124385209,8.593282580639373,13.142930792707437
31.804120386903943,77.7692899534737,98.0041615962892,28.328275307633902,42.10803701504723,8.631432555571331,13.18365742565197
30.942504150956918,79.56269923486998,97.42905008702364,27.274266871866253,41.788456354767916,8.665416876815558,13.214947371990203
30.0783734189455,81.29744612758836,96.77162831734168,26.26488709852392,41.480917686564034,8.695169800607845,13.236642045556419
29.214156694057152,82.96557394927787,96.03357918236517,25.298922020690142,41.18567370235964,8.720645496155292,13.248628952226555
28.352244715389116,84.55937589610747,95.21681416868324,24.375120454091856,40.90305415525737,8.741813759587707,13.250841927602782
27.49498713634559,86.07143230121706,94.3234552460682,23.49220251328027,40.6335350639858,8.758656845611961,13.243262891756984
26.64468263865553,87.49464446624836,93.3558202296331,22.648876700603186,40.37786730259657,8.771167935796171,13.22592571253718
25.803569637988563,88.82226944468117,92.31640800366597,21.843865475259836,40.13718627284393,8.779350285202646,13.198918555258864
24.97382179677356,90.04795738895757,91.20787877680421,21.07592916559799,39.91302110334848,8.783216118326722,13.162381920789315
24.157543583100782,91.16578685707304,90.03303148450519,20.34388482757191,39.70724729000828,8.782785333631717,13.116503685434752
23.35676145480332,92.17029254567628,88.79478162261961,19.646633179952918,39.52205797085288,8.778084204964593,13.061514166642217
22.573414730788212,93.05648725068191,87.49614003576471,18.983196301842078,39.35993421275991,8.76914531735368,12.99768449704762
21.809351106263783,93.81988635455608,86.14019268159906,18.35274138152226,39.22356666754295,8.756010401012281,12.925330113193995
21.066323742500085,94.45653759586543,84.73008233464905,17.754575309900122,39.11574278270131,8.738734252417927,12.844816132723942
20.345985103357485,94.96304779968254,83.26899353754911,17.18813031245958,39.03924111800012,8.717385803915139,12.756558290791611
19.649876916090623,95.33659978189131,81.7601427676816,16.652960383675293,38.996746361579284,8.692045478475336,12.661016919258413
18.97941705157514,95.57496214519261,80.20677439007014,16.14873819988792,38.99077434281115,8.662801442791963,12.55868678238775
18.335885806952472,95.67649603754518,78.61215883334559,15.675236768478754,39.02360092412278,8.629749486065505,12.450086638205569
17.720415948668094,95.64015842801386,76.97959058036203,15.232298688905171,39.09720143692782,8.59300261653189,12.335750615269593
17.13398799058452,95.46549845822172,75.31239443037367,14.819804830751032,39.21320828981234,8.552709881009058,12.216221326417928
16.57742749623154,95.15264511205586,73.61395949327967,14.437652376541912,39.3728931116996,8.509071904541823,12.092043548300875
16.05140162231366,94.70228911037954,71.8878017680791,14.08574614100911,39.577174828999325,8.462342716808134,11.963757777998444
15.556416987378135,94.1156627201766,70.13761521018935,13.763999496408442,39.8266351370542,8.412821640216038,11.8318939259649
15.092821633764725,93.39451876483454,68.36728155245116,13.4723418688572,40.121516627719934,8.360843514168222,11.696965902812984
14.660809211957963,92.54110922241172,66.58086270698834,13.210728171020538,40.461703476829335,8.306770121998996,11.559467437560237
14.26042219844584,91.55816346442307,64.78260064555508,12.979137410690742,40.846703236494406,8.250982439343693,11.419869385695485
13.891554407506026,90.44886550889122,62.976919620259466,12.777555537590525,41.27564204021239,8.19387297954919,11.278619526506219
13.553954650023796,89.21683006791699,61.16843784297413,12.605954231796492,41.74727370599306,8.135837515738018,11.136144538287866
13.247231815179898,87.86607804907118,59.361993557885434,12.464276093624603,42.259998422987046,8.077266288512835,10.992851690922947
12.970860221796771,86.40101219993196,57.56264619404098,12.352423980892002,42.81188772937472,8.018536566686235,10.849129334465477
12.724184158512735,84.82639305635477,55.77562271456788,12.270248127092282,43.40071851774285,7.960008880891179,10.705347889634417
12.506421964740348,83.1473142444639,54.00623359189702,12.217530368746461,44.02402501555021,7.902026325185697,10.561861910460362
12.316671032226465,81.36917543420749,52.25978858815897,12.193968525834956,44.67916917432938,7.84491367212397,10.419011497726954
12.153914430945072,79.49765269297113,50.541517707916164,12.199161949285536,45.36341277264406,7.788975274549813,10.277121533793473
12.017029296604194,77.53866799199164,48.85649723126169,12.232598386137608,46.07397330918447,7.734493377260553,10.136498478877222
11.904798003392797,75.49836041207612,47.20958439998597,12.29364349962225,46.808060392899215,7.681726669561023,9.99742578303495
11.815923846724523,73.3830621958429,45.60536278245047,12.38153369902141,47.562904738593744,7.630907720929304,9.86016083507712
11.749049977264388,71.19927983898042,44.0480972750326,12.495372497524707,48.335799224113806,7.5822401105980255,9.724936620582639
11.702776152129575,68.9536736629488,42.54169872365101,12.634131334997184,49.124155575103536,7.5358965991955245,9.591967478488227
11.675670652253554,66.65303163882147,41.089700330404376,12.796654201774075,49.92554594550625,7.492018073586563,9.461454588676471
11.666280422117342,64.30424698895243,39.695244190696236,12.981663424374533,50.73770210315956,7.450713033997063,9.333588708449991
11.673141001311452,61.914311210698166,38.361071990965925,13.187765250599915,51.55849496924225,7.4120582390782905,9.208552104195693
11.694783733662867,59.490313742478534,37.0895175174536,13.413455614562867,52.38593104188251,7.37610031424314,9.086523579619916
11.729738921674112,57.03942595579329,35.882503110376085,13.657126523940612,53.21815690700417,7.342857334466421,8.967688504215642
11.776536752394117,54.56886319412713,34.741541348156005,13.917075853848173,54.053438653912046,7.312320521944727,8.852249338353596
11.833708202090426,52.08583938450491,33.667741441437464,14.191528165456694,54.89011354728048,7.284457659013965,8.740428898404126
11.899787044858895,49.597527201226235,32.66181821270843,14.478668757833589,55.72653752175847,7.259218811687639,8.632465166701229
11.973313726827286,47.111023080169495,31.7241012114319,14.776677593755359,56.56104339838874,7.236541824831466,8.52860359584057
12.052841013608022,44.63331118197756,30.854544270108942,15.083749322515166,57.39191547510299,7.216354433101256,8.429091409513626
12.136939944564668,42.171224794968985,30.052736966366975,15.398100974067775,58.21738321510752,7.1985730432638055,8.334173077611187
12.224205697471676,39.73140742023429,29.317918072918147,15.717974778996096,59.035627665608,7.1831004608473075,8.244084789744045
12.313264659243341,37.32027609760535,28.648991703823423,16.04163984660436,59.84479341762605,7.169824167516279,8.1590490182358
12.402782105994872,34.94398920082711,28.04454776647246,16.3673952244266,60.64300080664642,7.158616452697012,8.079271825096699
12.491467819959796,32.60842007560016,27.50288605192826,16.693576775781207,61.42834711191952,7.149339595433547,8.004942326241588
12.578078846106873,30.319135813399278,27.022041851667126,17.01856748587007,62.198894818975674,7.141859284174353,7.936231360329467
12.661421086344742,28.081379035002296,26.599815529514405,17.34080687957743,62.95266564599093,7.136062215227611,7.873288322837484
12.74035140556992,25.90005160133156,26.233814704447287,17.658796709514476,63.68765698779531,7.131866882659467,7.816237926182053
12.813780655496748,23.77970071593317,25.921510428344426,17.971106339379638,64.40187581034215,7.129222493429877,7.765179411299567
12.880677249378635,21.724507782013657,25.660289368291878,18.276380344462584,65.0933743569112,7.12810196810451,7.720188604902683
12.94007124325234,19.738279744015102,25.44748300261867,18.57334329894362,65.76028065099554,7.12849576399366,7.681320384545549
12.991059413166253,17.82444321269584,25.280376045297327,18.860797282503555,66.40082300179948,7.130407137223847,7.648609417629636
13.032811295850687,15.986042399660306,25.15620710362402,19.137615359801682,67.01334049931913,7.133847430871627,7.622069223772014
13.064574921529701,14.225740428049821,25.072168671430603,19.402736337130403,67.59627292848135,7.138832000075004,7.601690445213865
13.085680656491132,12.54582185840012,25.025409157066346,19.655162804621238,68.14813933194483,7.14537848346356,7.5874390644715435
13.095542838401208,10.948196009524223,25.01303965530621,19.893962554884066,68.66752231824833,7.153509722326505,7.57925504116283
13.09365992795321,9.43440316432259,25.03214514843839,20.118272440074016,69.15306710594805,7.16326203500893,7.57705147758261
13.079613384721059,8.005625321525683,25.07979681325176,20.327301685864178,69.6034885686277,7.1746937682481695,7.580715207051791
13.053064916594234,6.662702498350392,25.1530691873554,20.52033142107852,70.01757318699785,7.187887800684599,7.590111268662616
13.0137527933339,5.406154081534969,25.249075437695033,20.696710686711302,70.39417356703503,7.202947544538243,7.605091038991508
12.961489294318916,4.2362005195788885,25.365024132914822,20.85585245334218,70.73220363206381,7.219989579595167,7.625498345618133
12.896160823498398,3.1527814976010315,25.4982749387935,20.997232393240825,71.03063893081269,7.23913568088102,7.651169773773826
12.817730808166347,2.1555731858926555,25.646363801809482,21.12039029660533,71.28851923060995,7.260506106902872,7.68193159322686
12.726244201638114,1.2440066856811165,25.806994015066323,21.224932095145938,71.50495361078293,7.284214979836871,7.717596298508866
12.621830423945802,0.4172830131158487,25.97801250024464,21.31053081517068,71.67913237366886,7.310367726874461,7.757960945814782
12.504701772398871,-0.3256191234494344,26.157386424313092,21.376927678019197,71.81034320170686,7.339059305460258,7.802810797613227
12.375147937370729,-0.9859391802120755,26.34318330185146,21.423935552853326,71.89798733346474,7.370370940403052,7.851928604352711
12.233529650793319,-1.5651289809447642,26.533554403974208,21.451443398894703,71.94160216539193,7.404364632780928,7.905103589814394
12.080273280484077,-2.064842736717839,26.72672169053259,21.459418664154633,71.94089292354494,7.441077184754757,7.962134346358109
11.91586594082212,-2.486923060191334,26.920968121101556,21.44790695600988,71.89575627396364,7.480515856706608,8.022826026586673
11.74085049170833,-2.8333864459604543,27.114630769395664,21.417029147928673,71.80627767336296,7.522656277631806,8.086986313157505
11.555820594701233,-3.1064114721865987,27.306095821700325,21.366976779355507,71.67270553880411,7.5674417250919435,8.154425203788833
11.361415424589591,-3.3083284100183916,27.493795356519158,21.298009052167455,71.49541831735395,7.614783301797881,8.224961434771426
11.158314530213177,-3.4416077931564617,27.676207416245475,21.21045246647433,71.27489651924125,7.664561825957904,8.29843149374347
10.947237172779102,-3.508849356967364,27.851859325243062,21.104699294704176,71.01170516416855,7.7166317997499405,8.374692852654983
10.728948507992875,-3.512773983601982,28.019331311713493,20.98120357121491,70.7064868545418,7.770826900395801,8.453619293481859
10.504265477316276,-3.456217773976696,28.177258156888165,20.8404773537703,70.35996031872367,7.826966237159238,8.535093911240082
10.274053875592081,-3.342125324504244,28.32432880598348,20.68308693097322,69.97291889694557,7.8848604660326425,8.619004536177254
10.039217371304286,-3.1735403801127853,28.459285141536725,20.509646276126222,69.54622635305255,7.944316746565131,8.705241210367864
9.800684005219976,-2.953593099239059,28.580921455456078,20.320808170688526,69.08080819677785,8.005141998537914,8.793692815401094
9.559393517356705,-2.6854850002819832,28.68808586007968,20.1172555578786,68.57764443077225,8.067145937931018,8.884241719447315
9.31628728639069,-2.372474951170521,28.779685153526795,19.899695084095992,68.03778368441961,8.130146994621084,8.976758404530438
9.072301623767766,-2.0178681245891794,28.854692952747804,19.668853444237964,67.46238378904552,8.193982772215218,9.071098222388274
8.828362403079456,-1.6250059227657851,28.91215708230137,19.425475226101156,66.85274571344763,8.258521844125063,9.16710023854082
8.58537786976316,-1.1972542849851613,28.951203218541927,19.17032008034542,66.21031312886358,8.32367017122236,9.264586471976552
8.34422926313509,-0.7379904707706981,28.971036191358625,18.904158268539337,65.53665010071146,8.389371216628609,9.363360279276693
8.1057613017601,-0.25058951627796744,28.97094080240908,18.627765338072184,64.83341699263464,8.45560479968056,9.463205181199209
7.870774219823701,0.261589181926176,28.95028286964516,18.34191750315573,64.10234844027495,8.522384359887042,9.563886132573154
7.640018443092591,0.7952145038785572,28.908511339664052,18.047388876900374,63.34523300628856,8.589749280059461,9.665151846192282
7.414192481788415,1.3469945277085797,28.845160776317467,17.744950239759696,62.563894052823976,8.657756127330149,9.766735662971055
7.193943239249055,1.9136859388312797,28.759852024296077,17.435367842588647,61.760168607467605,8.72647659062355,9.868356602320244
6.979867228280971,2.4921034634801322,28.65229063363805,17.119401019165096,60.93588381524815,8.796002928724807,9.969725035056284
6.772512531160369,3.0791308402542756,28.522265046793578,16.79779885036269,60.09283639732501,8.86645211219151,10.07055448417448
6.572383520693987,3.671733306266038,28.36964794369955,16.471298398964173,59.23278045525981,8.93796107664065,10.17057483831413
6.3799493933006115,4.26697018300313,28.19440318245223,16.140628573928733,58.35742418623833,9.010675320902916,10.269539976822617
6.195652692848501,4.862006119143903,27.996594798114124,15.806519175417606,57.46843378336691,9.084736730084204,10.367228245423718
6.019912262555302,5.454120093210851,27.776391196616142,15.469707477131463,56.567446226494354,9.160273554711413,10.463439779455415
5.853119973498041,6.040712283792939,27.534063216491646,15.130937633930406,55.656093803435006,9.23739382782846,10.557993995466433
5.69563541672821,6.619310005704848,27.269979414546302,14.790956507415187,54.7360313402296,9.31618212930732,10.65072833597543
5.547781748827475,7.187573967365111,26.984600552954646,14.450509180514953,53.808948005762595,9.396697266676501,10.741498589299844
5.409842166243169,7.743305315625526,26.67847369959702,14.110333592356149,52.87655795293451,9.478969146838203,10.830179393564734
5.282056033076828,8.2844524686782,26.352226287033023,13.771154662995594,51.94057930966889,9.562995615345203,10.916662567348945
5.164616450153115,8.809115965674327,26.00656027996099,13.433679578713718,51.00271303411143,9.648739902563308,11.000853007842865
5.057672056011824,9.31555113104478,25.642246438806474,13.098594232262434,50.0646307844071,9.736129462509965,11.082663617264686
4.961332688753668,9.802171397247053,25.260118535033968,12.76655957894369,49.12797302983705,9.825059665230869,11.162009931208978
4.875674877285664,10.267556344372625,24.861067133568245,12.438208798216259,48.194346582363444,9.915403722782788,11.23880487472616
4.800744276681917,10.71046414894455,24.44603291071482,12.11414949468738,47.26531300295787,10.007022543980629,11.312954944693335
4.736556536551274,11.12984281217791,24.01600030668433,11.794973217362909,46.3423735391999,10.099767604828743,11.384358450914123
4.683099334681511,11.524835169941182,23.57199459902568,11.481266434954915,45.42696043349404,10.193478490129497,11.45290494382724
4.640335753301401,11.894776412128197,23.115089996498416,11.173614220152455,44.52043643685938,10.287981699694733,11.51847469083183
4.608206815020196,12.239186316496841,22.64643176518749,10.872595316827736,43.62409819540438,10.383093101127553,11.580937678875337
4.586630733952657,12.557759175694857,22.16725791528918,10.578773488884291,42.73917868375207,10.478620626683366,11.640152133349451
4.57549870813397,12.850351051809563,21.67890239313691,10.292689225291964,41.866844899307914,10.574365107563986,11.695963232910612
4.574669886667701,13.116963574531729,21.182780934809163,10.014853505538907,41.00819038965032,10.670121755229012,11.74820379137149
4.583967817949635,13.357727101039888,20.680371947286485,9.745743633364977,40.16422656364483,10.765684459850473,11.796697910166438
4.603178615825874,13.572885832548492,20.173197743197854,9.48579989551239,39.335876179807656,10.860851508408981,11.841265656194963
4.632050468422037,13.762784545075407,19.662805885326254,9.23542242708622,38.523968504025646,10.95542938460739,11.881725936303619
4.6702937555728345,13.927856229988802,19.150751541157398,8.994969268780352,37.72923461818355,11.049232769275006,11.917897184496328
4.717580489983153,14.068610739367468,18.638582393984272,8.764756402059344,36.95230313558555,11.142081710749347,11.94959788827714
4.773543131220607,14.185624369152617,18.127828154151608,8.545059422113058,36.19369937536981,11.233797487367998,11.976648474771757
4.837774586688184,14.27953004606192,17.619996265890947,8.336117217635115,35.45385489472434,11.324198026579467,11.998873334785506
4.90983072515195,14.351008248774757,17.116570402578887,8.138138190117212,34.73313146017819,11.413093870272814,12.016101577004148
4.989235084818941,14.400779305446452,16.619005402555597,7.951306553496748,34.03184951047155,11.500285759633407,12.02816809233057
5.075484390602775,14.42959730215243,16.12871705460722,7.775784805240626,33.350305574212534,11.585564418649438,12.034916481324835
5.168053730891727,14.438244957232993,15.647069194253017,7.611711817969129,32.68877832570934,11.6687120225382,12.036202367999614
5.266401404764903,14.427529192197992,15.175360183469056,7.459199161818552,32.04753255804815,11.749503682302606,12.03189561316827
5.369973585638282,14.39827865865086,14.714811711241223,7.318327554066268,31.426821506013006,11.82770731160556,12.021882125707469
5.478208242889373,14.351343537920195,14.26656255536456,7.189143633227348,30.826886681422344,11.903081926106521,12.006066252204281
5.590538552308876,14.287597829146623,13.831665455220833,7.0716574884354,30.247961755670048,11.975376206412317,11.984373583799904
5.706398155166116,14.207950071595771,13.411083370502347,6.96584223367225,29.690281413533096,12.044329087008476,11.956753089782259
5.825229611138266,14.113365155565743,13.00568454077633,6.871635967535652,29.154089471368412,12.109673231183523,11.923177290953733
5.94649233888891,14.004884678461583,12.61623806448853,6.788944728733174,28.639644042515673,12.17114190265955,11.883639862931485
6.069665531516843,13.883633850636224,12.24341112837193,6.717644752046098,28.147216363573,12.228478092916715,11.83815157341902
6.194246647161156,13.750817303375301,11.887767433939379,6.657583059023574,27.677079686430876,12.281442621158275,11.786737761092507
6.319748346728963,13.607708626376587,11.549765488013882,6.608576438308856,27.229493885281794,12.329818807571243,11.729441436350442
6.445695170911965,13.455635529693925,11.22975676085719,6.570409839546482,26.804692513596443,12.37341344205361,11.666331843847292
6.571620477918644,13.295964975490342,10.927985347682661,6.542834759767914,26.4028703346452,12.412054969518252,11.597512427093942
6.6970640661521355,13.130091027707941,10.644589904671832,6.525567015635816,26.024168366592587,12.44559199568335,11.52312311543724
6.821570547730478,12.959422075517825,10.379607231876996,6.518284098691164,25.668658828481732,12.473897347808434,11.443337894313814
6.944688650372475,12.785364184386696,10.132977908794276,6.520623910966751,25.33633466269199,12.496879825403909,11.358361912670697
7.065972118011875,12.609302750383229,9.904556169104394,6.532185920070907,25.027109411427553,12.514497785713388,11.268431608722116
7.184982591995711,12.432586043442445,9.694123820062044,6.552533643903446,24.7408295417474,12.526765675581341,11.173817525553101
7.3012943393545715,12.256511520297904,9.50140309028324,6.58119700947642,24.477291083323244,12.533750840848281,11.074825705591785
7.414500815540198,12.082314509448329,9.326064103647411,6.617674888324645,24.236249785834776,12.535564973478106,10.971794467151685
7.524221521560519,11.911159321149292,9.167728161537326,6.661438863067886,24.017420968958042,12.532355888971638,10.865087152732897
7.630105719658467,11.744133064545432,9.025969902791607,6.7119379780880974,23.82047100306802,12.524302927321106,10.755083304642525
7.731832150310705,11.582242362529309,8.900319512938289,6.768603574378139,23.64500500780786,12.51161589608618,10.642170173695375
7.829107506101353,11.426412261731397,8.790267290987925,6.83085400985385,23.49055730364589,12.494534447348743,10.526735983592792
7.921665257556223,11.277484969285597,8.6952780955277,6.898099506814644,23.3565927553267,12.473324937607488,10.409167305173487
8.009263825862798,11.136216491335983,8.614817824681703,6.9697467755412035,23.242520445797684,12.448275793727289,10.289852931052486
8.091683430697111,11.003271812763291,8.54837665943074,7.045202450472952,23.147708032796658,12.419695363465726,10.169193913349709
8.16872258043976,10.879219987237365,8.495479077639613,7.123875247543526,23.07148739289371,12.387913017252606,10.047615170106548
8.240195545197952,10.764529453684588,8.455701267160956,7.20517800722245,23.013155272861418,12.353278787523555,9.925571620553072
8.305931890895017,10.659563977651834,8.428713426610928,7.288530167614958,22.971972481608592,12.316158131014243,9.803545631315941
8.365779187578172,10.564581976251082,8.414321610827933,7.373359748124556,22.9471588514196,12.276923857653157,9.68203953174146
8.419608250369809,10.479744398875951,8.41247513442675,7.459104506138999,22.937884228034,12.23594925404367,9.561569068010357
8.467317630205331,10.405131705711664,8.423242048097308,7.545213223039295,22.943260117017527,12.193605674051867,9.44265973294568
8.50883495366728,10.34076208591732,8.44677442212241,7.63114708406821,22.962334951246486,12.150265699690053,9.325842495875133
8.544115913985653,10.286604463135268,8.483274760779048,7.716380443134609,22.99409493610555,12.106309013646932,9.211645434834958
8.573142692819808,10.242585841920608,8.532965494633013,7.800402434216435,23.037474406526318,12.062125346509982,9.100583643003109
8.595922057907876,10.208592862330294,8.596062034405072,7.882721957991824,23.091376695243067,12.018111165922841,8.9931537181498
8.612482531509741,10.184468777402646,8.67274947644042,7.9628750624864715,23.15469731952629,11.974661564642467,8.889836823840557
8.622870966950492,10.170010045744581,8.763162588577714,8.040430075315381,23.226338674501232,11.932160120857562,8.791106652035536
8.627149498892985,10.1649647550759,8.867368468139462,8.114988627941157,23.305215803959815,11.890968906803144,8.69743351036144
8.625393515880264,10.16903208449287,8.985352026466266,8.186186404642722,23.390260767961866,11.851420971820284,8.609282174375629
8.617690626130797,10.181863902524299,9.117006154135897,8.253697287863886,23.480427703552316,11.813815944609992,8.527110085136908
8.604139763475112,10.203072470675824,9.262128145599165,8.317238956394988,23.574694722251227,11.778417741803008,8.451369903855255
8.584850141188928,10.232243855799057,9.420420859852252,8.376574662223568,23.672061717944484,11.745456093418056,8.38251244256566
8.559941577946168,10.268949167345037,9.591495126123817,8.431508977851161,23.77154719504623,11.715134564729864,8.320985358626755
8.529547278484381,10.312747484814162,9.774871878437494,8.481880290559486,23.872187081889503,11.687640909949693,8.267227852173326
8.493817197401606,10.363182925704281,9.9699848187872,8.527553999213715,23.97303723747579,11.663151298843493,8.221663128689968
8.452919361029348,10.419781211843452,10.176183847277667,8.568418958493373,24.073180434251956,11.641826357232786,8.184688895959347
8.407038799257938,10.482047278270867,10.392739169573456,8.604388244037692,24.171736065553304,11.623804396469863,8.156666432881229
8.356375064829855,10.54946300454129,10.618847213740546,8.635402733663279,24.267868380844263,11.609196683280185,8.13790992624514
8.301139165308735,10.621484996132168,10.853638568088876,8.661433243204419,24.3607902463302,11.598085294792194,8.128677739080354
8.241550865150183,10.697542901464463,11.09618577015541,8.682478303534017,24.44976249236507,11.590522336142552,8.129165997851295
8.177836999539705,10.777038654597836,11.34550930889446,8.698559476992088,24.534091818962185,11.58652909451601,8.139503293668431
8.110230359322085,10.859347083050986,11.600582426963161,8.70971770560225,24.613130793649635,11.586094781361536,8.15974550307834
8.03896877788248,10.943818621653085,11.860336033294693,8.716011224685404,24.686279538216738,11.589178648856167,8.189871277160654
7.964295739679342,11.029787404035808,12.123664384327112,8.717513826485675,24.75298671109522,11.595718643123536,8.22977918442984
7.886463423216521,11.116588920021682,12.389430970710068,8.714313288933482,24.812750007821435,11.605641604312046,8.279287153251135
7.805735762497133,11.203583155801535,12.656473465290997,8.706509952108265,24.865115961538034,11.618868737604076,8.338134974011366
7.722389009722527,11.290171503984446,12.923607624320995,8.694214749804,24.90967644080875,11.635317268537914,8.40599083279729
7.636710360370311,11.375803256446185,13.189631829589443,8.677546683908313,24.94606140710901,11.654900584101924,8.482462457210787
7.548995405109729,11.459977375058699,13.453334039700854,8.656630150046976,24.9739306267698,11.67752605844468,8.56711203698341
7.45954451451346,11.542242645193369,13.713500107386379,8.631591911824243,24.99296710486357,11.70309117221473,8.65947117601074
7.36865988994162,11.622194712913629,13.968922037395162,8.602557973846665,25.002873527388964,11.731482112239496,8.759050369648481
7.276645227227506,11.6994699233847,14.218412998900195,8.569651104289944,25.00337081565777,11.76257998434172,8.86534171685193
7.183806962981148,11.773738121943316,14.460841009078301,8.532988798688695,24.994196806510725,11.796274216975679,8.977819348233183
7.090454202462051,11.844696613245135,14.69517534137888,8.492681103406479,24.975104518869234,11.83247332753401,9.095940727330724
6.9968967447152455,11.912065701481538,14.920518460770449,8.448828506149408,24.9458610640504,11.871104660654167,9.219147460698572
6.903442794558789,11.975584779125244,15.136109904861552,8.40152047022232,24.906248187160323,11.91210633044886,9.346864106691525
6.810396854560385,12.035008386202131,15.341317375811567,8.35083520883139,24.856065079238846,11.955418890366165,9.47849595489112
6.718058063075034,12.090103261625467,15.535630442156322,8.296841028886302,24.795134207857984,12.000980312849636,9.613427945107055
6.626719865874244,12.14064855847278,15.71865434901608,8.23959840090082,24.72331030813338,12.048724441012958,9.751026342441392
6.536670368459493,12.186439584170715,15.890097700489035,8.179161510270381,24.640490821957222,12.098581630459575,9.890643083677649
6.448191740904227,12.227292043552655,16.04975567748851,8.115579770779178,24.546624724537256,12.150480765738749,10.031621455765922
6.361557905864712,12.263045386881073,16.197493627681848,8.04890050382907,24.441718475599117,12.204351552950703,10.17330279602252
6.27703126913354,12.293570223594083,16.33323362962813,7.979171846679612,24.325839325770914,12.260123748635715,10.315035830000804
6.194862110968474,12.318784307651741,16.456944083242174,7.906444035203512,24.199114448383238,12.317722956767732,10.456189095536416
6.115294896688652,12.338673558569011,16.568631106038765,7.830769335102479,24.061726887584545,12.377069662490204,10.596162418069222
6.038579029670458,12.353312814285417,16.668330985204125,7.752201952195487,23.91391433352927,12.438084721489764,10.73439184760723
5.964974760051666,12.36288142414074,16.756103332238713,7.670798466550645,23.755971652204114,12.500694335259258,10.870347397382602
5.894749593764368,12.367665430923998,16.832023969184245,7.586619901498143,23.588249597889476,12.56483004660067,11.00352845555846
5.828169969369549,12.368046205465905,16.896177442901728,7.499736301892382,23.411145492151572,12.630427509437453,11.133461297385054
5.765494759090355,12.364487043932444,16.94865112761881,7.410232183359238,23.225091649979895,12.697426172327228,11.259698349840171
5.706972670360562,12.357523378590761,16.989532492918666,7.318211763751096,23.03055065247146,12.76576943975928,11.381816321847706
5.6528408440102815,12.347752223013822,17.01890860445666,7.223804709435954,22.82801962791349,12.835405487898853,11.499412896358534
5.6033213403423,12.335817842397379,17.036867056379258,7.127170676538005,22.61803579740778,12.906286294696484,11.612105148966336
5.5586163745565,12.32239574129661,17.043500767342152,7.028499905672061,22.40117679946915,12.978362791307502,11.71953143335332
5.518905739814976,12.308177534637219,17.038917872098367,6.928010950465969,22.178059795968863,13.051578968709338,11.82135389277446
5.484347157654295,12.293855818156656,17.023251249084094,6.82594836905412,21.94934359337608,13.125867819173179,11.91725831730868
5.455076723451845,12.280107115544924,16.99666173509724,6.7225806590354535,21.715728513460515,13.201148727586745,12.006951424358714
5.431207269803766,12.26757463555162,16.959336507504243,6.618197037423509,21.477947725159048,13.277326787809509,12.090157163359986
5.412826159767064,12.256855525135055,16.91148704264866,6.513103571831784,21.236751564801807,13.35429737568568,12.166613913705953
5.399996599508657,12.248495700168451,16.85334754993926,6.4076207150572895,20.99289056478452,13.431956432053397,12.236074493522102
5.392765066436553,12.242989766550675,16.785172983534125,6.302081864049104,20.747101764715083,13.510209808769176,12.298309004027518
5.391171168744249,12.240779581356435,16.707236584215718,6.196830315566743,20.50010172260149,13.588976260031258,12.353108444549566
5.39525240940577,12.242248790179662,16.61982719367549,6.0922139947797085,20.252586465539785,13.66818599476583,12.400287529795744
5.405041453742279,12.24771639093157,16.523246815725575,5.988579929597588,20.005233307321227,13.747778058890818,12.439687740620995
5.420559629177345,12.257431434535004,16.417809215055748,5.886270091062625,19.758702658823577,13.827699103225514,12.47118184702748
5.441809775745495,12.27156800156086,16.303839503990446,5.785618819176668,19.51364452540926,13.907904515839743,12.494677497843576
5.46876938871578,12.290220568114478,16.181674117267484,5.686951446062232,19.270707880752777,13.988357395137132,12.510116842953048
5.50138482505538,12.313401614354728,16.051661083461003,5.590583644416009,19.030543662603435,14.069022253735925,12.517473031079964
5.539566786144249,12.3410424123241,15.914160511982915,5.496821374483446,18.79379909313277,14.149858731936746,12.516746630851387
5.583186963036693,12.37299621391462,15.769544818211697,5.405961180154536,18.56110919102365,14.230820176649695,12.50796487221909
5.632076277379278,12.409043024343033,15.618198165444387,5.318289676853321,18.333091676526532,14.31185351861871,12.491185344082611
5.686025046421237,12.448896213052587,15.460516200901406,5.234081708270898,18.11034716141914,14.392895078209358,12.466502419321614
5.744784495060591,12.492212348021194,15.29690993617021,5.1535985310102355,17.893459440675684,14.473863275129634,12.434051690248312
5.808068307910475,12.538604911712092,15.127814803422172,5.0770867320331945,17.682989759902032,14.554653163093464,12.394009135946032
5.875553830984164,12.587658968918397,14.953698315591582,5.004776277164139,17.47946599527862,14.635135967103768,12.346586230008949
5.946883964636666,12.638942875062575,14.775059764901634,4.936876943469304,17.283370999064545,14.715164503337222,12.29202435275749
6.021669908238227,12.692016175457969,14.592422970330428,4.873575943126773,17.095131986935666,14.794581704630676,12.230590458326866
6.099493652759622,12.74643401056042,14.406327632487288,4.815039823648711,16.91511100470716,14.873224777697184,12.162574350915904
6.179910271310643,12.801748749183572,14.21732562460254,4.761419293496701,16.743596904849927,14.950921675041352,12.08828756127398
6.262451269103039,12.857511788322123,14.025987026761173,4.7128529708967095,16.580801469322797,15.02748652126719,12.008063651848996
6.346629188660903,12.913278183498514,13.832912468667859,4.669468159156424,16.42686311584419,15.102721466468118,11.92225964775882
6.431942250079947,12.96861338508755,13.638740051645149,4.631379184181586,16.281858688446448,15.176424450505294,11.831257375788883
6.51787829654599,13.023099142934472,13.44414115647915,4.59868445448716,16.145820065235085,15.248396928221535,11.735462092467388
6.603918541314107,13.076336460895586,13.249810709991651,4.571463352896316,16.018749294801818,15.318447910548064,11.635297260809535
6.689541385824421,13.127946628998673,13.05645656742405,4.549773466343425,15.900626058214383,15.386395739851267,11.531197867632942
6.774225982664502,13.1775744528482,12.864787371600746,4.533647752936318,15.791407804565823,15.452069878303625,11.423605754919718
6.8574558194838895,13.224895373632263,12.675499355406536,4.523091459927495,15.691028796886432,15.515313212806362,11.31296800828157
6.938722815655729,13.26962128497394,12.489264261550591,4.5180813563739,15.599400878785438,15.575984868918393,11.199736086822186
7.017531642481769,13.311500012339632,12.30671920010179,4.518572039294735,15.516412675472113,15.633963514638316,11.08436311513519
7.093403615907419,13.350311092416387,12.128458684612918,4.52450913753203,15.441924713301093,15.689151937030033,10.967299569332933
7.165879498223629,13.385864405719751,11.955029284876854,4.535841145883995,15.37576213973727,15.741483366046841,10.84898947465275
7.234521360141019,13.4180049284443,11.786926402027712,4.552522613527249,15.31770863484976,15.790925967926052,10.729868296103252
7.2989159417565315,13.446619654993432,11.624592594342113,4.574509939737298,15.267505108566775,15.837481938811075,10.610361157268118
7.358681335173873,13.471639089747866,11.468418181010987,4.601755403918985,15.224855492053228,15.881183120043847,10.490879728378442
7.413473806067386,13.493030718935637,11.318744136002064,4.634202571780239,15.189440020281554,15.922086393591815,10.371818487862964
7.462990656921471,13.510788320247148,11.17586466773194,4.671782509389093,15.160932120452976,15.960270441818853,10.253551489306272
7.506970321534202,13.524921697590669,11.040026822780906,4.714409925686662,15.139009562200926,15.995833247547358,10.13642933453216
7.545193010561472,13.535448692736626,10.911427298579776,4.761979750296585,15.123354366474278,16.02888656572426,10.020775838354837
7.577482168634671,13.542389192926176,10.79020897282338,4.814364557148299,15.113646118432461,16.059546652567732,9.906884652121805
7.603705313558939,13.545760469717106,10.676459883845475,4.871413157573868,15.109555038259098,16.08792710802761,9.7950172876306
7.623773776228041,13.545573558570968,10.570215904800763,4.932950879223637,15.110736488850097,16.11413749694389,9.685404778413389
7.637641372818181,13.54183056297219,10.471466028147837,4.998781110472995,15.116826512193962,16.138284005482273,9.578253113111385
7.645302189352397,13.534522910272404,10.380156889177073,5.068686931827117,15.127438319619351,16.160468770074882,9.473748552708933
7.646788183718366,13.523630972647217,10.296193652988254,5.142431735042089,15.142159798219948,16.180789625745792,9.372058708411968
7.642166778788944,13.509125366678795,10.219438368587225,5.219758493023223,15.160551934859372,16.199340609375604,9.2733294752753
7.631537642272179,13.490969343970992,10.149713236343509,5.300388514618786,15.182148876022845,16.216209417617325,9.177681361847098
7.6150284197917495,13.469122853870733,10.08682465312874,5.384020918200919,15.206461264144135,16.231469994753365,9.085209068031794
7.592790335751371,13.44355169501258,10.030616111341267,5.470333955011117,15.232982909478851,16.2451740013125,8.995985096529097
7.564994820417384,13.414241869582037,9.98102510225202,5.558988800655659,15.261198072321752,16.257347773492047,8.910063631841659
7.531831821981041,13.381212490644346,9.938107907666625,5.6496350534103605,15.290586842798493,16.267998042102032,8.82748079342446
7.493509499534826,13.344522097393277,9.90202988350812,5.7419166051278685,15.320628085551467,16.2771220120263,8.748252482804487
7.450254346530879,13.304269027102682,9.873044000121736,5.83547745990518,15.350799961972108,16.28471406281071,8.672374250207621
7.402310960238588,13.260587967237049,9.851470493215244,5.929967148533907,15.380579166750396,16.290766462939413,8.599824455663345
7.349940822738065,13.213643815139081,9.837677287051397,6.025043964161136,15.40944186097236,16.29526830318077,8.53056723652472
7.293419729381949,13.163622872164193,9.832059430822433,6.120374471560097,15.436868974550004,16.298207332101097,8.464552706705124
7.233034541506511,13.110721857314957,9.835017776377894,6.215630937161221,15.46235594403455,16.299573994532317,8.401716397268713
7.169080507453122,13.055137217418217,9.846938203357368,6.310490771116546,15.485423870861744,16.299363268593325,8.341980675921006
7.101859888458331,12.997057708911093,9.86817233597546,6.404640336693857,15.50562919485053,16.29757412827039,8.285257771075491
7.031682197094312,12.936661545443842,9.89902038257173,6.497780770048724,15.522571692496442,16.294213977056174,8.231452033127507
6.958866133905291,12.874117193507285,9.939717001823395,6.589631001814201,15.53590093506687,16.289310702995543,8.180460189573672
6.883742581821179,12.809585511827654,9.990420355674237,6.679926404212765,15.545321200048324,16.28292204999141,8.132171051872934
6.806657029751409,12.74322065108222,10.05120362546405,6.768415647038221,15.55059512166113,16.275135557252856,8.086466821689935
6.72797023844528,12.675168574827637,10.122048640197747,6.8548585827549875,15.55154470595748,16.26606469196525,8.043226094914257
6.648057834198765,12.605564482459078,10.202843468779387,6.93902771609155,15.548049851070301,16.255844483906287,8.002326985880526
6.567309679382378,12.534532503107705,10.29338894100605,7.0207152762850935,15.540047238353118,16.244625179471353,7.9636489436159605
6.486128092341287,12.462192669628955,10.393414735417934,7.099742691962679,15.527528676918298,16.232567484227047,7.927073469765477
6.404923911181559,12.388675737039039,10.50259521671777,7.175965200894299,15.51053504964927,16.219844988913813,7.892485417009457
6.324111383066275,12.314136402599354,10.620558760770276,7.2492688584840925,15.48914659120473,16.20665239136065,7.859776225816319
6.244104195181575,12.238755611303304,10.746898559155152,7.319563942123745,15.463473823670085,16.193214883421348,7.828850033191353
6.165314926752588,12.162733876610568,10.881189357476702,7.386779167381089,15.433650781740091,16.179802198840786,7.799631731876814
6.088157555047141,12.086282773682585,11.022999291638385,7.450857739136316,15.3998291173989,16.166749666099953,7.7720721228157865
6.013048461994722,12.009617780699292,11.171888733114328,7.511754960473728,15.362172464675087,16.154471649966016,7.746146378605404
5.9404026575244275,11.93295193013985,11.32740209536381,7.569437823779567,15.320851777993585,16.143452867456343,7.721847725491108
5.870627367256319,11.856490094012806,11.4890603027325,7.623886623781107,15.276041672166485,16.134222787786975,7.699180158699755
5.80411587459965,11.780424566546042,11.656355196679796,7.675096555953678,15.227917095917327,16.127327173351134,7.678151705190943
5.741242218787201,11.704931655626096,11.828745133221597,7.7230765536553605,15.17665033264852,16.123306690726668,7.658767978145235
5.682357095349135,11.630169710184298,12.005652230778505,7.767845203491574,15.122408591404817,16.122686935406264,7.641026357979889
5.627784684006947,11.556280668279063,12.186461618437978,7.809426101017766,15.065351447383074,16.125979023994603,7.624911880646793
5.577819355257813,11.483395138066076,12.370521989696861,7.847844860012255,15.005627262787778,16.133684864136246,7.610394742034928
5.532723436852743,11.411638245614904,12.55714727853717,7.883128065927749,14.943368848986388,16.146297468951637,7.597428506311411
5.492728477147835,11.341134242839093,12.74562037095608,7.915302481904556,14.878689414101931,16.16429138684295,7.585948940595931
5.458038952932541,11.272008796606547,12.935198610653645,7.944393258645277,14.811680189531996,16.18810780544771,7.575873403456815
5.428834944250775,11.204387441248787,13.125119241073582,7.970422179326765,14.74241057493805,16.218139923318848,7.567100178280928
5.405272985250951,11.138390651129251,13.314603670436501,7.993407459097157,14.670930359212013,16.254721813702258,7.559509151950554
5.3874867792769425,11.074128679442909,13.502861157830607,8.013364957962855,14.59727280506862,16.2981241750342,7.552967393282543
5.3755892936173995,11.011698199547887,13.689093633910964,8.030309446984079,14.521457589581868,16.34855569607194,7.547339189238221
5.369676902587137,10.95118116407199,13.87250248812772,8.044255221615947,14.443494266934145,16.40616483701664,7.542493996486215
5.36983364745842,10.892647535613772,14.052294981460243,8.055216850437546,14.363387325427015,16.47104292022125,7.538308351845913
5.376132000775541,10.836162489091668,14.227687562435234,8.063210834463343,14.281141513844606,16.543231400157786,7.534664845550705
5.388629550916654,10.781794020439987,14.39790703042593,8.068257031800297,14.196765533175508,16.622726911280175,7.531451691607961
5.407364321153174,10.729616139676729,14.562192249065733,8.070377968323987,14.110274324647808,16.709476877005578,7.528562791377958
5.432350698173713,10.679706767078388,14.719803069383133,8.06959656979777,14.021691789063242,16.80336957781164,7.525896843133386
5.463575816886958,10.632142418104742,14.87005109358231,8.06593494875158,13.931054746776242,16.90422819868918,7.523355282173636
5.500996544203919,10.586993608392287,15.012352282638393,8.059415159141022,13.838415658554064,17.011813584619812,7.520840929159531
5.544538254819931,10.544325938329377,15.146268742176686,8.050060055975992,13.743841290543157,17.125831826097457,7.518259814835137
5.594095395528822,10.504207416804988,15.271513175128215,8.0378930076417,13.64740861783321,17.24593922168683,7.515526917447308
5.6495327210093755,10.466714916046804,15.38792886617107,8.022937760780483,13.549202460312253,17.37174155785277,7.512573764685758
5.710686277460874,10.431933018193265,15.495469959599257,8.00521965107811,13.449317541103579,17.502790593642374,7.509354291199912
5.777363249976431,10.399946389079028,15.594189391193021,7.984767348543963,13.347862478560305,17.638583411772473,7.505846842905192
5.849340786436519,10.370830656181175,15.684228576872114,7.961614463363174,13.244961610609707,17.77856771883696,7.502052839147695
5.926365264662208,10.344645077556423,15.76580320992421,7.935801545527666,13.140754318649497,17.922149273722454,7.4979935181128905
6.008153329367745,10.321427494951752,15.839185512994206,7.907378362269105,13.035394331342758,18.068695169274545,7.493705695409911
6.0943952083413695,10.301190179437805,15.90468642147072,7.876406215269382,12.929049949947865,18.217532115961575,7.4892370459223
6.18475946195601,10.283915829645366,15.962640419172736,7.842962129487107,12.821903239170137,18.36794332308196,7.484642015247485
6.278897363044549,10.269554745899777,16.013393454958106,7.80714569227203,12.714146335700116,18.51916653690166,7.47998033896805
6.376446386103528,10.258024269263558,16.057292758367304,7.769084249393782,12.60597572305652,18.670394360746307,7.4753183847764095
6.477033611780488,10.24921038790351,16.09467824329492,7.728932165267567,12.497586426116852,18.82077773604517,7.470729921281038
6.580279161441703,10.242970714904065,16.12587590352696,7.6868661649183405,12.389166915170215,18.96943283696335,7.466293145431453
6.685799210387844,10.239137890614849,16.151192960038035,7.643081185684422,12.280894545016388,19.115452329432593,7.462084566995904
6.793209163421843,10.237522491261613,16.170914673757263,7.597787504326106,12.172931653197026,19.257921680462093,7.458172332230666
6.9021277335656865,10.237915513324603,16.185302186209242,7.551207578278224,12.06542268225741,19.395936367332915,7.454611382382
7.012180612984066,10.240092255633613,16.194589634440632,7.503572417753204,11.958492203154178,19.52861331671771,7.451441562580015
7.123002128357846,10.243818921698836,16.19898020938987,7.455118298464054,11.852243996873698,19.655094741265632,7.4486877814001105
7.234235633373324,10.24886107064904,16.198643348485774,7.406083660833317,11.746761440444361,19.774547342064327,7.446361044245623
7.345533545503675,10.254993704064873,16.193716728702345,7.356705799072859,11.642108157001807,19.886160195645665,7.444460466525006
7.4565564203182575,10.262012638551717,16.18431447503288,7.307217971210845,11.538328076312574,19.98914338278597,7.442976333594332
7.566971804619168,10.269743322842439,16.170536528111562,7.257847575949503,11.435446791978748,20.082728890315465,7.441893428101373
7.676455102547733,10.278044000280188,16.152472848840645,7.208815094180261,11.333478301485515,20.166177022840923,7.44119384511066
7.7846918041976885,10.286804304015886,16.130204292349102,7.160332994716856,11.232437516703119,20.238791128598702,7.440858529762704
7.89137808264043,10.295941337862615,16.103809419979378,7.112603817826781,11.132351163843204,20.299935857156775,7.440866934522574
7.996219510232631,10.305394154818662,16.073381449137845,7.065817624170431,11.033260119152152,20.34904873473646,7.441196503869254
8.098929891591338,10.315116870469646,16.039045843286964,7.020149924314604,10.935214966027178,20.38564210576932,7.441826631753637
8.19923130082565,10.325071448702959,16.000966969883038,6.975759910242487,10.838271229921213,20.409303622403257,7.442749578739362
8.296855782495967,10.335222373339016,15.959344586810033,6.932787757604233,10.742487946262631,20.419702522158072,7.443983066542894
8.39154811162885,10.345534442370946,15.914409354955156,6.891351638607569,10.64792761306947,20.416598825089054,7.445575592734235
8.483067472771902,10.355973827865025,15.866422873168952,6.851546601150447,10.554654018594526,20.399849524009156,7.4476017471247475
8.571187547130123,10.366512593177486,15.815678246308165,6.813445958858448,10.462728368985998,20.36940968186982,7.45015199275815
8.655697461109611,10.377134455261322,15.762494941946652,6.777103777252424,10.37220639860622,20.325327362318845,7.453321611520361
8.736404633630944,10.387837656739217,15.707208767539075,6.742556738433456,10.283137148993035,20.267732848379325,7.457201052827044
8.813136947139512,10.398634869843278,15.650161128747898,6.709824804631192,10.195562052973866,20.196826556994182,7.461869226869578
8.885742556154868,10.409552963849157,15.59169125924798,6.6789128006577885,10.10951307183102,20.112869280052855,7.467390819562215
8.954088435712112,10.420631971349183,15.532138718539077,6.649817334019429,10.025009966134768,20.01617402642547,7.473817220866777
9.018058186954313,10.431921237447213,15.471858809757064,6.622539306170868,9.94205813863907,19.90709790333237,7.4811897200150215
9.07754872526784,10.443473733161964,15.411236995181856,6.597094121587364,9.86064943361722,19.786034934245368,7.48954314800221
9.132466516097269,10.45534004988211,15.350687024770556,6.573512777418878,9.78076670171934,19.653413105859073,7.498907523298146
9.182724454608074,10.467562242558433,15.290635487804431,6.551837095500063,9.702388522308572,19.50969757893285,7.509306823642165
9.22824000463347,10.480168480482858,15.231504328714317,6.5321163351805325,9.625489777907388,19.35539489316186,7.520757469854397
9.268934672248864,10.4931704980313,15.173696605536847,6.514407282559204,9.550038972962044,19.191050133296553,7.533270127615579
9.304734175099062,10.506563664662158,15.117585154653167,6.49877472600896,9.475996199891322,19.017237261721185,7.546854730394929
9.33556823192816,10.520327179278862,15.063503577846356,6.485288570603521,9.403312762830138,18.834549819775887,7.561524249913603
9.361369507686126,10.534424381409018,15.011739315381341,6.474017168828503,9.331930818401887,18.643595576521808,7.57729385273175
9.382072840150581,10.548805201272563,14.962531290729862,6.465019846777312,9.26178331929927,18.444992429863195,7.594176573838949
9.397616203861258,10.56340897454232,14.916082602759426,6.4583410801581715,9.192796383540541,18.239362800516297,7.612178528066864
9.407942942638963,10.578163999533427,14.87259490384375,6.454006405454363,9.124893745384556,18.0273280892871,7.631295597003368
9.413003779873506,10.592984189162724,14.832306713215912,6.452019297882822,9.058000393331822,17.809508272993973,7.651511526000769
9.412758338899316,10.607766004269347,14.79550820855044,6.45235851150466,8.992043449931991,17.586530010592966,7.672796407740939
9.407176773824252,10.62238826771132,14.762528497474756,6.454976277437803,8.926950785014705,17.359038809193045,7.695105795162266
9.396241319757445,10.636715846550572,14.733711834520314,6.459798482947055,8.862649294800603,17.127707063972025,7.718382797448147
9.379947064406421,10.650607663775814,14.70939630985713,6.466726765389476,8.799064296507446,16.89323514558043,7.742564617828223
9.358302737449682,10.663928652325994,14.689899801027206,6.475641213262025,8.736120254593638,16.656346464251943,7.767589764029802
9.331333248355428,10.676561190423048,14.67551292214412,6.486403270918847,8.673742448837002,16.417776975906094,7.793400264205289
9.29908359024311,10.68841156197567,14.666494846742673,6.498859188397985,8.611859247258845,16.17826219255309,7.819938817869514
9.261622008360723,10.699414518957758,14.663066969179622,6.512843876006138,8.550406048626058,15.938528856291105,7.847144979295353
9.219041674434775,10.709541867752813,14.665403185815867,6.528185038097793,8.489333217007866,15.699295148721298,7.874952791509713
9.17146135441996,10.718813196223053,14.673620747585854,6.544707474334744,8.428617250266637,15.461273102105734,7.903289790763091
9.119025348374926,10.727299437915738,14.68777585807388,6.562236773005309,8.368270025599442,15.22516502387789,7.932076345418096
9.061903618551602,10.735114511944937,14.707863149458737,6.58060149997961,8.308342343049313,14.991655485154633,7.961224478935627
9.000293660347513,10.742400037999353,14.733815825452481,6.599633582639678,8.248922164168466,14.761404558744362,7.990636712220411
8.934423454956224,10.749309918594387,14.765506142393418,6.619167758373326,8.19012945495653,14.535043142113285,8.02020725818462
8.864552233113322,10.755998184625154,14.80274703895693,6.6390418974391165,8.132109662699866,14.313170067947228,8.049826751922522
8.790967636368093,10.76261228845604,14.845293255315934,6.659098713442575,8.075027513705072,14.096352896725394,8.079387488365192
8.713981166693296,10.76929245321095,14.892840328028436,6.679187629092948,8.019061696679845,13.885131163754348,8.108785598792844
8.633923502115184,10.776173676844383,14.94502275770016,6.699166057264129,7.964399528458184,13.680017648354418,8.137920149174272
8.551140295637998,10.783385941285092,15.00141351051736,6.718900314462212,7.911230194138583,13.481498414265413,8.166690421170843
8.465989632817966,10.791052276132445,15.061525919895013,6.738266349203274,7.8597370699855755,13.290035368077543,8.194991899376884
8.378841673005223,10.799287950756737,15.124817597726468,6.757150436434425,7.810092275903639,13.106067578589123,8.22271182624894
8.290079644651781,10.80820195825631,15.190695051383177,6.7754502314553795,7.762457073953413,12.930005065027684,8.249725852954711
8.200100679185232,10.817897096345453,15.25851914531617,6.7930760902813905,7.716987439216499,12.762216966242969,8.275897423683862
8.109314165203221,10.828465520384457,15.327615020277578,6.809951220401262,7.673838198806895,12.603020233695833,8.301081722766916
8.018138213198096,10.839981636847044,15.397292847107472,6.82600924001033,7.633161183323539,12.452671700661135,8.325134914007393
7.927001922424196,10.852495948614932,15.466879934107604,6.8411900647431185,7.595099738539153,12.311363234079373,8.347925101226519
7.836357993548763,10.866031706980962,15.535750836252571,6.855436530506993,7.5597825327903125,12.179219411178545,8.369338668910945
7.746695252340261,10.88058516135626,15.60334173022781,6.8686928961915195,7.527317180999915,12.056297360726337,8.389279611226995
7.658538360056285,10.896131611812617,15.66915191742638,6.8809062624920125,7.4977847984169514,11.942587356291625,8.407664896830402
7.572436196685839,10.912639629414144,15.732741786080028,6.89203413382844,7.471237330049166,11.838012997522325,8.424419650648627
7.4889477897310135,10.930088985120909,15.793728279476476,6.902057794271048,7.447698710035195,11.742431799232127,8.439474299135869
7.408629975246424,10.948481388174507,15.851776878062237,6.910992852257496,7.427168882404692,11.6556369875567,8.452764450651262
7.332025994294771,10.967838776357333,15.90659368678236,6.918889802332763,7.40962753695611,11.57736032250081,8.46423246703907
7.259653964674363,10.988193891131292,15.957921646256597,6.925827066762423,7.395035265487763,11.50727753992231,8.473828353286653
7.191996679428755,11.009579856236675,16.005543804365004,6.9319020527426245,7.383332612852746,11.445018067990473,8.481508445896411
7.129494852472936,11.032021971113984,16.0492922572659,6.937222892727535,7.374438397470162,11.39017581661753,8.48723232530556
7.072543052163031,11.055531873050233,16.089053796121338,6.941901822911854,7.368248168467888,11.342316909174595,8.490959282293735
7.021485901621199,11.080103616573583,16.124766078979693,6.9460504153480525,7.364633236779905,11.300985094162511,8.492645977024738
6.976614195519431,11.105712490152895,16.15640798429404,6.949776540591096,7.3634402229326605,11.26570642339792,8.492247420993962
6.938162008825118,11.132318003924125,16.183989138831553,6.9531837445457265,7.364490931839854,11.235992064563453,8.489722823594128
6.906304715373196,11.159871192790115,16.207539606753432,6.956373554437008,7.3675833426203745,11.2113398446746,8.485044759779308
6.881158243433918,11.188323289369135,16.227100011526176,6.9594489130901565,7.372495148338365,11.191240311431905,8.478206268318937
6.862782928806978,11.217630892770599,16.24271339779289,6.962515758978151,7.378989478760524,11.175192352544206,8.469221646023241
6.851194351642592,11.247755743532622,16.254419877310593,6.965681432588233,7.386820160951807,11.162723227678436,8.458122466883712
6.84637633603624,11.278662126518372,16.262253648635667,6.9690506509211065,7.395734633029181,11.153401809251168,8.44495246456679
6.848288472221492,11.31031617262422,16.266240933685413,6.972720651379244,7.405475178254091,11.14684127458098,8.42976291963196
6.856867296926673,11.342688751243898,16.26639776378004,6.976777103075813,7.415780406675525,11.142695407077905,8.412609480487397
6.872025277780271,11.375759746953763,16.26272729118461,6.981291674677241,7.4263892277732975,11.140652288191271,8.393550882843137
6.893649132159079,11.409519047692967,16.2552171859788,6.986321416238328,7.437047877318283,11.140427977751871,8.372648560442018
6.921597255804386,11.44396279026734,16.24384096042615,6.99191032259989,7.4475164700428085,11.141763391328197,8.349966173985244
6.955698263588089,11.479089315082925,16.228568990571542,6.998093743512999,7.457571523156731,11.144425313509663,8.325568807422703
6.995754153925926,11.514898066510185,16.209386853150512,7.004904773724867,7.4670055441690195,11.148208311622277,8.299521363089454
7.041550064149835,11.551389155610376,16.186308459808252,7.0123794367836805,7.475626658353694,11.15293394294561,8.271885924999673
7.092866950030881,11.588561981254347,16.159376829681065,7.02055807850319,7.48325948486937,11.158446932448234,8.242718465130913
7.14948885258452,11.62641405544099,16.12865784240985,7.029483364392875,7.489746599893516,11.164609875121936,8.212065620393515
7.211200881343735,11.6649385295227,16.094233358405667,7.039196755097213,7.494949492620162,11.17129722173366,8.179963354777959
7.277782098787744,11.704117867910128,16.056197989003724,7.04973488526594,7.49874880536847,11.178388374552767,8.14644017303495
7.348998851392237,11.743915587760544,16.01466890246269,7.061126608995231,7.5010443760780685,11.185761128652759,8.111525622461752
7.424600636525761,11.784269840647674,15.969810798230748,7.0733913261224295,7.501755373532551,11.193288633629535,8.075260653725591
7.504317869011596,11.825089997757342,15.921856507869816,7.086538934366523,7.500819812288719,11.200840240997465,8.037704696125589
7.587860456107301,11.866255648549387,15.871105164595924,7.100570712508677,7.498192335186159,11.208281727641682,7.998937465387631
7.674917496574188,11.90761789622822,15.817904723452502,7.115480144186952,7.493840336486029,11.215471903566211,7.959057497844827
7.765159560564777,11.949004166453092,15.762634275428153,7.131253551292051,7.487739601804794,11.222257969097921,7.918180180642213
7.858244014101565,11.990227183314177,15.705690794372364,7.147870297793381,7.4798709792215154,11.228473068656776,7.876436330456408
7.953820999660915,12.031095178135955,15.647477810185476,7.165302241386794,7.470219031462549,11.233937058283175,7.83397081709558
8.05153621126482,12.071419279200306,15.588395699563591,7.18351340230805,7.458771785765668,11.238460446587574,7.790941091678318
8.151029533862852,12.111016848865223,15.528836165783163,7.202460501761199,7.445520434848064,11.241853038808474,7.7475160489276
8.251932924950648,12.149710778419074,15.46918266550166,7.222093127038478,7.430459813793233,11.243937760725462,7.70387421533621
8.35387152953009,12.187325635048717,15.409814590219014,7.242352516073771,7.413591123116969,11.244564257640528,7.660200183515787
8.456468654557112,12.223683888144903,15.351109957299972,7.26316979031324,7.394926971002443,11.243615409953827,7.616681830378676
8.559352061377373,12.258604039373832,15.29344803827161,7.28446473074765,7.374497257385575,11.241006160518186,7.573512273075892
8.662159065494428,12.291898865215499,15.237218906384603,7.306144899940118,7.352353453760552,11.236679848118614,7.530896452595363
8.76453881677557,12.323372987331918,15.182835313768027,7.328104538518677,7.328569576616426,11.23060660432824,7.489058509252099
8.866151292874985,12.352821987928857,15.130733893608497,7.350223587780826,7.3032420419932365,11.222783841677591,7.448246119787995
8.966665527099511,12.380034988180933,15.081363386416589,7.372367666228424,7.2764922354227535,11.213238139625721,7.40872939621008
9.065759955729943,12.404800294995667,15.035167327536934,7.394389117684073,7.24846986535925,11.202028204331569,7.370794381315325
9.163124087360181,12.426911566980893,14.992566707551735,7.416128530452199,7.21935157974923,11.189244959635893,7.334733845005191
9.25846054684539,12.446172132490705,14.953945093695504,7.437417039896893,7.189334622568288,11.175006008558357,7.300838323279926
9.351490771309976,12.46239826320331,14.919638351389239,7.458080465082034,7.158629639437854,11.159448544849226,7.2693889940074214
9.44196547070118,12.475423832949978,14.889929017455938,7.477944339956656,7.127455060711102,11.142725431817984,7.240652717824589
9.529672812227892,12.485106012766641,14.865042313988011,7.496837291433375,7.0960328554644985,11.125003371876067,7.214878125561119
9.614437937542087,12.491328578641635,14.845141864373469,7.514591929667265,7.064584249467274,11.106459815809192,7.192292096131496
9.696116061626956,12.494000888874147,14.830327737795024,7.531044778786498,7.033324805759355,11.087279286422635,7.173098658524355
9.774584494661125,12.493055084029892,14.820640416596468,7.546036783191146,7.002460559596345,11.067651981967003,7.157481935429495
9.849735807573587,12.488447010366635,14.816068367679534,7.559413871680588,6.972187521014106,11.047773709354793,7.145611259923413
9.921471639130244,12.480163391155793,14.816552111693023,7.571026343191033,6.9426947484116965,11.027844858915186,7.1376452718734065
9.989697000520607,12.468229875230909,14.821982165141945,7.5807283880296445,6.914168384462721,11.008069548952593,7.133732267231619
10.054316716574592,12.45271284706859,14.832194919135851,7.588380844712899,6.886793556375594,10.9886555876289,7.134006131661694
10.115235035835866,12.433714714534382,14.846970221255708,7.593857494813932,6.86075367902089,10.969812652803947,7.138581187363912
10.172356758937562,12.411366759747311,14.866031001849576,7.59705141695623,6.836228726762049,10.951747279546032,7.147549372310119
10.225587427092199,12.385822531542983,14.889044106753618,7.5978785522733565,6.813393907638764,10.934657357281393,7.160978443788972
10.274832205711995,12.357252717792997,14.915621632624902,7.596279045207166,6.792419768659377,10.918731469247733,7.17890809339802
10.319994678988223,12.325844135877281,14.945322724067038,7.592217804845864,6.7734733276691435,10.904154767541446,7.201344048188513
10.360976009324219,12.291810603636758,14.97765714488883,7.58568385450514,6.756717851868288,10.891114249848536,7.228252970194695
10.397674555860634,12.255416247172183,15.012091660774342,7.576687461787292,6.742309771803218,10.879795997416858,7.259560442117678
10.429986697970614,12.216993716964351,15.048057317363423,7.565255622625463,6.730394530583381,10.87037860152421,7.2951518242055755
10.457808773103642,12.176942130486387,15.084954403998347,7.551427484091933,6.721104079199123,10.863034830298567,7.334873725852731
10.481038544105123,12.13570990670874,15.122154687578009,7.535251410813412,6.714555767476719,10.857945128935633,7.378535322383958
10.49957531568108,12.093774441119026,15.159002926822533,7.516785871171471,6.710851049494596,10.855311715891505,7.4259128168445026
10.513319765348351,12.051623983636564,15.194820267730641,7.496105036297097,6.7100742073371595,10.855361912414004,7.476759814333488
10.522174634216896,12.009742556035079,15.22891336543384,7.473305803452959,6.712291396670869,10.85834096162259,7.53081952426605
10.526046113166718,11.968597876595675,15.260591580577346,7.448511360408421,6.717549581115051,10.864501916291859,7.587831622127936
10.524845505344047,11.928631954447146,15.289190617726737,7.42187034072998,6.725875547418213,10.874102091664438,7.647532341443522
10.518491357311987,11.890253499839382,15.314099641064388,7.393553580954589,6.737275970620098,10.88740979210625,7.709652301220638
10.50691247531042,11.853831701149563,15.334785157493354,7.363749219214725,6.751741061115652,10.904714399592182,7.773915789037384
10.490052011274487,11.819691662426598,15.350801484100435,7.332656367450454,6.76925297933271,10.926334381139904,7.840041262353932
10.467871662048433,11.7881119886032,15.361787297158013,7.30047893226779,6.789794070781682,10.95262407892734,7.907741634210815
10.440353840369756,11.759325558140835,15.367460014187579,7.267420873548747,6.813349389962376,10.983973910473388,7.976723989404773
10.407501186316043,11.733523868727866,15.367615204471075,7.233682849166033,6.8399046486395445,11.0208013361619,8.046688724180894
10.369334981891717,11.710863172733022,15.362125708407696,7.1994601823018325,6.869442900877334,11.063551454612599,8.11732838640226
10.325893223360884,11.691469826697839,15.350934368703143,7.164942348611102,6.901940664469071,11.112720408915791,8.188326990872495
10.277227892025078,11.675442897885434,15.334041879842676,7.130313034655845,6.937364470546747,11.168877273559891,8.259360570080709
10.22340187759451,11.66285383222217,15.311495279957745,7.095748765293862,6.975669459239833,11.232656042420372,8.330098881708476
10.16448661061418,11.653746056039912,15.283384433846775,7.061415170475476,7.016798870625817,11.304723527583992,8.400206833085072
10.100560849384403,11.648139429576785,15.249851278114603,7.027462074920953,7.060682123601034,11.385745973393458,8.46934661706336
10.03171096490046,11.64604144329116,15.211104380159068,6.994019621787257,7.107231522976013,11.476372377334291,8.537186227812771
9.95803270557749,11.647458581230671,15.167423685674915,6.961197085605503,7.156339145735677,11.577242012927178,8.603415067435037
9.879633314926766,11.652398545368115,15.119150048320536,6.929084189957705,7.207874631934155,11.689003553644527,8.667756520879799
9.796633208652231,11.6608632182532,15.066667053130022,6.897752973928433,7.261683376755526,11.812322697157246,8.729969684880198
9.709167651710837,11.67284218375855,15.010383586182094,6.867259141300924,7.317585385560482,11.947871006504888,8.789844082339688
9.61738879213856,11.688317523009887,14.950719451010745,6.83764500844556,7.375376484762424,12.096305534271227,8.847193597724887
9.52146738582262,11.707279083180902,14.888092621141828,6.808946016383397,7.434832144401835,12.258247360888506,8.901850816986437
9.421593130279241,11.729735553366764,14.822907909506732,6.78119800855509,7.495712040695296,12.434259501616758,8.95366151813939
9.31797328974346,11.755711743845753,14.75554862248338,6.754441209361055,7.557764084288026,12.624822561603214,9.002480461708105
9.210830060548703,11.785238153103803,14.68637135112328,6.728721295576015,7.620728368950454,12.830309459473217,9.048169535023403
9.100397338757656,11.818340915865427,14.615702214651346,6.704089961734914,7.6843426273125335,13.050962918069581,9.090598934321106
8.986917985270768,11.855034004066825,14.543834243024932,6.680604510990391,7.748349507808467,13.286878044508407,9.129651480101543
8.87064247555447,11.89531368809929,14.471029551097487,6.6583246183381055,7.81250250470455,13.53798979833448,9.165227374918027
8.751828280443199,11.939154959728082,14.397530549944273,6.637306974151711,7.876568244199655,13.80406592830746,9.197245434562614
8.63073834900367,11.986509101176004,14.323576311322462,6.617600324867161,7.94032710462973,14.084710639930881,9.22564018705974
8.50763805838983,12.037301582673436,14.249413090198777,6.599242421889527,8.003573543213223,14.379384585132524,9.25035726478664
8.382792443992637,12.091429212891779,14.175294592982237,6.582258863066921,8.066114953094637,14.687434869233401,9.271348698421923
8.25646748795513,12.148757442029796,14.101477237211009,6.566662698839969,8.127768930405512,15.008119570956588,9.288568484922742
8.128936849626927,12.209123019454058,14.02821477886601,6.552454005197555,8.188360373445024,15.340626109821061,9.301969409886999
8.00048964688916,12.272345339925526,13.955752918306024,6.539619856702244,8.24771971586407,15.684101011366778,9.311502581858823
7.87143405259533,12.33823996240241,13.88432479599467,6.528134505162781,8.305682931519401,16.037692432267097,9.317119872096676
7.742096970447511,12.406624328948741,13.814148652151516,6.517958925317095,8.362092987124486,16.40057934730523,9.318777603013983
7.612823188887011,12.477314177285153,13.745427435910438,6.509040273802312,8.416801773723172,16.77197158882525,9.316439700445954
7.483974630182046,12.550116357215597,13.6783501546395,6.501312657318631,8.4696717152038,17.15109380823393,9.31007994184713
7.355927489743683,12.624824272830462,13.613098143268589,6.494700325060221,8.52057653863933,17.53717042340113,9.2996838256404
7.229066724941222,12.701221256421354,13.54985699294798,6.4891232009391295,8.569401070641513,17.92941532567566,9.285250494532255
7.103780618331298,12.779092402793125,13.488825423426373,6.484502067000566,8.616040643053788,18.32702258577865,9.266794385552098
6.980457507738244,12.858236332295226,13.430214167343928,6.480760257373809,8.660401132663818,18.72915562521493,9.24434553020555
6.859482700713528,12.9384677432095,13.374239135606686,6.477822067947292,8.702400188472378,19.134936076119637,9.217947784987897
6.741232873012965,13.019611985305817,13.321115976915866,6.475610411156195,8.741968856859346,19.543435107573824,9.187655526453145
6.626069047569423,13.101498899979442,13.27105992162466,6.4740448489452564,8.779052409401345,19.95367040067965,9.15353063108124
6.51433084199025,13.183959423301767,13.224289387211002,6.473039300077239,8.81361103495153,20.36461059671505,9.115641493744963
6.406332538136592,13.26682356352376,13.181026075737996,6.472499262288449,8.845622154871268,20.775184645019273,9.074064126347615
6.302360315093783,13.34991697368018,13.141489348504722,6.472319784839618,8.87508386922275,21.184291553553344,9.028884248565904
6.202670497085297,13.433054963732078,13.105893871772972,6.472385188889439,8.902016671048479,21.590809969244944,8.980199056024029
6.1074889505458945,13.516036852384607,13.07445862776114,6.4725698301501975,8.926461662459133,21.993610904076505,8.928117325746982
6.017011720877659,13.598647492057482,13.047420687298496,6.472738632270795,8.948476467030142,22.39157272401729,8.872757877408402
5.93140628406378,13.680669111469317,13.02503837373876,6.472748252110985,8.968130941417247,22.783591127220788,8.814247519110355
5.850812891859001,13.761896097787229,13.007579312928396,6.472451191294654,8.985503327348042,23.168584075382643,8.752718733258394
5.775347477703231,13.842145409726797,12.99530270091658,6.471702248854195,9.000676957092319,23.54550459109145,8.688307588682608
5.705106477940825,13.921265927015636,12.988444070120673,6.470363658851122,9.013738004086536,23.913365710233787,8.621153626981387
5.640170570359575,13.999148899468798,12.987207794951814,6.468307030133727,9.024773580660735,24.271259727374247,8.551402166157006
5.580606117762993,14.075732295483343,12.991776760769564,6.465413043289505,9.033868661697877,24.618356155388604,8.479207441654845
5.526466886513248,14.150994496359074,13.002338444828801,6.46156999544554,9.04110224172682,24.953885019134248,8.404735276400412
5.477797995309054,14.224941939085916,13.019104680639748,6.456671699154362,9.046545241682164,25.277119963885223,8.328164893718656
5.434640938499321,14.29759661557605,13.042307597932163,6.450615703694571,9.050262054142651,25.587368955688614,8.24968957080522
5.397036415260926,14.368984746522683,13.072179675729872,6.443303166336553,9.052315712190218,25.883973243082618,8.16951590553271
5.365023146027981,14.439125802157292,13.108932409406341,6.434640073689238,9.05277524496086,26.166310511086934,8.087862077694009
5.338634784934378,14.508023636854347,13.15273992548026,6.424537783152964,9.051722375155968,26.43379869126214,8.00495638244872
5.3178976344699205,14.57566291107481,13.203729259432892,6.412912322262725,9.049255511665002,26.68590117885557,7.921037074674085
5.3028289229367696,14.642010186628998,13.261976287771128,6.39968404029772,9.045491711421313,26.922135660889364,7.836352588243681
5.293434358837329,14.707015725871635,13.327503959578866,6.384778636358364,9.040566788218095,27.14208408084486,7.751160411469567
5.28970541796515,14.770613147872606,13.40028018813814,6.368129832036812,9.034632122037547,27.345396408699685,7.665724459206786
5.291617690960586,14.832717500479985,13.480217049190218,6.349684821666072,9.027848675166092,27.531786264078526,7.580312059140644
5.2991300048202366,14.89322575472324,13.567177210432142,6.329412284952185,9.020380985635292,27.701027099360555,7.495191338803955
5.312182583680487,14.95202335315756,13.66098904265252,6.307308670059807,9.01239286425235,27.85295982830712,7.410628838560156
5.330693801096798,15.008995057714223,13.761461679460494,6.2833983207353326,9.004043877063516,27.987516097793815,7.326887477046807
5.354557353968787,15.064033974196052,13.868394237895792,6.2577281410220325,8.995484906527208,28.10474826961839,7.244225915451944
5.383642024864915,15.11704350921454,13.981584046460693,6.230360715400954,8.986852909350366,28.204844858633454,7.162898931790513
5.41779440204354,15.167931759841402,14.100834190251957,6.201368574904733,8.97826661218076,28.28811960244403,7.083156303829029
5.456842908326547,15.216603484779677,14.22595250979574,6.170830301194727,8.969824283836463,28.35498529791143,7.005239135216153
5.50060122477217,15.262957700751638,14.356740935764938,6.138828462684752,8.961602990277456,28.40592977591908,6.929375512712767
5.548870231895737,15.306893579434817,14.492982554922595,6.105449211437186,8.953658145986521,28.441503301827684,6.855777323061493
5.601438454689382,15.348318415778586,14.634431821813001,6.0707826945475585,8.946023201770794,28.462316122706373,6.784638351344718
5.658082380874894,15.38715429733526,14.78080768861281,6.034923167996567,8.938710555239476,28.469035595651732,6.716133604483455
5.718569125794338,15.42334723576938,14.931787935499814,5.997968451907373,8.931715089378448,28.462375772194285,6.650419928470642
5.782661387303972,15.45687811968867,15.087004910714965,5.9600187155565205,8.925019946532894,28.44308567984532,6.587636598525364
5.850120943836295,15.487771129702237,15.246043238599063,5.921174866617682,8.918601328929,28.41194900650466,6.527904128239013
5.920708337653241,15.51609798796029,15.408438702580805,5.881537589461509,8.912429584586437,28.369796414962103,6.47132220151627
5.994180272260299,15.541975699835518,15.573678991883204,5.841207332985172,8.906467656219988,28.317520146159193,6.417969243161054
6.070286422323644,15.565556806803166,15.741209683885753,5.800284122570937,8.900669581624284,28.256098380490126,6.367903352020668
6.148765974032601,15.587016502339406,15.91044567833434,5.7588666871953125,8.89497934585286,28.186639573478722,6.321162045886277
6.229344976814914,15.606541044046093,16.08078287207077,5.717051447056597,8.889328972345828,28.110418685312542,6.277760518755052
6.311736054169206,15.624317820400616,16.25160634711361,5.674931945747093,8.883636585458303,28.028881811984807,6.237690767343443
6.395640612334756,15.640525721627208,16.422296145689838,5.632599331483489,8.877805992765273,27.94363565811296,6.200923496288648
6.480752936341079,15.655327966237943,16.59223357618749,5.590143955143947,8.871727941586068,27.856428236302573,6.167412549258178
6.5667655017466355,15.668873298272052,16.760809488671796,5.547657170989658,8.865282603345198,27.769114537471054,6.137099444421436
6.653374114320555,15.681305627984061,16.927432942324,5.505232182343237,8.858342491057748,27.683634039892485,6.109915355286553
6.740281742732602,15.692772538374877,17.091539907625602,5.46296313906204,8.850774880119182,27.60202706376386,6.085780306428631
6.8272010847870845,15.70342525910403,17.252602783335142,5.420942413500677,8.842444333612766,27.526460395131863,6.064601342621559
6.913855784819139,15.713411803691494,17.410137142836987,5.379257113874982,8.83321622419692,27.459217812310403,6.046271127606036
6.999979581203227,15.722868439413576,17.56370323133581,5.3379869349669145,8.822960875873534,27.402661904527243,6.0306674786206855
7.0853136458582116,15.731914289577709,17.71290488456552,5.29720476746287,8.811558814229846,27.359202456566013,6.017653557364601
7.169603853748138,15.740650498641765,17.857386199947282,5.25697887460193,8.798907632802239,27.33128940334022,6.007078478123083
7.252599404915344,15.749160039128833,17.99682424328597,5.2173746860107215,8.784927604141794,27.32142471033745,5.998779618969649
7.334052854278298,15.75750467951098,18.130919987552854,5.178456517080941,8.76956303138889,27.33218144707938,5.992587923174107
7.413721568790496,15.765720388471044,18.259391212196906,5.140290006223953,8.752780346920769,27.366238186234007,5.988334474728224
7.491372359744635,15.77381441617755,18.381968076682252,5.1029442766792465,8.734565328186747,27.426439506733377,5.985855158026312
7.566790382732291,15.78176545305149,18.49838906489569,5.066493285343541,8.714920841663194,27.515851327910134,5.98499204612882
7.639788913455315,15.789524976841438,18.608395148001733,5.031016880250762,8.693865717111706,27.63776229833527,5.98559222837271
7.710215309128713,15.797017412685687,18.711722884371337,4.996600642784424,8.671434140927035,27.795628670870656,5.987506328904219
7.777951825298781,15.8041392205121,18.808100047731546,4.963333511934057,8.64767492507672,27.99302930942122,5.990588695948032
7.842912188174227,15.810758648853017,18.89724748557136,4.931304715697808,8.622650940927945,28.233707802785787,5.994698140151926
7.905035413049645,15.816718781669,18.97888591887939,4.900602081994002,8.596438680331493,28.521677871306185,5.9996970779230825
7.964278817572703,15.821845012245587,19.052741527269173,4.871311908336136,8.56912709879053,28.86129164299122,6.005449390029963
8.020611977031098,15.825953180556057,19.118547206719363,4.8435192904534015,8.540815064758277,29.25722664888051,6.011818492379109
8.074012359902278,15.828853523143815,19.1760424501487,4.81730786839053,8.511607703097965,29.71441706799322,6.018666432893467
8.12446213756129,15.830350744357549,19.22497617779814,4.79275909842403,8.48161270351787,30.237974809087607,6.025854119923322
8.171945195988718,15.830246350790576,19.26511450264428,4.769952637275328,8.45093747233557,30.833129227072487,6.033242206307359
8.21644423252903,15.828350517828838,19.2962515687164,4.7489683005860766,8.41968674949377,31.505156861280263,6.040692092699457
8.257939332718154,15.824502737332997,19.318218355274865,4.729887099842277,8.387959429295273,32.25926483921097,6.048067285933947
8.296409411066834,15.818590976912448,19.330885440386268,4.712789742617173,8.355845062308102,33.100449186671675,6.055236244190954
8.331835426270967,15.810561109694495,19.334165085260096,4.6977543031070095,8.323423009381356,34.03336940835218,6.062076925540051
8.364202415995617,15.80041560174714,19.328027984088205,4.6848543381932295,8.290765677953024,35.062247235680594,6.068480879642208
8.393498771050702,15.78820339561664,19.312536627959158,4.674156453817606,8.257943140993234,36.19077226545449,6.074354581747037
8.419713675566602,15.774005582523953,19.287870817092642,4.665716657888749,8.22502568751733,37.42203503878125,6.079618209384239
8.442834317344925,15.75792327291755,19.25432830795812,4.659576473258342,8.192083553171475,38.75854913097452,6.084203831757415
8.462843778776675,15.74007083847295,19.212313546590565,4.655760020487905,8.159185298993197,40.20234591923087,6.088054090217909
8.479720070772082,15.720573370384471,19.1623289335334,4.654272502658243,8.126396874610203,41.755041766992804,6.091120753283881
8.493436397007716,15.699566525269695,19.104965480347552,4.655100422068799,8.093781933486472,43.41786933387117,6.093362917332638
8.503962156050825,15.677197087517653,19.040887335320694,4.6582134965257564,8.061401675077821,45.19175592411772,6.09474548636252
8.511263994572515,15.653622464212628,18.970811751561452,4.663566863360842,8.02931308569188,47.077451589017215,6.095237767440582
8.51530661994425,15.629013089579772,18.89548791335196,4.671102006126689,7.9975665832361065,49.075672838417326,6.09481191251039
8.516054626392618,15.603565664465972,18.81567677390636,4.680746502985808,7.966204035099778,51.187273578348574,6.093442073886969
8.513477691006885,15.577522523455237,18.732133123383917,4.692413917882861,7.935257800540499,53.41338642509484,6.091104563120836
8.507558153200183,15.551179620245287,18.64559086115699,4.706004775380639,7.904751582650268,55.75545210283952,6.087778013190742
8.498295789858728,15.524875940506004,18.55675303793166,4.721408690169533,7.874702343804377,58.21520519196681,6.083443539673864
8.485707357034263,15.498974654725894,18.46628800610471,4.738507145121498,7.845121436666114,60.79471183549483,6.0780859797338
8.469824288543942,15.4738470313397,18.37482968777624,4.757176219812178,7.816014538704671,63.4963874171212,6.071696391498817
8.450692029909826,15.449860356042759,18.282975931607552,4.777289645378303,7.7873815646505475,66.32289682158523,6.064274854227897
8.428370568473252,15.42736648423627,18.19128129468884,4.798723430577524,7.759217245283394,69.2769904958939,6.055832235914342
8.402934019062426,15.406690035402013,18.100247189643994,4.821361281843322,7.731511839125127,72.36135897144557,6.0463903978941
8.37446861805385,15.38811841863362,18.010313886876155,4.8450975911156515,7.704251538768681,75.57849720513767,6.035981378539142
8.343072146858544,15.371896131817548,17.921856254045306,4.869836075899944,7.6774188961459595,78.93059575854603,6.024646287964997
8.308860472018713,15.358223092870217,17.835182948875925,4.895485836446699,7.650994207367029,82.4195369033801,6.01243492302924
8.271980698033737,15.347253894567029,17.750538368640058,4.921958080563662,7.624959011822565,86.04694840971108,5.99940664245959
8.232620371072974,15.339095838498363,17.668110121611523,4.949164942011414,7.599301387470193,89.814149784088,5.985631429668272
8.191005392541364,15.333806731281298,17.588045524066892,4.977019218834131,7.574020443324931,93.72194936647811,5.97118999236785
8.147391007245414,15.331393389506577,17.510472628601452,5.005433516306027,7.549127762099941,97.77040191116822,5.9561730593354145
8.102052403786459,15.331809722191364,17.435516056886012,5.034320005828089,7.524647395799714,101.95862484026604,5.9406804259753985
8.05527648898309,15.334953750548884,17.363302618212945,5.06359299538269,7.500617101076673,106.28470998222491,5.92481979796191
8.00735474465233,15.340666180496042,17.293958616487796,5.093172801299164,7.477088786965799,110.74571377887668,5.908704936368185
7.958577756599282,15.348735344797156,17.227604611678448,5.122987630890297,7.454125315812765,115.33766916694788,5.892452713458943
7.909231602118694,15.35891056752264,17.164353746153925,5.152973531287494,7.4317964007672295,120.05562440122486,5.876179865713509
7.85959648904006,15.37092018209151,17.10431531146227,5.183074514393334,7.410177888972656,124.89376893088414,5.860000636281383
7.809947927771426,15.384489129559626,17.047598463288047,5.213242951988882,7.389354486131067,129.84560140643208,5.844024912925136
7.760557776794011,15.399355233491109,16.994310569142566,5.243438417424988,7.369422654028241,134.90403417317307,5.828355721235509
7.711692180525744,15.415283554633659,16.944551335986933,5.2736243270657095,7.350490736393978,140.06142949977456,5.813086240104501
7.663608085646997,15.432074160760433,16.898407797158523,5.30376419783571,7.332676260436926,145.30960143141132,5.79829730008058
7.616551230215495,15.449561238583017,16.855951993199103,5.333819149515213,7.316102725425429,150.6398156327774,5.784055872342306
7.570754830524719,15.46760783189189,16.81723806139622,5.363746066491278,7.300897506226462,156.04291695643502,5.770414270247756
7.526437375157937,15.486099515075416,16.78229647414076,5.393495931734288,7.287190287387951,161.50964255931245,5.757409419183351
7.483800142149822,15.504937697784547,16.751128242523833,5.42301288181321,7.275111136840989,167.0309144962131,5.745061939895514
7.443025220893397,15.52403909666832,16.723701662452346,5.452233742468737,7.264788312808949,172.59792094669774,5.733375113161832
7.40427385838172,15.54335079084616,16.699950011428943,5.481088246706968,7.256345346242753,178.2020347814718,5.722334055917909
7.367685520668701,15.562874305121474,16.679768342742204,5.509501035289757,7.249896635856032,183.83468113370606,5.711905917447561
7.333378518766824,15.582678697781152,16.66301154055332,5.537394408196533,7.245542454101951,189.48722113437594,5.702042414215643
7.301451781053104,15.60289745776339,16.649497547785977,5.564689480254682,7.2433647906246215,195.15088859711156,5.6926860054213595
7.271986055847222,15.623720152334307,16.639017239291107,5.591306019031143,7.243423969481466,200.81675980432726,5.683778533955908
7.245043424034136,15.645382441656198,16.631350793627284,5.617163922713168,7.245755437538527,206.47573748285436,5.675268206765561
7.220665322325505,15.668150953867599,16.626286789598836,5.642187772777217,7.250367181246296,212.11859786710684,5.6671121111941725
7.1988695416004,15.692304869410599,16.623634110493068,5.666311917273172,7.257239220255296,217.73614037886648,5.659275170078135
7.179646872953975,15.718118780040767,16.62322219868164,5.689483316351711,7.2663260533140495,223.3194010029798,5.651728096933123
7.162958908996552,15.74584959671764,16.62489854866917,5.711662499218604,7.277560415075405,228.85985222025383,5.644446190761849
7.148738484062123,15.77572971203495,16.628530201941317,5.73282349133992,7.290855759535334,234.3495160042991,5.637408833490404
7.136892563666031,15.807965676270003,16.634004131585094,5.752952618859565,7.306107953882452,239.78097072523636,5.630598347945279
7.127305758065145,15.842736813112959,16.641225070906096,5.772046812129724,7.323198620739734,245.1472816663394,5.623997946007075
7.119843227119563,15.880189230575184,16.650118450902074,5.790112061667229,7.34200019059188,250.44185796936762,5.617589783088359
7.114353603219795,15.920427158987106,16.66063905562748,5.807161746213937,7.362380513348746,255.65825954984135,5.611353813091179
7.110673117595805,15.9635077183824,16.672776439923638,5.823214608032129,7.3842055475994375,260.79003927393853,5.605269079810418
7.108631194771115,16.00944201044163,16.686550665016266,5.838292200372343,7.407340168708138,265.8306576002879,5.599321305432543
7.108056480753587,16.058198287695355,16.70199895621142,5.8524156765708675,7.431647703995705,270.77342521685375,5.593516284764349
7.1087813637792046,16.109701800360824,16.719159097077522,5.865603183122697,7.456988715100243,275.61144764781625,5.587890307834208
7.110643561170378,16.1638313077802,16.738055735664197,5.877869690878238,7.483220008487252,280.33760693433015,5.582511030760514
7.113485283617619,16.22041623496971,16.75869081585884,5.889228687160317,7.5101954838211435,284.944615164769,5.577471716179187
7.117152062854762,16.279237580810488,16.781035542202687,5.899693327605417,7.537768881704031,289.4251078778267,5.5728843296521156
7.121492546251365,16.340030986141112,16.805022558080424,5.909276991534319,7.565795872296658,293.771706580958,5.568873695823682
7.126358410041104,16.402488998597025,16.830539702818374,5.917995641114846,7.594134354100297,297.97703577309704,5.56557233397107
7.131603561623159,16.46626486709272,16.857426983785768,5.925872148093821,7.622645455653532,302.03374033527,5.563114708336499
7.137083185825039,16.53098068689597,16.88547669262845,5.932939568257703,7.651196989622459,305.93454177469187,5.5616312315513525
7.142654174527175,16.59623656223323,16.914434658366574,5.939241726376229,7.6796673550252255,309.6723295871127,5.561244473812581
7.148180335558342,16.66161803926607,16.944000303084316,5.944832935844939,7.707946479970149,313.24023022245825,5.562068461029693
7.153542893877773,16.726703110381614,16.97382537875881,5.949778357027756,7.735933241812239,316.63160406914466,5.564208750444113
7.15864874603084,16.791068769252252,17.003513343834847,5.954153773055847,7.7635327609600635,319.83999855990595,5.567761383700421
7.16343007588955,16.854296695062065,17.032622728627263,5.958043796847826,7.790656886056956,322.8591098660564,5.572811354152256
7.1678385270624,16.91597800206554,17.060680261236648,5.9615390879022465,7.817227947837314,325.6827896533937,5.579431254281377
7.17183975634355,16.97571471328046,17.087204755071372,5.964732665692669,7.843183344911131,328.3051397745176,5.587679698003678
7.175410006797325,17.033116917501662,17.111730038516512,5.967715004871387,7.868477869633477,330.7206804042982,5.597599870290337
7.1785341097278845,17.08779876637341,17.133815189850683,5.970568630381228,7.8930823714270515,332.9244820375998,5.6092188976466995
7.181204544825088,17.139378078342276,17.15304449191069,5.973363896521907,7.916979574867224,334.9121804040388,5.6225479152328735
7.183420696228031,17.187483103710147,17.169025622818644,5.976157307904944,7.9401585871906315,336.67990005834554,5.637582987929856
7.18518732724656,17.231765153483355,17.181390493915764,5.978991822768579,7.962610053809334,338.22415756546246,5.654306997864149
7.186512980598899,17.27190982232267,17.18980336727957,5.981897157748293,7.984323824320423,339.5418023429178,5.672691623836459
7.187409560581785,17.307640614587843,17.19398435644426,5.984889154575392,8.005289117308932,340.63001146120337,5.692698830989319
7.187892477303789,17.338716143780623,17.193745683324945,5.987968949025672,8.025495369665459,341.486313097296,5.71428208039888
7.187979618687675,17.364925226544106,17.189019054762753,5.9911228220379265,8.044932817970023,342.10861743408975,5.737387163153794
7.187689652008451,17.386081815753652,17.179856628500872,5.994322492156844,8.063594204233212,342.4952580865418,5.761951910641798
7.187042649701824,17.402020419769187,17.166411224117045,5.997525103794879,8.081478719666576,342.64505186214325,5.7879047328876405
7.186063816201903,17.412592125451393,17.14891107269002,6.0006735271853,8.098596613961748,342.5573737392865,5.81516359298723
7.1847881823550015,17.4176600958741,17.127637242585607,6.003698414576498,8.114972221856481,342.23222708427505,5.843636723556915
7.183265315245221,17.41709539493342,17.10290575444659,6.006522075195375,8.130644003098737,341.6702822276769,5.873224494962926
7.181562583545664,17.41077829870867,17.075057450063312,6.009062965126797,8.14566050368138,340.87287225191915,5.903821389844696
7.179763508173291,17.39860730805852,17.044457579377923,6.0112392524978,8.160073184479685,339.84195686009326,5.9353177683610845
7.177961163375717,17.380508587129107,17.011499494163942,6.012970214493117,8.17392952529159,338.58007569444214,5.967601304069726
7.176250485698588,17.356439195085667,16.97660454143936,6.014175842598292,8.187268511408346,337.0903256730435,6.00055786168269
7.174721854747035,17.326388414933803,16.94021840331904,6.014776890786959,8.200118154386498,335.3764052718196,6.034072045334184
7.173455964334145,17.290382076156863,16.902811459537652,6.014697994070365,8.212495541180148,333.4427290369362,6.068027880092709
7.17251984662608,17.248484874167307,16.86488494926872,6.013874182754871,8.224410852102144,331.2945501003262,6.102309324585899
7.171964868637688,17.200795287724777,16.82697276493681,6.012257199322291,8.235874281549357,328.93802741734163,6.136800100130538
7.171828284141013,17.147436405805653,16.789632010254234,6.009817599154932,8.246902224562445,326.3802547716437,6.171382970475569
7.172137807840263,17.088547885260983,16.753428705076033,6.006542812367585,8.2575193616028,323.62929083363986,6.2059385925018775
7.172914927977791,17.024279633553412,16.718925301623624,6.002434227977431,8.267756130526301,320.69413967437487,6.240344180679275
7.174174022559641,16.95478618815048,16.686668664586453,5.997505412701924,8.277644367544134,317.58463089745,6.274473135861611
7.175919969048449,16.880222164767858,16.657176744304525,5.991781544893669,8.287213560390128,314.31127755383244,6.308196154500699
7.178148096763667,16.800739063797476,16.630929304208703,5.985298483418512,8.29648753522656,310.88520672856134,6.341382587573131
7.180846603628447,16.716482296702132,16.60837351127695,5.978100189237542,8.305481427775494,307.31814218945374,6.3739015804318475
7.183999188833398,16.627587638462153,16.58994860402126,5.970235515744373,8.31420016862902,303.62235974444195,6.405623831848007
7.187585789416242,16.534178096943972,16.576122147542048,5.961755888390852,8.322639055080206,299.8105631111286,6.43642328977747
7.191580949102286,16.436362680810436,16.567426368445396,5.952713882689778,8.330785079166416,295.89568581170727,6.46617768485071
7.195951374187654,16.33423810712228,16.56447931495244,5.943162287247903,8.338616964284101,291.8906779135167,6.494768649197163
7.200653962999766,16.227893160798565,16.56798080675987,5.933153848085068,8.346103481271195,287.808334234353,6.522081767286971
7.205634134855782,16.11741311774107,16.578700614673203,5.922741706947688,8.35320162199892,283.66117568261575,6.548005760128381
7.2108243134919405,16.002883196293094,16.597487460785878,5.911979854196236,8.359855923323398,279.46136495487565,6.572430979702311
7.216143122829439,15.884393995129702,16.625294575396104,5.900923311676414,8.365998623542803,275.22063154418686,6.59524818417532
7.221496009628243,15.76204925889703,16.663188359657646,5.889628629932427,8.371549700686506,270.95019258364397,6.616348246873714
7.2267769028778295,15.635971055905463,16.712323298932606,5.878155305540704,8.376416966937287,266.66068739729326,6.635622909344943
7.231870436183428,15.506300562204762,16.77389910465003,5.866568053084142,8.3804982555424,262.3621698208221,6.652965972162696
7.236657852992472,15.373199822959334,16.849125534013762,5.854938777347809,8.383686915985018,258.0641817217,6.668274013446291
7.241029067232318,15.236859123562947,16.939205808901658,5.843347035917142,8.385878566315153,253.77586480371497,6.681446306239309
7.244895328268391,15.097506195856553,17.045331798719705,5.831879249395481,8.38697672191888,249.50603602783434,6.6923842223133745
7.248195363210075,14.955410073992594,17.16868315157582,5.820627433652813,8.386896860489818,245.26319986471503,6.7009902316871965
7.250895110442698,14.810878157897651,17.310427308604233,5.8096871484547155,8.385568587269958,241.05551495894562,6.707166460201834
7.252984635836256,14.664249356679269,17.471712199920898,5.799154023349655,8.382936334515485,236.8907369176578,6.710813460817627
7.254474132997563,14.515885597495384,17.6536477772891,5.789119722232869,8.378960463088434,232.77616370394415,6.711830813961239
7.255389902597148,14.366164008679043,17.857282266483768,5.779669011625097,8.373618657164794,228.71860594744464,6.710120976635182
7.255770774618119,14.21547165664482,18.083572515478846,5.770878598186428,8.36690589150404,224.72439483347625,6.705595310189101
7.255664264794283,14.064202434480318,18.33334874972521,5.762818112726568,8.358833216460079,220.7994215294811,6.698179066346271
7.255121895659849,13.912756143988679,18.607300253413243,5.755553102800096,8.349426530184928,216.94918407722042,6.687813799051538
7.254194590958111,13.761542472556382,18.906019227195003,5.749147987066931,8.338725481222934,213.17886875766982,6.674458430917641
7.252929700766433,13.610989268496889,19.23009070667077,5.743667163278141,8.32678275190542,209.493506745965,6.658089728702801
7.251371578687505,13.461546961307938,19.580163316059323,5.739175127262427,8.31366527346928,205.8981410619381,6.638701459511246
7.249565725320148,13.313683213843248,19.956965085483645,5.735737673546151,8.299457924695886,202.39793010248957,6.616302604862166
7.247562109623055,13.167872771890897,20.361284565020576,5.733423951490046,8.284266054344117,198.99820482093565,6.590916041424056
7.245414368914793,13.024590720569323,20.793942376604882,5.732306197120677,8.268213181935243,195.7044758360468,6.562578153703639
7.243177413343901,12.88431024310917,21.255767967026753,5.732455806193943,8.251435592598913,192.52236247576178,6.531340417929086
7.240906880672616,12.747499606698405,21.747595028012114,5.733938519574857,8.234077452954525,189.45748126619083,6.497274578886847
7.2386599721654745,12.614614764718894,22.270273786865943,5.736811951106523,8.216288455836969,186.51533926876013,6.460479558503317
7.236494689340994,12.48608945366437,22.82468768954577,5.741128054369178,8.198224235342481,183.7012298291379,6.421085424381018
7.234466693502257,12.362326269197764,23.411779350675356,5.74694160753933,8.180047803530943,181.02012409218784,6.3792525481473525
7.232628207071176,12.243689933974132,24.032581833430662,5.754320335574652,8.161930696639974,178.4765687676971,6.335168032856912
7.2310336095443875,12.130501821314395,24.688210769295672,5.763350346759065,8.144053710887459,176.07459262928893,6.289041428892951
7.229748495009442,12.023035091441526,25.379792690539038,5.774137891981643,8.126606188726365,173.8176061458312,6.241099914100241
7.228854201700212,11.921512212285034,26.108364847935576,5.78681496443506,8.109783304829083,171.70829571681625,6.191583095713794
7.228445565749882,11.826106543070914,26.874793385884743,5.801550872219819,8.093783106599735,169.74855780657717,6.140737845276641
7.2286254674974115,11.736946028753922,27.679732325053198,5.818561521647031,8.078804883908562,167.93950174309532,6.088812830112526
7.2294994165376725,11.654116830703883,28.523616762788848,5.838108344902369,8.065047694528968,166.28147739857442,6.036052884200105
7.231173506190603,11.577667148025016,29.40666753014022,5.860498340424613,8.052707139074347,164.77408210404354,5.982694968201614
7.233758531609944,11.507609671640644,30.328895431216356,5.88612013896053,8.04197048933161,163.41616002511492,5.928967122310244
7.237377292328811,11.443920070213853,31.290098771109456,5.915532518161851,8.033011237628719,162.2058283758709,5.875089068461608
7.242168386429786,11.386534874120436,32.289844569547704,5.9495734547738115,8.025983414184438,161.1405583102905,5.821271981978665
7.248285559546385,11.335357203215944,33.32744286842864,5.989446251007874,8.021015696229261,160.2172981881591,5.767717183886404
7.25590017995886,11.290271534319555,34.401936727296096,6.036762998582713,8.018206287062092,159.43257375685266,5.714615060844525
7.265211333412875,11.251156260248528,35.51211863949126,6.093552580585629,8.017620303615098,158.7825342221581,5.66214459989381
7.2764552796848365,11.217885159031233,36.656577040257005,6.162245112835654,8.019289967417661,158.2629819564135,5.610473031704381
7.289904824985494,11.190321417058849,37.83375988722085,6.24562360848976,8.02321603069548,157.86941327376695,5.559755032665712
7.305861098627931,11.168312870234919,39.04201237789828,6.346739224012747,8.029369541332047,157.59705926949013,5.510131452615668
7.324644375784135,11.151696870222725,40.27956367518545,6.468812215472765,8.037694561871588,157.44091920242124,5.4617282282910535
7.346584520509812,11.140316178582722,41.54450222145875,6.6151395936427795,8.048112054759073,157.3957908162292,5.414655613529743
7.372008827895447,11.134033959121462,42.834806284133634,6.789019002098052,8.060525082535621,157.4562875526056,5.369006881552059
7.4012280849182215,11.132738132734467,44.14843233394409,6.993687447060498,8.074827310150312,157.6168180436583,5.324856498444722
7.434524544509457,11.136339517248507,45.48338509486056,7.232260838886936,8.09091527928838,157.87153139172952,5.282259403515824
7.472145619392099,11.144768963348628,46.837727130912185,7.5076717415097,8.108700019308241,158.2142784868812,5.24125271276043
7.5143035999327665,11.157971804752595,48.20957113487582,7.822640529607823,8.128113426623145,158.63862526490766,5.201859250410992
7.561177747527586,11.175898575297467,49.59708491347465,8.179723402319027,8.149108749019744,159.1378942968526,5.164091439226626
7.61291993760021,11.198494328893648,50.99848269372412,8.581418350411552,8.171656904170792,159.70519717360293,5.127954746116617
7.669670559847724,11.225689182758924,52.411999078980564,9.03026335783181,8.1957414755725,160.3334507499552,5.093450437999969
7.731580337069295,11.257391670044338,53.83588847455543,9.528903281621535,8.22135446432629,161.01538879425564,5.06057745747691
7.798822210056546,11.293485071073938,55.26846416306478,10.080126296968995,8.248492859472705,161.7435727303694,5.029333547526984
7.871586743924546,11.333825188701189,56.70814304193631,10.686839465028097,8.277156202200233,162.51039380767745,4.999715743062223
7.950068333577897,11.378237616703432,58.15348450872528,11.351972562554668,8.307345542279949,163.30807319814198,4.971720065770267
8.034451847308924,11.426513599599039,59.60323472618575,12.078359149038382,8.339062599014142,164.12868824631568,4.945341250928482
8.124905821829579,11.478405268737802,61.05634914409035,12.868662178438006,8.37230910208131,164.9642304974198,4.920573994150211
8.221581538026943,11.533622537691386,62.51199424186522,13.725363578564576,8.407088860961176,165.80665656306562,4.897415414620654
8.324611506041457,11.59183796132923,63.9696144971551,14.650769441118005,8.443412966758865,166.64790419106518,4.875866702987474
8.43410358092475,11.652712945482463,65.42907231951114,15.646991757864782,8.481305145023821,167.4798997891542,4.855932850031351
8.550132584243938,11.715952702292084,66.89071771352216,16.715917367500715,8.52080373479576,168.29460089949768,4.837620943600536
8.672732100590078,11.78137618383273,68.35530877715462,17.859169707069178,8.561957881959048,169.0840808333451,4.82093759468409
8.801887281382886,11.848973706448277,69.82386366624918,19.078060537687648,8.60481933539537,169.84061650828298,4.8058863749805205
8.937528379902542,11.91892757886569,71.29752068797384,20.373547177034784,8.649435127623539,170.55673752570786,4.7924665300859255
9.079525194821969,11.991591114943668,72.77740507116421,21.74620828208853,8.695844359422221,171.22523794124038,4.780672354357364
9.227683506814738,12.067446038107771,74.26450883633,23.196246908808284,8.744076773138216,171.83919411745964,4.7704914974493855
9.381744499475428,12.147058960909787,75.7596342453932,24.723538179418753,8.794149706399537,172.39204517389047,4.761902436430543
9.541388599701431,12.231042781435928,77.26341725829296,26.327710085629313,8.846063520428547,172.87773828444648,4.754872540721855
9.706243879821605,12.320022572619775,78.77636389789537,28.008195148990268,8.899797643337303,173.29084849504287,4.749357074432384
9.8758949881414,12.414605980552071,80.29883584149117,29.764211801721626,8.955308021861757,173.62660480234103,4.745298860650353
10.04988997608355,12.515358096887288,81.83100012463755,31.59470385441516,9.01252471277996,173.88085884129848,4.742629048576777
10.227748590743255,12.62278059023618,83.37278139690869,33.49827448833531,9.071348850800204,174.05004719143528,4.741269864306608
10.408975046019577,12.737295817100703,84.92381942367555,35.4731220944889,9.131651228196704,174.13115387412697,4.7411389427385595
10.593071411315995,12.859236431165641,86.48342614894484,37.51699102993409,9.193275095970558,174.12166759462897,4.742152984266535
10.779545193596375,12.98883839411469,88.05056224694434,39.62716116172465,9.25604198981004,174.01953955800604,4.74422903867649
10.967910704219623,13.126235762668077,89.62384830082335,41.800481745694974,9.319757243451878,173.82315488920975,4.747284237964834
11.15768899561558,13.271460098990014,91.20159567703028,44.03343304706598,9.384213819840165,173.53131939648523,4.751235759704707
11.348413275694938,13.424446207749805,92.78183871585446,46.322189972054844,9.449194722713413,173.1432471182004,4.756001929337026
11.539655480995371,13.585038841681152,94.36237105836227,48.662660939433316,9.514473549897467,172.65853188312755,4.761504639415568
11.73108097590155,13.752994629201831,95.94081605044248,51.05048949949596,9.57981299931292,172.07710561000204,4.767672527733716
11.922500219143027,13.92797990156032,97.51474495302458,53.481028547933306,9.644962836934136,171.39921317990277,4.774443494065408
12.113881407234237,14.109574661855568,99.08179050749499,55.949310193056164,9.709658706372542,170.62542184904225,4.781765540732211
12.305334253433621,14.297308399558844,100.63969393112228,58.45005025191876,9.773622216164286,169.75664321376823,4.789596626615537
12.497098762601963,14.490742966670734,102.18627737462813,60.97772654913259,9.836564397513142,168.79413842046185,4.797905062281457
12.689549225048035,14.689564723618894,103.71937799635825,63.52672719886798,9.89819634116499,167.7394953024856,4.8066707347606545
12.883201455618616,14.893639818555764,105.23680762289565,66.09154023783242,9.95824564876387,166.59458253148028,4.8158860272058055
13.078711268734954,15.103063487760263,106.73636866738434,68.66695378707146,10.016469746868298,165.3615073119482,4.825555646748548
13.276856709111854,15.318255148073325,108.215880196144,71.24820192088296,10.072660694486851,164.04260703378378,4.835695685390089
13.47850690394111,15.540053420186972,109.6731784725197,73.83100523597963,10.126644693601017,162.64046944476243,4.846332734746316
13.684593951512747,15.769726440559285,111.10611881992902,76.41153062716441,10.17827928736608,161.15794590329176,4.8575039946155805
13.896098642341705,16.008909067677244,112.5126024408725,78.98631666002288,10.227448965928751,159.5981433700875,4.869258447072743
14.114041668225832,16.259543330787057,113.89061492284213,81.55219239735575,10.274061424013379,157.9644085823709,4.88165737409627
14.339464621561408,16.52384746721827,115.23824707698138,84.10621829395008,10.318045886930921,156.26031281957722,4.894772418340787
14.573396571118682,16.804276217238414,116.55368744259411,86.64567176178218,10.359352188530012,154.48964398016622,4.908681117477464
14.81681552512396,17.103442511773096,117.83520371494548,89.16808652225335,10.397949107427653,152.65641226340145,4.9234609884706595
15.070613463970322,17.42401269020981,119.08111630060876,91.67133754039283,10.433821569219774,150.76485294311294,4.939183749627612
15.335567809707923,17.768601984968925,120.28975677214177,94.1537166802478,10.466966958895515,148.8194053518688,4.955911115613856
15.612325110425823,18.13968327068791,121.4594328471031,96.61394545021813,10.497391574461487,146.82467380812872,4.973692095175498
15.90140781720267,18.539510483621875,122.58842179139779,99.05115160892665,10.525107658107268,144.78538445581896,4.992560898595609
16.203245029958367,18.970057821912302,123.67497550870307,101.46485568745248,10.550129729591243,142.7063349125621,5.0125356654968884
16.51820770365294,19.432979486288907,124.71730882737762,103.85494920595224,10.572470145203582,140.59233302042463,5.0336187134370745
16.84662483475803,19.929589741620212,125.7135683593892,106.22162740979522,10.592136004197114,138.44814047734474,5.055797633727132
17.188775871151165,20.460850743878,126.66180020980589,108.56529254906268,10.609128572080381,136.2784371741969,5.079045721611632
17.544877152273468,21.02735764002512,127.5599307032201,110.88647388942658,10.623444912295295,134.0877998685267,5.103321195239496
17.915082990173993,21.629324776291277,128.4057586231362,113.1857644371653,10.635080891574022,131.8806890861931,5.1285657291024735
18.29949818700158,22.266580757910482,129.19695795085863,115.46373150026076,10.644033631666664,129.66146186881176,5.154703287068751
18.698183727195456,22.938579894223853,129.9311055188892,117.72078954478341,10.650301977341101,127.4344174942323,5.18164032625592
19.111153583456222,23.644439808460465,130.60573403842082,119.95707737657413,10.653886149695923,125.20384912655777,5.209267544986844
19.538369918046534,24.382998075240966,131.21838167022992,122.1724040596569,10.654788095113165,122.97408240746643,5.237462475046365
19.979731560683582,25.152856765983866,131.766630862082,124.36629330699728,10.653011583869416,120.74949772709107,5.26609273569029
20.435056054583583,25.952401463420212,132.2481569198876,126.53807489504213,10.648560614192466,118.5345165901819,5.295020056002462
20.904079332072914,26.779832815452956,132.6607738192731,128.68695568014223,10.64143700577881,116.33354257673905,5.324103781186913
21.386487195505435,27.633254837475008,133.00245203560712,130.81206083357364,10.631638868925197,114.15088684103866,5.3532020083787435
21.881956946413922,28.510791985768616,133.27133606553832,132.9124515338395,10.619159551862396,111.99071769827269,5.382170775298365
22.3901943735892,29.410654951922464,133.4657992220816,134.98712299317907,10.603985922767452,109.85704508152422,5.4108635782237755
22.91097356132823,30.3311451149554,133.58451311490902,137.0350108390605,10.58609723295625,107.75371923119378,5.439132394995893
23.444161824235923,31.270693936568616,133.62649908857085,139.05501367352952,10.565466516798345,105.6844207048605,5.466829926205573
23.98970081725984,32.22799028323583,133.59117400813673,141.04599781971754,10.54206391148708,103.65263428185996,5.493812254667407
24.547554165653892,33.20210115366449,133.47839241563622,143.00676671889832,10.515860272284643,101.66162024725702,5.519940583223879
25.117652509072688,34.19248144998725,133.28845314513634,144.93600854910656,10.486830560327231,99.71441891094096,5.5450813781335535
25.699853430009366,35.19889314702147,133.02206500245904,146.83225092138363,10.45495630577668,97.81390538053327,5.569106021683888
26.293924481552917,36.22131552280141,132.68030643923112,148.69387414438017,10.420226320444389,95.96286853192969,5.591891154417235
26.89954723197538,37.25988654389835,132.26460989009522,150.51919842670017,10.382637046560266,94.16408359340163,5.61331970981668
27.516322111228625,38.31485280639562,131.7767734283607,152.30656978276693,10.342194897022276,92.42035152460589,5.633282629883169
28.14375971368464,39.386496226208195,131.21898838899617,154.05437478909224,10.298920033891127,90.73447980075865,5.651681372961217
28.78126957598293,40.47505425110651,130.59386144771187,155.76101548245222,10.252849072781965,89.10921717398621,5.668430339794236
29.4281562965345,41.58068687088879,129.90439565924575,157.4248997805885,10.204035896760956,87.54717969700485,5.683458638205087
30.08361590243522,42.70351008433657,129.1539209107656,159.04443943102262,10.152552111409493,86.05078568662796,5.696711940839031
30.746732770083327,43.843638492366495,128.3460081209958,160.61804206532597,10.098489343313501,84.6222086917119,5.708153829123139
31.416486957130278,45.001171483090516,127.48440017691412,162.14412847624587,10.041963382698336,83.26336222906903,5.717764511329277
32.09176897146933,46.176131336254976,126.57296545142395,163.62121018283844,9.983119048880662,81.97591086510327,5.725537134250415
32.77139520855052,47.36839711999483,125.6156611174036,165.04801573788143,9.922137414839481,80.76128406271269,5.731473944773345
33.454125816565416,48.57765626214465,124.61649703599856,166.423585762019,9.859244778782184,79.62067755568233,5.735583337087425
34.13868392870519,49.80338544014833,123.57950801101094,167.74727091285246,9.794716343346204,78.55503708785191,5.737877535029061
34.82377440586353,51.044863701066454,122.50873509385553,169.01866976483367,9.728870571787594,77.56502782510127,5.7383709667503355
35.508101241128294,52.301193885067796,121.40820525371811,170.2375773010885,9.662058142563655,76.65100814383433,5.737079908880587
36.1903745488334,53.57130941484027,120.28191738926041,171.40397652879201,9.594650570007387,75.81302735189689,5.73402317178462
36.86930343167588,54.85397263058965,119.13385421607721,172.518093688664,9.5270312905605,75.05084718328143,5.7292224018048765
37.543590371634295,56.147777320044945,117.96801153066609,173.5804978916826,9.459590516073133,74.36396687205813,5.722701386222869
38.211941650714095,57.45116217633497,116.7884063022327,174.59214078020128,9.392723905761848,73.75162861491192,5.714485502425877
38.873087337823314,58.76244602119977,115.59904171002182,175.5542906167149,9.326833812658126,73.21280028825848,5.704602240621208
39.525794951221144,60.07988143547649,114.40384740881754,176.4685006849532,9.262329739997812,72.74615942626112,5.693081778955833
40.16887258999653,61.40170269081574,113.20663224523307,177.33670890017777,9.199624463292674,72.35010766612874,5.679956099413292
40.8011794003104,62.72615310073471,112.0110751614377,178.16134597828167,9.139125715079755,72.02282066798278,5.665257062338114
41.4216595677448,64.05148797544021,110.82073915091792,178.94536572165225,9.081226821234155,71.7623109240044,5.649014884213628
42.02938185986055,65.3759494241032,109.63906868911106,179.69226898257128,9.026300707933647,71.56648013101811,5.631257515278033
42.6235647585398,66.69772523132904,108.46935800173763,180.40613753297995,8.9746990721119,71.43315305636062,5.612010900660878
43.20359791719012,68.01491890464722,107.31470722273171,181.09162371168534,8.926755785689018,71.3600878323821,5.591300095486189
43.7690642717758,69.32555053959783,106.17798942705441,181.75389049269472,8.882796401506788,71.34496383928293,5.569150651786694
44.3197477526533,70.62759599508638,105.06184416426197,182.39852412049476,8.843154081283345,71.3853658702772,5.545589254343273
44.85561997102849,71.91905148847903,103.9686877193384,183.0314606904364,8.808182598795542,71.47878195449,5.520643054278102
45.37681087545329,73.19797804996513,102.9007211277606,183.6589756750648,8.778259369930927,71.62261240195892,5.494338628273076
45.8835765675059,74.46249032679741,101.85994256141358,184.28769091939378,8.75378227206073,71.81417501950531,5.466702411144171
46.376276068024254,75.71071063738927,100.84816858639734,184.92448058805613,8.735163708341686,72.05069672149942,5.437762999625783
46.855350680837056,76.94073118363092,99.8670366610087,185.5762580098182,8.722825874908864,72.3292977601273,5.4075537207409194
47.32130141891093,78.15059686659121,98.91798101573595,186.24973677197787,8.717209645811517,72.64698342161898,5.376114010523673
47.77468805143771,79.33829036163185,98.00222731092441,186.95122267785985,8.71880451195269,73.00064625280002,5.343489518814688
48.21616819527637,80.50170663043805,97.12083723927319,187.68644591135418,8.728184788961785,73.38707382496182,5.3097318413262204
48.64654198999132,81.63863261659984,96.2747738293708,188.46048097834895,8.746030262466167,73.80298140685012,5.274898891741707
49.066761357536926,82.74675397655955,95.46495786474871,189.27777674365382,8.773129949856783,74.24508351824225,5.23905578057661
49.47793475699126,83.82368575056805,94.69232534373761,190.14219895641122,8.810377805364928,74.71015922574014,5.202275269515074
49.881368558573676,84.86700544436319,93.95788627979024,191.05700266040515,8.858758649154147,75.19507046394716,5.164637454083899
50.278606283073664,85.8742768314917,93.26275454243687,192.02479927753527,8.919324323641908,75.696762021911,5.126228540683326
50.67142093981272,86.84306969720927,92.60813708614886,193.04757775062743,8.993171782925412,76.21227853405365,5.0871386260946085
51.06177769560217,87.77098051389711,91.99530533374876,194.1267112470344,9.081429135180322,76.73878990176311,5.04745977813366
51.451786783421014,88.65565131383269,91.42556019991936,195.26289814052657,9.185239262315624,77.27360443198556,5.007286285662828
51.84364836655511,89.49478494571062,90.9001774081184,196.45610727837317,9.305732340617755,77.81416246810417,4.966716667971251
52.239609906657805,90.28616096659043,90.4203329143079,197.70561580025213,9.44399408289976,78.35801580148323,4.925855179923644
52.64195898085064,91.02765574297393,89.98703404022538,199.0101527343344,9.601038765221482,78.90280517088422,4.884811649577545
53.05303241649728,91.71726362112489,89.60108693216819,200.36812381717908,9.777787206928624,79.44624378506965,4.843699811746316
53.4751992977826,92.35312088840773,89.26311199282847,201.77786683160957,9.975045043564478,79.98610459073448,4.802634570426109
53.9108058926537,92.93353858488216,88.97357639461832,203.23782257811558,10.193478460780494,80.52020382435892,4.761729513002758
54.36209988871874,93.45703483125092,88.73279133228549,204.74656303723586,10.433590029422872,81.0463808001463,4.721096024572604
54.83116185211506,93.9223601039478,88.54086023764452,206.30277341338973,10.695699805665265,81.56248982066256,4.6808433152887625
55.31988233702459,94.32853156939586,88.39761016467929,207.90526442616326,10.979933678236247,82.06641290406688,4.641078242185258
55.829995854996454,94.67487790746416,88.30253965228161,209.5529484370316,11.286217222436678,82.55607282949104,4.601905234683831
56.363122542181415,94.96106481696053,88.2547944548302,211.2447199450381,11.614273151002275,83.0294260999153,4.563426032983898
56.920763422832486,95.18708219506031,88.2531702297474,212.97930463385208,11.963621426930162,83.48444363716,4.525738193779366
57.50425577532668,95.35320794792595,88.29613825724174,214.755163923293,12.333584755075423,83.91909787526069,4.48893329357843
58.114725138566506,95.45998179425334,88.38188406312959,216.5704774556518,12.723310371548651,84.33137233115156,4.453096814381472
58.75304210799147,95.50821760922877,88.50834662718046,218.42319743485317,13.131811315943281,84.71930852116992,4.418309812428991
59.419775656913295,95.49904548102559,88.67325106127267,220.31113710745367,13.55800638619982,85.08107943091598,4.384650929487033
60.11515260797211,95.43393724159695,88.87412944999791,222.23203497279434,14.000742058164187,85.41505039090323,4.352197427456529
60.839038500821395,95.31469328900332,89.10834304708638,224.18358857210632,14.458807123567201,85.71981749048608,4.321024457042452
61.59093814278064,95.14341890733763,89.37314104830197,226.1634884057876,14.930951511539938,85.99424113993388,4.2912024906378825
62.370010314341044,94.92252196260668,89.66575526810489,228.16945074914597,15.415906374905338,86.23746185234668,4.262793710726512
63.17510187617212,94.65472483620414,89.98347853241738,230.19919597388795,15.912412624451408,86.44888690627808,4.235848564130843
64.00479936428746,94.34305890587397,90.32370646872927,232.25032373202416,16.419276444325135,86.6281693468251,4.2104037417292615
64.85747815071788,93.99083997546688,90.68398897994237,234.32011621117584,16.935440915485103,86.77518440041072,4.186482588494211
65.73133413062175,93.6016444120603,91.06211025662233,236.40536061604936,17.46002958174177,86.88999654649454,4.164098178532855
66.62440706630913,93.17927206893155,91.45613536405133,238.5022866507854,17.992339499470393,86.9728289826079,4.143259465965701
67.53461481035802,92.72767583564577,91.86437284422014,240.60664644777728,18.531805471850387,87.0240382766897,4.123981190359481
68.45979505312054,92.25087912090875,92.28528035004554,242.71383800613083,19.077967265064117,87.04408545315144,4.1062944924335145
69.39772434236929,91.75292061124138,92.71737086498612,244.81896492398386,19.63045070944211,87.03350958931321,4.090251805763226
70.34610402406857,91.23784403330772,93.15916656430234,246.91683860975485,20.188951590088152,86.99291468024424,4.075924119409222
71.30255264456613,90.70972857865843,93.60921774019208,249.00196710452929,20.753212967503696,86.9229702014557,4.063395016657454
72.26464387732096,90.17274484569562,94.06615081681608,251.06854176374702,21.323000072359857,86.8244224902468,4.052755554912004
73.22997253665261,89.63119241662801,94.52868818091494,253.11044214657775,21.89807541550309,86.69811045878784,4.044100722561694
74.19621234996238,89.08947258153779,94.99561875027251,255.1212967828647,22.478174127511767,86.54496711757888,4.037526424431104
75.16116854257992,88.55201671908885,95.46574116842362,257.0945928162947,23.062986331179893,86.36599705393456,4.033125592732591
76.12282911137729,88.02322340504399,95.93781591053903,259.0237754403049,23.65214996310243,86.16225679023678,4.030983787565264
77.07937961085645,87.50740429330195,96.41054402977247,260.90230307069186,24.245245962136373,85.93486388328377,4.031176628448466
78.0291698963693,87.00870839400737,96.88255935429079,262.72368547865415,24.841794743841625,85.68501040233059,4.03376958427538
78.97067369368389,86.53103102839204,97.35241366854106,264.4815292619911,25.441273227014676,85.41394889861716,4.038817938626584
79.90246287628672,86.07794288083922,97.81855158982971,266.1695869508958,26.043158676586536,85.12296135572608,4.046365958366888
80.82317576593213,85.65266290574688,98.27928499287418,267.7818762995046,26.64696509940042,84.81333260663574,4.05644597679867
81.73147016395411,85.25808303234399,98.7327747956636,269.3129568931454,27.252247845902136,84.4863290515535,4.069077298183208
82.62597943850821,84.89682894734996,99.17702069373065,270.7582706705337,27.858606922459693,84.14318274348287,4.084264987955595
83.50528918846655,84.57129970339705,99.60985662709116,272.11438128174615,28.465721772643548,83.78509678635402,4.101999552502203
84.36793598689559,84.28365467010917,100.02896239747704,273.37908046019584,29.07340304546412,83.41327289046168,4.122257500544499
85.21241374287433,84.03581243439626,100.4319216984607,274.5513574382456,29.68163129797115,83.02893007942397,4.145002087014
86.03717303298778,83.82951808569159,100.81632639829562,275.63122602957037,30.29056871600585,82.63330467841851,4.170184477414911
86.84061579071613,83.66641509191743,101.1798623850806,276.6195250518568,30.900548663684006,82.22765905319608,4.197745112525192
87.62109172672801,83.54804086008856,101.52033105461888,277.5178277473263,31.512064714969924,81.81330388593993,4.227613871176749
88.37689908547023,83.47576729043296,101.83564332440272,278.32842986753826,32.12576927168638,81.39161109466573,4.259708585683787
89.10630505078537,83.45075295939851,102.12384234888992,279.05430280121857,32.74246154894029,80.9640186250989,4.293932796570463
89.80759142331736,83.47392759409527,102.38315854190498,279.6990619194784,33.36305350065644,80.53204327721043,4.330173893116343
