HandOpen,HandClose,Wrist Flexion,Wrist Extension,Supination,Pronation,Rest
29.867546870956193,122.99262946735898,42.05475292233604,102.2314191111496,57.85779750857607,19.715161354553377,5.179497434813554
29.892726395666813,123.3431752066496,43.06458333906539,101.2875903518223,57.959794341765985,18.530447398288157,5.124759415019626
29.9375186435462,123.64667575306363,44.068648480903775,100.27611026080284,58.06036595045597,17.38145107535226,5.070690410850777
30.002611375087373,123.90119835783958,45.063623109263006,99.19889447625357,58.15890169682586,16.269850178882734,5.017528425740232
30.088645797740227,124.10525953458045,46.04615056003532,98.05808981223149,58.254876225629566,15.197149546116345,4.965499885523901
30.19619727947004,124.25778346110869,47.012848840122864,96.85606293761235,58.34782266036772,14.164680997023325,4.914819162331916
30.32576221885386,124.35804696043276,47.96033407114962,95.5953775664455,58.43732080732596,13.173604589096062,4.865686929575787
30.47774873576278,124.40561610214017,48.885263110196824,94.27876050842,58.523004960898454,12.224911705985752,4.818288410145612
30.65246380814406,124.40028700403255,49.78438223643766,92.90907171027011,58.604569791336665,11.31942847765246,4.772793065566932
30.850095792545105,124.34203038844974,50.654565626068845,91.4892928882446,58.68175989433982,10.457818167543973,4.729355745854717
31.070694141288662,124.23094344120898,51.49283602064473,90.02253185252046,58.75435265312862,9.640583330696023,4.688118206264915
31.314147063423455,124.06722152838331,52.29638076859186,88.5120242973209,58.82214553959731,8.868069760406593,4.649209819859434
31.580157808821475,123.85114601486296,53.0625984147877,86.96112525713018,58.88494874692644,8.14047316295589,4.612746950500943
31.868222761255925,123.58306629743788,53.789181461931314,85.37329515049157,58.94257973321086,7.457846705171634,4.578831522188406
32.17761691888345,123.26336656990304,54.474180940316025,83.75208101470879,58.99485496184151,6.820106684984503,4.5475493740829815
32.507393507608754,122.89243411925229,55.11600907528055,82.10109663771864,59.04157843552018,6.227036009531635,4.518968211843032
32.85639906189319,122.47065775460298,55.71339867455574,80.42400992554052,59.08252920270587,5.678287295278136,4.493135687764737
33.22329489568496,121.9984694186455,56.26535311153723,78.72453539024752,59.1174454531159,5.173388433456777,4.470079262892397
33.60657877924114,121.4764034767875,56.77109798130119,77.00642737168117,59.14600645192942,4.711752760544773,4.449808627453928
34.004610281861126,120.90512825609437,57.23003658105455,75.27347459793162,59.16782476264261,4.292691295138523,4.432321129465306
34.415636561782925,120.28543122562428,57.64171243304052,73.52949208935202,59.1824549538269,3.9154216756880187,4.417611871783316
34.83780823224951,119.61817596436244,58.00578327928184,71.77830733415824,59.18940526972694,3.579072317400583,4.405687165171785
35.26918810620896,118.90425954175909,58.32201485109818,70.02374619364572,59.188144957506715,3.2826844552139907,4.396574370722709
35.707769034919,118.1445919472958,58.59029460731498,68.26962585010295,59.17812761547472,3.025214966329772,4.390322906344872
36.151510373075126,117.34010347842266,58.81064532309649,66.5197526575517,59.158842939007165,2.8055415086881523,4.386998401452035
36.59838423372386,116.49176531040482,58.983219658914365,64.77790966215865,59.129866060482556,2.6224698324593785,4.386674590789666
37.04641029021685,115.60060578348646,59.108279738330545,63.04782535065279,59.09087080673958,2.4747422925498976,4.389425525220988
37.49366520742937,114.66772675277537,59.186174243378886,61.33313578878761,59.041622658846194,2.361046606205064,4.395318987911496
37.93827460491535,113.69433678519088,59.21731802322851,59.637353755809514,58.98198455975016,2.2800237942877244,4.404411691339495
38.37840569329256,112.68179289758322,59.20217501874208,57.96384506104937,58.911929757499834,2.2302751258863585,4.416746833595868
38.81226658611947,111.63161583540628,59.141245114462116,56.31580789938347,58.831535412176926,2.2103683383020805,4.432353905231663
39.23810461411287,110.54546675490191,59.035054817350016,54.6962554915478,58.74095577408609,2.2188421452797904,4.451249399963098
39.654199836349285,109.42510765539447,58.884152837650454,53.108003664274044,58.64039925800432,2.2542086625023474,4.473436772422227
40.05886237626678,108.27236372312844,58.689115017990524,51.553662486134634,58.530132327291426,2.3149556504272355,4.498905387947093
40.45044366904479,107.08909374825868,58.4505601673297,50.035628609152035,58.41050294977255,2.3995505340739,4.52762949439518
40.82735781182869,105.87717420337363,58.169167566833124,48.5560743679081,58.281953786633736,2.5064461403036407,4.559567516553923
41.188096708798,104.63850293550081,57.84568422987261,47.116933606153665,58.14502434540978,2.6340861738570682,4.594660966781927
41.53123148125024,103.37503075531284,57.4809206204953,45.71988916251245,58.0003646686801,2.780909088540114,4.632832945811721
41.855412783923725,102.0888102212223,57.07574129144691,44.36636576238304,57.848749650263336,2.945352260809426,4.673986763769592
42.15938198360905,100.7820230103691,56.631055407326315,43.05752804588245,57.691068127937626,3.1258592312459457,4.718004978936115
42.44198460920078,99.45696609051576,56.14780918470719,41.79428383703178,57.52829237664398,3.3208890952138113,4.764749632883015
42.70217277808976,98.1160329993919,55.62698160782048,40.577293869907926,57.361446915333275,3.528924402238705,4.814064296421539
42.93900001804277,96.76176055947103,55.06958514820021,39.40698559819009,57.19158114279988,3.7484754239606746,4.865777040250644
43.15162372962278,95.39695007192822,54.47667091012912,38.283566635725926,57.01974051457143,3.9780818120453367,4.919702775999999
43.3393228470902,94.02475640855576,53.849333040212265,37.20703676742705,56.84693403423616,4.2163155021744165,4.975644114894879
43.50151734779729,92.64865673714002,53.18870833008236,36.17719917517854,56.67410162447389,4.461787984596076,5.033391292789509
43.63777161832006,91.27235058477532,52.49597278229922,35.19366979126315,56.50208486955438,4.71315979836374,5.092723115710064
43.74778771415688,89.89970176152707,51.77233880519628,34.255885412564254,56.33160327741513,4.9691484187614625,5.1534103662522455
43.83140688625128,88.53476344672066,51.019055069612236,33.36311612124327,56.1632389636753,5.2285350850718615,5.215220362283098
43.8886171572425,87.18183252181652,50.23740928224341,32.51448631768394,55.9974317254429,5.490171430890026,5.277920085889822
43.91955012726785,85.84546013020531,49.428731588665336,31.708999586683973,55.834484445213064,5.752982283918261,5.341277286911762
43.92446430321851,84.53039848751972,48.59439536830271,30.945557992771313,55.67457980662778,6.015962411358031,5.405060734605529
43.90372734559775,83.24150673697856,47.73581512329801,30.222973764287165,55.51780633321558,6.27817051468431,5.469040319682218
43.85780359155954,81.98364259685188,46.85444316468013,29.539979950958557,55.36417988851716,6.538723900896868,5.532986905822741
43.787240723904866,80.76155442212482,45.95176529036549,28.895244221152662,55.2136520946359,6.7967943179996615,5.596672259204272
43.69265047494462,79.57978288474861,45.0292953634148,28.287382092717035,55.066123153017365,7.05160533463286,5.659869728934166
43.574686629078236,78.44258554422842,44.088570092598246,27.71496521886203,54.92147324194715,7.302432088563502,5.722355130566879
43.434024817971306,77.35389292254948,43.131145212901956,27.176525570338537,54.779591476961954,7.548603085376892,5.783906975110429
43.27134478673087,76.31728243770965,42.158593207956514,26.67055857367429,54.6403754193865,7.789502663753014,5.844306979395686
43.08731660642614,75.33594375783586,41.172501444759874,26.19552636717751,54.50370411841029,8.02457189889109,5.903341751166756
42.88259725861256,74.4126286924332,40.17446870886756,25.7498606310196,54.369404550061525,8.253306556985642,5.96080432467021
42.65784143298042,73.54960106341964,39.16609934140784,25.33196550233574,54.23722443786229,8.475253458643676,6.0164943317508195
42.413720470328194,72.7486031579902,38.148996810616595,24.940222072705737,54.10681669133815,8.690006931651896,6.070217600767815
42.15093918677477,72.01084949788864,37.12475971809493,24.57299416988861,53.97774374180466,8.89720550693326,6.121786111222086
41.87024262722822,71.33704579812489,36.094981023107074,24.228634205641903,53.8495181846907,9.096528845579511,6.1710185134072715
41.572410897814,70.72741725521479,35.06124768221613,23.905489037106825,53.72167820706552,9.287694478828989,6.2177415082500085
41.258247553617174,70.18174657678297,34.02513800306593,23.601905658417703,53.59385998004478,9.470453619457148,6.261791904845851
40.92856789776499,69.69944042923781,32.98821793486786,23.316236706369697,53.46583788407654,9.6445870837646,6.303018785880124
40.584190632498895,69.27961109227407,31.952039075091687,23.046848201270333,53.337537747090316,9.809903120915726,6.341285581832388
40.22593602353441,68.9211355259697,30.918138330155607,22.792130908841504,53.20902792500302,9.96623668794835,6.376471619635835
39.85463507047475,68.6226964159624,29.888037119094385,22.550511233310853,53.08048634531642,10.113448278680647,6.4084725279040375
39.47114813102107,68.38283045896317,28.863239353497377,22.32045735314985,52.952157063886816,10.251421718587656,6.437199420168048
39.076377869540195,68.19996453673689,27.84522975729482,22.100481780140594,52.82432197245298,10.380061819519252,6.462577355805354
38.67126521758026,68.07242038346632,26.83547569214352,21.88914326108749,52.69729723495608,10.499292763313056,6.484544177319708
38.25677864253029,67.99841742222053,25.83543270484922,21.6850489246195,52.5714352973716,10.609057099271364,6.503050749765731
37.83390891111835,67.97609409670754,24.846547403070137,21.486856589697013,52.44711876557273,10.709314844893242,6.518062195152646
37.40367270040344,68.00352400736664,23.870252486424018,21.29327702585747,52.324756232097,10.80004267761634,6.529558551586588
36.9671429179012,68.07870705971494,22.907956625704912,21.10307585565998,52.20478215556562,10.881233070792215,6.537534396893905
36.52551382929457,68.19955147500166,21.961033792624004,20.915075391073966,52.08764903677206,10.952893390753776,6.5419985683564015
36.08015533005441,68.3638714267185,21.030814329226597,20.728157316179118,51.973808129956154,11.015046052437599,6.5429744938857555
35.63261029504703,68.56940331870375,20.118579062874886,20.541266534649402,51.86368261571897,11.067730203028889,6.540500731025859
35.18454851527097,68.81383523634723,19.22555586092026,20.353415602584167,51.75764567441951,11.111004203690221,6.53463137936666
34.737711947387304,69.09484741224202,18.352916061661883,20.16368925614363,51.65602396819642,11.144948972248203,6.525435553261312
34.29386615747264,69.41014437961431,17.50176896831544,19.971250789794162,51.55912426286729,11.169672623687052,6.512995268266249
33.85475935074936,69.7574539561704,16.673154864117826,19.775353975009285,51.46725098155364,11.185314569553338,6.497402462175553
33.42208718902482,70.13450558727308,15.868038583182326,19.575358947128354,51.38069789109117,11.192045414144514,6.478756163382393
32.99746294683633,70.53902519703395,15.087305432312373,19.370743781540952,51.29972789352751,11.190061899313992,6.457160227068353
32.58239515040828,70.96875058501755,14.331759540057188,19.161107094099773,51.22455784118928,11.179581659412024,6.432722109632858
32.17827461259665,71.42143874290397,13.602122761386884,18.9461634271122,51.155361837715944,11.160844521848624,6.405553318186561
31.786368484030216,71.89485675893403,12.899032198967634,18.72573515448466,51.092293117287916,11.134122209400301,6.37577175294167
31.40781466128131,72.38676930813293,12.223036955194502,18.499748756712236,51.03549742120567,11.099729809430867,6.343505270926635
31.043615724157576,72.89492190932923,11.574595990448755,18.268242198168082,50.98510119155242,11.0580308423677,6.308894543017256
30.694643791501857,73.41701531923464,10.954077115236387,18.031375287972086,50.941192297090204,11.009435327166987,6.272092963305575
30.36166268402956,73.95068087713923,10.361756175761936,17.78942780259625,50.90380817592212,10.954394403589237,6.233263729668996
30.045351837595085,74.49346292901976,9.797816614115924,17.54278548297534,50.87292799382423,10.893392452297286,6.19257749444929
29.746312721575116,75.04280822237477,9.262350225206848,17.29192749107376,50.84846706437244,10.826937126968229,6.150213215183588
29.465057393060434,75.59607777374582,8.755359492052825,17.037420845504396,50.8302751805776,10.755549713968742,6.1063598259640015
29.20198964613288,76.15058897775876,8.276761512875055,16.779914577028496,50.81813959687465,10.679757929845831,6.061214605209212
28.9573865033475,76.70365405365824,7.826393366205714,16.520128500078897,50.81179453298071,10.60009108245719,6.014978319018716
28.731383819677664,77.2525888139563,7.404017948108109,16.25883957935807,50.810937788419054,10.517075602679082,5.967850786897299
28.523966857945947,77.79472302442441,7.009328940378437,15.996868242775854,50.81525047182808,10.431229318393207,5.920029572102082
28.33496456929478,78.3274422975223,6.641955046847771,15.735063460474247,50.824408251615026,10.343055336575137,5.871711375084223
28.164046085713018,78.84823756060858,6.301464974662993,15.474286611395383,50.83807440343874,10.253037607503568,5.823093705413025
28.010719260276947,79.3547351811089,5.987373943565437,15.215396088416245,50.85588032052466,10.161639567729992,5.774374981940649
27.874332446439528,79.84471343375175,5.699150841209308,14.95923396675755,50.87740553361126,10.069306541684231,5.725752932914288
27.754080706069754,80.3161096315895,5.436224204948268,14.70661444093726,50.90216480393444,9.976470491632147,5.6774220358054315
27.649015848609988,80.76701321260792,5.19798623881779,14.458313500643614,50.929610109829845,9.883552804905436,5.629571162079163
27.558058116149205,81.19564606931374,4.983795877237575,14.215060350900398,50.95915039156667,9.790962039166997,5.582382647388133
27.48000864241409,81.60033263884841,4.792981736668574,13.977531103739041,50.99017426917372,9.699087996508567,5.536032269786912
27.41356344102819,81.97946513677384,4.624844694969232,13.746344327304971,51.02206034281103,9.608295077923144,5.490688885496866
27.357328148376084,82.33147332466005,4.478660162430932,13.522057817234183,51.05418411409885,9.5189161299126,5.446515685922089
27.309831510566365,82.65480223006944,4.353680913475939,13.305166461710561,51.085935724186065,9.431247094480137,5.403676000868685
27.269537339507476,82.94789507696346,4.24914090573239,13.096101350881643,51.116741606157724,9.345543656655186,5.3623408029989506
27.234856220825638,83.20917979212797,4.16425892534136,12.895229693160019,51.14607742121761,9.262021239088064,5.322691357038652
27.20415828600039,83.43705973646082,4.098240434768838,12.702854628096542,51.173470233868166,9.180858303206373,5.2849152667751484
27.17578835977134,83.62990858565745,4.0502776832864855,12.519215009670763,51.1984915608865,9.10220110241113,5.2491996252636115
27.148084630371667,83.78606814941972,4.01954951518005,12.344485900325974,51.22074266435514,9.026167396365292,5.215724757853618
27.119399936505467,83.90384971721197,4.005222053675207,12.17877955708627,51.23983606965517,8.952848462916382,5.184659913303972
27.088121071807077,83.98154503170358,4.006450259137735,12.022146317990725,51.255381653122555,8.88231092591759,5.156160625451491
27.052681285286106,84.01745601440368,4.022378990701772,11.874575586135846,51.26698674844371,8.81459977545072,5.130366544834726
27.01156648262017,84.00994016672945,4.052142461751363,11.735997342801076,51.27427448039038,8.749742190904907,5.107399567111123
26.963319300333094,83.95745080059011,4.094863109459101,11.606284668459102,51.276914747471835,8.687750612970055,5.087362655710373
26.906543677878425,83.85855608139182,4.14965194201656,11.485258455869372,51.27465356249452,8.62862421333948,5.070338589877817
26.83991056527749,83.7119409535198,4.215611209574078,11.372694697634067,51.26733151932009,8.572349042836723,5.0563880143342725
26.762164310487645,83.51640423454204,4.29183855663981,11.268332036245681,51.254897828847106,8.518897652720614,5.04554765066179
26.672128385571362,83.27086058427781,4.377431126164215,11.171877272719486,51.23742835385241,8.468229389589412,5.037830049016516
26.568710037204283,82.97435260270214,4.471489446759289,11.083009422272033,51.215137235536275,8.420291654826556,5.03322516651807
26.450904617474375,82.62607064589665,4.573123401661839,11.001383226470624,51.188362213315564,8.375021535679762,5.031702348125123
26.317799668376466,82.22537186427842,4.68146116364539,10.926631247214086,51.157523045751034,8.332348804750632,5.033211133307349
26.168578139817946,81.77179219318124,4.795657016912874,10.85836412416121,51.123070402200256,8.29220066745066,5.037680976568794
26.002521055629575,81.26505481217893,4.914894207228548,10.796170177159988,51.08543840903825,8.254504605676209,5.045021192601121
25.819010834801784,80.70509057460531,5.038383953216607,10.73961709077114,51.04500685930304,8.219186369298358,5.055121786602548
25.617535015463208,80.09207874704958,5.16536283138494,10.688260582575484,51.0020811064528,8.186165671887306,5.0678546100718656
25.397688400572246,79.42648926712924,5.295089154267403,10.641660806901076,50.956898598846266,8.15535415940816,5.0830745144282545
25.159173383940903,78.70910162424754,5.42683927511883,10.599397204953432,50.90965872618948,8.12665704078799,5.100620776044316
24.90180072369011,77.94099383498983,5.559905127494701,10.561073420636422,50.86055372547001,8.099975791901233,5.120318739575694
24.625491516775853,77.12351188341772,5.693593370969314,10.526315225834278,50.8097766156787,8.075208580625132,5.141981901867085
24.330278389438746,76.25824159069532,5.82722560576473,10.494768451489858,50.757503064287114,8.052247613211831,5.165414878824227
24.016304291637354,75.34699607566074,5.960139198253163,10.466100063694842,50.703862609529146,8.030975109167153,5.190416514799123
23.6838188379042,74.39180680095227,6.0916890081269734,10.440001639530644,50.64891908867318,8.011260139594464,5.2167821186424055
23.33317313862018,73.39490468830891,6.221250236024771,10.416192285690574,50.592679575664874,7.9929575999775055,5.24430482313885
22.964814461696268,72.35869453888417,6.348221328294268,10.39441913421854,50.535136363917374,7.9759090997488755,5.27277607977486
22.57928073986302,71.28572756928662,6.472025660441889,10.374455829984777,50.476319472234756,7.959944744049573,5.301985043294299
22.17719426382655,70.17867144394758,6.592112329028967,10.35609938534445,50.416329000282374,7.944885630769725,5.331717614102606
21.759255664518257,69.0402783174157,6.707957283017033,10.339166146612143,50.355333456537416,7.9305485272631975,5.361756449508436
21.326239758769905,67.8733525896246,6.819065114222914,10.323488988553022,50.2935450036071,7.916753065235496,5.391881913659745
20.878992750684464,66.68072088325405,6.924970670276115,10.308916496677757,50.23119737083932,7.903328157682905,5.4218729764752585
20.418428860451105,65.46520763404052,7.025239672561672,10.29531228569507,50.16853848917739,7.890114954912365,5.45150779549013
19.945524952887567,64.22961803703977,7.119468365077804,10.282552805648782,50.10582861451599,7.8769677279778,5.480564445475442
19.46131298671637,62.97672897877691,7.207283044314501,10.270523538025186,50.04334293814672,7.863753983819185,5.508822442506502
18.96687113050102,61.709288739619346,7.288340706830736,10.25911380593288,49.9813894204658,7.850352995060959,5.5360655741658675
18.4633145373547,60.43002229268602,7.362331395597278,10.248211224106925,49.920333529652275,7.836652784409692,5.562085614556831
17.95178619594758,59.14163314030495,7.428981331311011,10.237698127338726,49.86060670213251,7.8225467100099975,5.58668574795199
17.43344820521144,57.84679476131033,7.488055116608446,10.227451312775274,49.80268922783344,7.807930192114336,5.609683419081069
16.909474027175847,56.54813325123292,7.53935657630198,10.217343961080628,49.74707425802284,7.792697887791766,5.63091319864146
16.38104188916395,55.248206820531884,7.5827292526705845,10.2072474156315,49.69422527858524,7.776741829818246,5.650228922198448
15.849329325106686,53.94948698966069,7.618056579395776,10.197031197425167,49.6445390468646,7.75995052975902,5.6675032892044
15.315508832131428,52.65434623344064,7.645260945369746,10.186561723374233,49.59831885582562,7.742208623055381,5.682624976944421
14.780744065526957,51.3650576113311,7.664302106919629,10.175701623438991,49.55575476864049,7.723396837804989,5.695495933099681
14.246185689259757,50.08380960429593,7.675175469921216,10.16431051679592,49.51690730876897,7.703392374209731,5.706031696414152
13.712966848816821,48.812728887282596,7.67790972271889,10.152246568577567,49.48169711216096,7.682070164047765,5.714164443531077
13.182199604303296,47.55389478587195,7.672563950553797,10.139368799183513,49.44990344416985,7.659306593974696,5.719845214167821
12.654973402091242,46.309338245471665,7.6592251613921345,10.125541866458885,49.42116797789122,7.634988289505201,5.723042972588207
12.132354670405345,45.0810309757867,7.638006705288174,10.11064372680449,49.39499985321814,7.609024728725567,5.723741493892645
11.615385825390515,43.870869447060294,7.6090479650200455,10.09457292665024,49.37078754234285,7.581357100848177,5.721936142004862
11.105082842790646,42.68065807300587,7.572515331598964,10.077252465182022,49.34782947825312,7.551958224517068,5.717631824980323
10.602431411504096,41.51210124373038,7.528603502705208,10.058630224868308,49.32538065272082,7.5208268988690365,5.7108418039162965
10.108382660114847,40.36680829129671,7.4775372576969605,10.038676568942295,49.30268793468909,7.487982658366909,5.701585994164163
9.623850090351983,39.246304196950284,7.419575581693878,10.017380053809651,49.27899569388735,7.453463230000229,5.689888606178448
9.149708221210464,38.15204032925227,7.355017587719783,9.994744639397458,49.25353727930106,7.417322867583323,5.675776910483765
8.686791296288856,37.085403519839694,7.284205956708214,9.970790862566814,49.225533156932265,7.379629382326579,5.65928269905187
8.23589003477255,36.047716838727965,7.207524983011957,9.945557768605438,49.19419537845077,7.340461093778113,5.640445374677357
7.797746713119546,35.04022707447776,7.125394330047568,9.91910134486407,49.15873055087169,7.299906869618391,5.619313868558119
7.373050472944248,34.06408484484251,7.038260698255677,9.891491326050764,49.11834685214839,7.258070159182546,5.595946473425218
6.9624337280689375,33.120327880876125,6.946588977291794,9.86281063572645,49.07228469364226,7.2150742981318015,5.570410456297978
6.566469286511912,32.20987307550502,6.850854453878615,9.833156836045596,49.0198730264206,7.1710652087258016,5.542782975880208
6.18566786631753,31.33351548817694,6.751537346362879,9.802641786638988,48.96057368458836,7.126210270984647,5.513152764489376
5.820476823837173,30.491929597142537,6.649119719171275,9.771388204065472,48.89398378198079,7.0806964948945605,5.481621305472493
5.471281556289355,29.68566932598293,6.544083291782659,9.73952482014609,48.81981764852065,7.034730832146631,5.448302477753771
5.138409370466866,28.91516525518855,6.436906510040753,9.70718142011141,48.73790259982258,6.9885400314477115,5.4133205325827705
4.822133706351849,28.180721976542333,6.328061865012265,9.674483460083474,48.648186769925,6.9423668438685535,5.3768076776288805
4.522677254520134,27.482520174771054,6.218016020985404,9.64154670914711,48.55073432377,6.8964642371399,5.33890258894792
4.240214011648258,26.820621140035357,6.107232084989083,9.60847323257848,48.44570951955526,6.8510900971142705,5.299750236142648
3.974870329204237,26.19496854557113,5.996170454168154,9.575348823954643,48.333389740667236,6.806502134646657,5.259502905132834
3.7267251546552314,25.60538820012361,5.885286981643376,9.542241816004834,48.21422169001187,6.7629524991440535,5.218321894912513
3.4958115388656705,25.051588291209946,5.775030596309557,9.509203866699089,48.088865703415216,6.720682785886043,5.176379581690112
3.282121349773913,24.533158920592935,5.665842537537467,9.47627208866611,47.95817828062563,6.6799195905411315,5.133861590597247
3.085611195217011,24.049570649520312,5.558156774333394,9.443471032865718,47.82315455020615,6.640870325647019,5.090967504500585
2.906206138988519,23.600176314532373,5.45239934109025,9.410813989055129,47.684876238475404,6.603719878943005,5.047908988696708
2.7438013020252368,23.18421791105486,5.348985571746055,9.37830358188433,47.544476703380894,6.568628711414906,5.004906765447473
2.598263491604469,22.800834098008217,5.248316472811417,9.345932063903492,47.4031086461173,6.535732047907169,4.96218790275587
2.46943311747668,22.449066845878125,5.150775808757973,9.313682991856755,47.26190653622302,6.5051395884924155,4.919982714551608
2.3571249761853537,22.12787104298416,5.0567280918608715,9.281535094421361,47.121949704657894,6.476936619247664,4.878520573657182
2.2611270374917565,21.836126865067715,4.966516266340717,9.249465699041858,46.98423099467187,6.451189379083215,4.83802558037887
2.1811975124676644,21.572650494178653,4.880458378815905,9.217450897468483,46.849630702831824,6.427954630555906,4.798712728274833
2.117061279339638,21.336200824787156,4.7988443042847235,9.185463590884899,46.71889634159326,6.407287350998498,4.760784274141444
2.0684071038631506,21.12548395243354,4.721933539109454,9.153472551652309,46.592629662256314,6.389242146559978,4.724427156602974
2.0348866818913347,20.93916100837338,4.649953517305003,9.121444502936138,46.47127997142323,6.37387046165901,4.689812407393132
2.016115771378406,20.775861512940125,4.583097864794836,9.089349438978443,46.35513987458629,6.361216572377675,4.657095396159142
2.011676647354994,20.63419524686369,4.521525201082245,9.05716646098575,46.24434350742999,6.351313611224922,4.626416083440054
2.021121229566867,20.512756131651482,4.465359113807616,9.024885723455395,46.13887322266413,6.344180645529515,4.597900367781351
2.0439766387862335,20.41012107014677,4.414689120124214,8.992505535507224,46.03857998927923,6.339821357755104,4.571662986276124
2.0797537539048845,20.324849227233518,4.369572580858919,8.96002798824554,45.94322355812341,6.338223800956458,4.547811094291943
2.127954301833713,20.255482427847234,4.330037792295632,8.927455890307968,45.85252935581697,6.339359969047314,4.526447253589424
2.1880733951922684,20.200545582231154,4.296087332826706,8.894790419548876,45.76623314357688,6.343184834712368,4.507670258027457
2.2595999527621924,20.15854814468921,4.267700092278333,8.86202805018718,45.68408848985893,6.349636071850331,4.491573230099708
2.342017569527293,20.127988355860264,4.2448327536462465,8.829157761972066,45.605850924197036,6.358635173568628,4.478240472248739
2.434805892367254,20.107359883787275,4.227423394563595,8.796160839715593,45.5312637907047,6.370089302162757,4.467744580921924
2.5374414544259754,20.095158199795524,4.215396636754634,8.763013341094293,45.460048067323825,6.383893044326666,4.460143428814558
2.649396987981237,20.089884920278593,4.208666595795297,8.72968935076803,45.39189333951901,6.399929397367245,4.455476293758305
2.770140204301276,20.090051004645,4.207136775525537,8.696164685352024,45.32648064615791,6.418070938347326,4.4537599194280055
2.899134753433548,20.094180636518505,4.210699106907411,8.662422387072407,45.2635865607552,6.438185602780163,4.454985967204219
3.035844184386143,20.100817263014005,4.219233266851591,8.628459164188055,45.203243723447805,6.46014842986959,4.459120893434524
3.1797359982118105,20.108531732041087,4.232606387932367,8.594289359541074,45.14584774262451,6.483851463471922,4.466108647354777
3.3302826035995525,20.115929860192693,4.250673243417525,8.559944373876368,45.092158016583255,6.509205321575016,4.4758752411033305
3.4869596042648463,20.12165712077247,4.2732769683573375,8.525468505634171,45.04324211843714,6.536136627175109,4.488332890953805
3.649244119662552,20.124401454972176,4.300250762417707,8.490913684938567,45.00040437554205,6.564587505714256,4.5033825327415755
3.816615209761538,20.122896408057684,4.331420377677047,8.45633487848646,44.96510427487783,6.594516626263052,4.520916197902715
3.9885569726777796,20.115925564913084,4.366605725628241,8.421785983965732,44.93889621806414,6.625897676062321,4.540820734001996
4.164562562297328,20.102328102979094,4.405620394059552,8.387315385120182,44.92344214308889,6.658713721336423,4.562981616365876
4.3441360504567665,20.08100420350569,4.448270155861424,8.352961585131993,44.92058885415135,6.692950332431465,4.587284604315213
4.526791555742857,20.050919829790004,4.494352591132202,8.318749939703153,44.932421610766326,6.7285916110641,4.613614799485461
4.712052601100384,20.011113723504828,4.543658451721873,8.284691578244841,44.96124097217283,6.765619876709348,4.641854282064731
4.899453572586802,19.96070875975477,4.595973489647141,8.2507868521214,45.00951470129458,6.804016180715377,4.6718797190698
5.088540978001722,19.89892322291918,4.651079831368536,8.217034321039517,45.07986860760685,6.843759863596464,4.703561221118026
5.278872223683522,19.825076201894746,4.708757509195198,8.18344166159478,45.175120788566005,6.884828559236072,4.736763468328975
5.470012665203708,19.73858869276701,4.7687862383134965,8.15003374054795,45.29833690093169,6.927199377412249,4.771348813492823
5.66153198925261,19.638985431177982,4.83094615209168,8.116855771655779,45.45287056545183,6.97084899686667,4.807180596602576
5.853000535177043,19.52589760837904,4.895017410753474,8.083971972410106,45.6423466950944,7.015751379462492,4.844125357648596
6.043987005577062,19.399064272525628,4.960781071146144,8.051461631222454,45.8706073921815,7.061875347040992,4.882053976303409
6.234058185191166,19.258333074987185,5.028022194935047,8.019413923974241,46.141673439629585,7.109184126220946,4.920841915267322
6.422779378439875,19.103661853699247,5.0965320240480825,7.987922059136891,46.45969633160982,7.15763583748653,4.960368592058852
6.609714906246672,18.93512062524644,5.166106650119261,7.957078325245895,46.82885733881316,7.207183263900054,5.0005161865691905
6.79442934086963,18.752891591532876,5.236544203146085,7.926971720095596,47.25325591080341,7.257773584670017,5.041168011368263
6.97648920619535,18.55726402033456,5.30764427194973,7.897688675956727,47.73684025158858,7.309349987248995,5.082206828860453
7.155464369720833,18.34862356062733,5.379210380855547,7.869315619620743,48.28336498324052,7.361855330532138,5.123514649676084
7.330929446405451,18.127439531959265,5.451052483185999,7.841940001322384,48.896343527657365,7.415235252111386,5.164974831854236
7.502465203357883,17.894254340755086,5.522986582249409,7.815648019780746,49.57899195671454,7.469438057462577,5.206475481565112
7.669658736872092,17.64967675793808,5.594832287195266,7.790521177849377,50.33416811264952,7.524411983819447,5.24791425978541
7.832101982851129,17.39437770061589,5.666411979994825,7.766633435686197,51.16429884822538,7.58010213242153,5.289205325541879
7.98938999376849,17.129085065760542,5.73755551238669,7.74404836589415,52.0712994749709,7.63644773241462,5.330285310738843
8.14112164662192,16.85457522491303,5.808109735511988,7.722816234253046,53.05650917291267,7.693379192371198,5.371113908200781
8.286906129327445,16.571662408825215,5.87794556310976,7.702971625564369,54.12065789816513,7.75081490913727,5.41166962353269
8.426376200876895,16.281189062595903,5.946956918777262,7.68453130160685,55.263866402846254,7.808658494548091,5.451944479637783
8.55920321507896,15.984018864291787,6.015054141975485,7.6674923054507,56.48567348031851,7.86679681997028,5.491939707218149
8.685106521404325,15.681032122440392,6.082157038150274,7.651830998964518,57.78506537585648,7.925098245941059,5.5316625783572295
8.80385468840535,15.373122198086941,6.148189517435605,7.637502767084277,59.16048213077338,7.983411602842346,5.57112381730832
8.915261346677358,15.061191695107246,6.21307576176338,7.624442566656819,60.609807367886205,8.041569620886198,5.610334713058224
9.019179657953536,14.746148077607186,6.276737577305837,7.612568073958686,62.13036909031809,8.099398390173329,5.649304039951289
9.115498032486379,14.428898585666337,6.339093175320895,7.601786677058734,63.71896542773547,8.156727389967587,5.688036098138991
9.204137591116144,14.11034409137671,6.400058908775657,7.59200508754282,65.3718979609153,8.213393850308904,5.726531197003199
9.285050664303887,13.791372305298259,6.459553937707179,7.583137265484237,67.08498869366277,8.269241732298726,5.76478839859564
9.358219867540402,13.472851499207934,6.517504088927506,7.575107030005521,68.85358134069259,8.324119042476793,5.802808433175928
9.423657366576053,13.15562501764321,6.5738418729043575,7.567846683590203,70.67254348349162,8.3778758695057,5.84059534733147
9.481404013122383,12.84050584554146,6.628504038203167,7.561294701994456,72.53628405501087,8.430364539738335,5.878157354992328
9.53152890444664,12.528271316509523,6.681429325744544,7.555393240016847,74.43879037278451,8.48144191005459,5.915506882403197
9.574129809942164,12.219659523661882,6.732557105456091,7.550085394707259,76.37367655904313,8.530972553599824,5.95265873146911
9.60933413201698,11.915369629137082,6.781826490547154,7.5453132684896875,78.33423739675266,8.578834915662014,5.989626331861603
9.637300117666955,11.616066441067105,6.82917572686463,7.54101902393233,80.31350519767963,8.624933697355704,6.026417855938961
9.658217675884716,11.322386635395969,6.874541687858829,7.537151610532673,82.30429894243473,8.669213689504993,6.063034869145759
9.67230800870921,11.03494525839807,6.917859200317579,7.533678533383303,84.29925905916326,8.711665701438555,6.099474975941762
9.67982183582801,10.754343008734649,6.959060521904503,7.530595548209861,86.29087511405974,8.75232236342266,6.135736194141551
9.681035788445106,10.481171165235535,6.998076042458348,7.527927554750464,88.27151936082275,8.791248537132244,6.171819006176368
9.676246932721927,10.21601028696501,7.034837196253453,7.5257218516126265,90.23349509284458,8.828530575033557,6.207724986321256
9.665766647293209,9.959425187780058,7.069281806091243,7.524038635964065,92.16909108469488,8.864266161792708,6.24345346970404
9.649915007064283,9.711960465800948,7.101360094483786,7.522942386801206,94.07062321010739,8.898555746238884,6.2789973631832945
9.629015933310333,9.474135610003302,7.1310380079266285,7.522496959071046,95.93046112213544,8.931496096802642,6.314339151644549
9.60339317805319,9.246437817271664,7.158296650379334,7.522764603944482,97.74105340155089,8.963175572173544,6.349448502157775
9.573367322652684,9.029315783947045,7.18312989138305,7.523805096301298,99.49495791981269,8.993670477944693,6.384281772718651
9.539253380982233,8.823180238517745,7.2055424106991355,7.525671852360646,101.18487237393096,9.023042116039672,6.4187825598758925
9.501358123335958,8.628411468878966,7.2255490716129165,7.52840647776091,102.80366016453546,9.051334062135192,6.452882424696205
9.459977084695614,8.445365390864803,7.243176056377351,7.532034715731408,104.3443746330616,9.078569562177014,6.486501226752471
9.415391913668602,8.274370739377293,7.258463542440535,7.536564574430378,105.80028669035256,9.104749772775875,6.519547149410421
9.367868459487955,8.115719884112254,7.271467677273217,7.541986014584015,107.1649172752897,9.129853695228167,6.551917573175822
9.317655639925519,7.969659769296578,7.282259355293408,7.548272071327864,108.43207609379672,9.153840196256837,6.583501319215869
9.26498484207983,7.8363854486385875,7.290920525031579,7.5553814162060755,109.59590630348758,9.176651585077135,6.614180767569256
9.21007018656142,7.7160353523870295,7.2975413756658405,7.563262471201623,110.65092644784345,9.198217064560815,6.643832765361898
9.153110450729814,7.608687287909265,7.3022213931994315,7.571859269143315,111.59206267012219,9.218455088860217,6.672329491170197
9.094291915176385,7.514354488136418,7.305074218503877,7.581116609761979,112.41467714912609,9.237275073600504,6.699540091883729
9.03379043084843,7.432981696167892,7.3062317108957355,7.590980894641164,113.11460060388026,9.254578291610455,6.725331983292171
8.97177281826245,7.364443042634816,7.305842528312181,7.601397962467379,113.68816769952467,9.270257426101185,6.749571049811132
8.908399189160402,7.308543392980213,7.304065964034409,7.612312442963248,114.1322476587497,9.284195458338475,6.772121357350558
8.843825980477659,7.265021765401285,7.301064848654772,7.623669447762385,114.44426071807045,9.296265268097008,6.792845025016716
8.778207076892725,7.233553744826907,7.296999702433376,7.635415973734357,114.62218180312178,9.306332818945696,6.811602509329813
8.71169172638599,7.213752026640002,7.2920240103472675,7.647500557479173,114.66455142461625,9.314268369053359,6.828253771019195
8.64442231211845,7.205166720302199,7.28627982414942,7.6598724566346865,114.5705080543002,9.319964300935087,6.842660690791092
8.57653692147633,7.207287291553246,7.279894259580771,7.672482761713863,114.33983002308116,9.323349078935067,6.8546901957295905
8.508176594207868,7.219547241398073,7.272978152598112,7.685287739601868,113.972966380187,9.324390180041902,6.864217369882392
8.439490699521853,7.241331012791772,7.265626380278822,7.6982514974102125,113.4710446722633,9.323089692841911,6.871128223450352
8.370636478031955,7.271981716849995,7.257918195150572,7.711345600123412,112.83586473587752,9.319478036403774,6.875321451596449
8.301775844908693,7.310812162319357,7.249916766887693,7.724547014244508,112.06990699353834,9.313607310230838,6.876708923509918
8.23307284567233,7.357125881196511,7.241668371833847,7.737837288867795,111.17635464838744,9.305545521524069,6.875215794688237
8.164691545484375,7.410247859311156,7.2332025450767805,7.7512035688498875,110.15909053916768,9.295374726484564,6.8707808419211425
8.09679362618195,7.469551396246607,7.224533709638688,7.764639184118704,109.02265019324145,9.283196035360858,6.863356828524132
8.029536189475463,7.534467619456448,7.215662780071058,7.778141710394097,107.7721470055278,9.26913942658075,6.852910741246309
7.963070036487678,7.6044788678057875,7.206577378195536,7.791709403024227,106.41318621222126,9.253369962573732,6.839423906246901
7.897538231557873,7.679107113250086,7.197251198895445,7.805338938482112,104.95177666225388,9.236084550843653,6.822891991615775
7.833075466923452,7.757905147078263,7.1876436582882475,7.819026024985443,103.39424744308673,9.217501682179156,6.803324903959289
7.769808094955844,7.840450839635061,7.177700473521131,7.832767532436665,101.74717659391307,9.197849786669073,6.780746721916632
7.707853218646347,7.926342916343274,7.167355145750992,7.8465622509878035,100.01733575831416,9.177359118394396,6.755196187931104
7.6473170342257,8.01519912142689,7.156530358345552,7.8604086200534695,98.21164285218883,9.156259226262373,6.726728036978886
7.5882946298991785,8.106657303352085,7.145138349324009,7.8743008388364055,96.33711103405747,9.134778584043794,6.6954138836058625
7.530871389373373,8.200376825712407,7.133080726903506,7.888226573639645,94.40079739094443,9.113141649815644,6.661340682798156
7.475124196546935,8.296037906255433,7.120248798247565,7.902167506200427,92.40976771295223,9.09156346988279,6.624606949648947
7.421121513521386,8.393338724859186,7.106524869478943,7.9161000325586945,90.37108071439316,9.070244813842915,6.5853192336554205
7.368922407458683,8.4919904843896,7.0917847368290206,7.929993372499351,88.29177528992183,9.049368920859216,6.543590206451863
7.318574743754756,8.591711834854213,7.07590111834195,7.9438064218309075,86.17885467613605,9.029099224901856,6.49953727899097
7.270113146573083,8.692225859437832,7.058747800994016,7.957485950065929,84.03927639018744,9.009577257966997,6.453281125980836
7.223558171568117,8.79326015945902,7.0402059259072916,7.970966486074726,81.87994453110355,8.990919671678597,6.404945101619545
7.178917849320245,8.89454636032187,7.020172849812361,7.984171194068745,79.70769458275649,8.973214074330516,6.354656198533172
7.136190876683638,8.995816725125765,6.998571176345143,7.997013152289593,77.52927094195806,8.956514816860413,6.302547105220246
7.095369750561323,9.096799834015089,6.9753561146009355,8.009396546698337,75.35130129856967,8.940839930430576,6.248758029224398
7.056443397572031,9.197217625886358,6.950520088032224,8.021218194365066,73.18027118502096,8.926169910493405,6.193437064916467
7.019400294887793,9.296783896332768,6.924093081275698,8.03237053965267,71.0224969624619,8.912448883940028,6.136739488267313
6.984232611309286,9.39520362769886,6.896139054601793,8.042747161480671,68.88409101847098,8.899588554343756,6.078827122395445
6.950940017661291,9.49217289896451,6.866750528055939,8.052251045883674,66.77092145340322,8.887475059005391,6.019867894205816
6.919530982898893,9.58737929519263,6.836042953136788,8.060803335556649,64.68857841427551,8.875977163655307,5.960035270921284
6.890022253805568,9.68050260685306,6.804149659901625,8.068348233962624,62.642355975183136,8.864952177110073,5.899508136975663
6.8624411807867025,9.771215371846912,6.771218016770175,8.074852224145141,60.63724588165687,8.85424788716893,5.8384714250280965
6.836832744926137,9.859183033526712,6.737407033974723,8.08029999317575,58.677928857971196,8.843702720709219,5.777116524331362
6.813265668922426,9.944063943109903,6.702885221686589,8.084690429995444,56.76875322504656,8.833148394056142,5.715640401890299
6.791832495511879,10.02550953161746,6.6678270532271755,8.088034364578268,54.913706125985215,8.822420652268137,5.65424313297076
6.772646468484964,10.103166131965502,6.632408069497586,8.090353620567456,53.11638876230105,8.811378311701105,5.593124301311914
6.755840161409161,10.176682063904536,6.5967999020389065,8.0916796557227,51.37999977210081,8.799920187417348,5.5324792103956515
6.74156539214019,10.245722149882155,6.561165993517443,8.092050796622207,49.70732581220486,8.787992775072528,5.472495546285009
6.729990503413242,10.309985595546129,6.525658237534791,8.091508773799355,48.10073833936006,8.775592769685632,5.413350604439911
6.721293214351398,10.369219097888957,6.490414841673169,8.090095691266754,46.562194730891406,8.76276648762081,5.355208894787313
6.71565091378195,10.423220505855557,6.455559507161335,8.087851809881215,45.09324405869934,8.749603601795313,5.298220781757831
6.713232009105895,10.471836014764618,6.421201572970498,8.08481362999214,43.69504243519645,8.736226703473596,5.242525385045496
6.714191541008953,10.514958317503869,6.387436955192646,8.081011985714413,42.36838177023912,8.722780582650595,5.188259616470568
6.718671717011472,10.552528910298877,6.354349728718426,8.076470865585373,41.11372669170971,8.709422794933609,5.135568130574981
6.726804694784919,10.584539639186191,6.322013401422947,8.071207260623028,39.931245022665316,8.696315698292226,5.08460773405363
6.73871458176592,10.611028404729442,6.290490839725096,8.06523159060344,38.82082202130223,8.683620497299128,5.0355469009564855
6.754518759304652,10.632070805672498,6.259833238894734,8.058548737350849,37.78206448677365,8.671494109802328,4.988564258054615
6.774330660568359,10.647772233106362,6.230079966676815,8.051160102602754,36.81430775166899,8.660088255470034,4.943847318755353
6.798263138900115,10.65826220121221,6.201260351150089,8.043066604440797,35.91663045433659,8.649548342397164,4.901590881094333
6.8264279183548835,10.663690442026356,6.17339608453794,8.034271439086888,35.08787119446805,8.640011397046646,4.861994214297316
6.858929278629255,10.664223808728964,6.146502468911314,8.024781381126429,34.32664262518402,8.631605554221252,4.825256885597265
6.895856127051232,10.660043195733746,6.120588564680117,8.01460659317318,33.631346838140054,8.62445205057165,4.791574353427318
6.937278862174959,10.651340102605873,6.095657258862227,8.003759489713376,33.000193669772905,8.618666519502938,4.761134390429028
6.983253330464889,10.638312411836235,6.071705813955028,7.99225406525024,32.43121588581358,8.614356985951687,4.7341150578650595
7.033826313752128,10.621159183512658,6.048726804628534,7.980107235631092,31.922278121524354,8.611619613165008,4.710685065346901
7.089035268545738,10.6000755476183,6.026709087999741,7.967340576319671,31.47108566797489,8.61053432395418,4.691005664324456
7.148903113821346,10.575249391795692,6.005638516906307,7.953979370117354,31.07519902318437,8.611161224194705,4.675231456112937
7.213435309432762,10.546859983356097,5.985498433730144,7.940049201269988,30.732050805572502,8.613537899285904,4.663508808130202
7.282623608490205,10.515076710872334,5.966271196934556,7.925572773524054,30.438957868748137,8.617677494139388,4.65597234641679
7.356453169304944,10.48005714083028,5.947942688989673,7.910568459950829,30.193127456474503,8.623567492765027,4.652739810264928
7.434905652569484,10.441945507158634,5.930509441866452,7.895050161345606,29.991662107269637,8.631168983486884,4.65390567365017
7.517955333193311,10.40087186342203,5.913984644007898,7.879028375182321,29.83156758176436,8.640415957768461,4.659534841501066
7.6055618887507235,10.35695126265392,5.89839985761583,7.862514266773578,29.709764265515915,8.651214410581662,4.669657630481352
7.69766413963998,10.310283530300625,5.883803046219728,7.845527198224798,29.623100046694557,8.66344173554972,4.684267275912068
7.79417632550578,10.260954352445031,5.8702550943756995,7.828102226123982,29.568363136276762,8.676948979341098,4.703321883979702
7.894987222979219,10.209036620098924,5.857826359799096,7.810293494368655,29.542295467051286,8.691571242752735,4.726750419413432
7.999961221742183,10.154590618292099,5.846594382276849,7.792172433119005,29.541610147242352,8.707146595124764,4.754457985105587
8.108939249604235,10.097663959581597,5.836642836054174,7.773822541877813,29.563017339898302,8.723532663832112,4.786326801737694
8.221738234306475,10.038293625249585,5.828060421432422,7.755333492664096,29.603256542695984,8.740610995089938,4.822215176979339
8.338149683577523,9.976511461178452,5.820938633382114,7.7367965337323765,29.659124938819993,8.758282282347025,4.861958401236202
8.457938688830495,9.91235239960309,5.815368916418246,7.718301438005895,29.727495053835995,8.776460842766694,4.905371905721997
8.580843735840123,9.845862587912235,5.811440176851734,7.699933276268484,29.805325844843246,8.795071680819564,4.952254612694057
8.70657735153523,9.777104439709955,5.809236493874786,7.681767753956071,29.889674483473634,8.814049165649367,5.002391052954677
8.834829220174838,9.706157981209346,5.80883449324261,7.663866550072245,29.97771080578322,8.833335958561824,5.055552326687074
8.965273189968329,9.633120482114625,5.810300631991822,7.646274514478552,30.06673069395792,8.852881344954694,5.111497479008268
9.097575868997334,9.5581079193827,5.813689007980791,7.629018313780882,30.154164260501172,8.872638563721779,5.169976293466995
9.231402729572583,9.481261674795343,5.819040188550422,7.6121049495259925,30.2375787946749,8.892561770421057,5.230731587260926
9.366420324365732,9.402759348501242,5.826381039068345,7.5955199499957295,30.31467909731686,8.912603569464688,5.293498910226402
9.502295978831102,9.322824086583932,5.835724706332427,7.5792268416776745,30.383306848454104,8.932712923750248,5.35800469028476
9.638696119667996,9.241731249048206,5.84706992979128,7.563169189350844,30.441438739639505,8.952833281136542,5.423964925021705
9.775283129944317,9.159814475973022,5.860399695986754,7.547274719975281,30.487184390554912,8.97290295049766,5.491084907003778
9.911711078351503,9.077466606857037,5.875680074908054,7.531460281153099,30.51878867312193,8.99286015709888,5.559059415702695
10.047621985328153,8.995130615838354,5.89286032739906,7.5156363239860156,30.534641857989275,9.012650474205937,5.627572769996581
10.182643707485841,8.913285194710783,5.91187460864546,7.499709439180912,30.53329520438589,9.032230504671137,5.696298791274874
10.31638894347501,8.832433340462297,5.932644826182709,7.483582590630761,30.51347519344596,9.051566124899184,5.764902073692677
10.448455208341722,8.753096527896545,5.955083997923894,7.467154421845281,30.47408842236344,9.070629292194527,5.8330420827012475
10.578426853059666,8.675809845897408,5.979098887112166,7.450319316693417,30.414214591683674,9.089396032953534,5.900379508405947
10.70587929274285,8.6011139073122,6.004590656003843,7.432968761051044,30.333094233231236,9.107845292249758,5.9665824634087485
10.830383502964924,8.529545187615069,6.031454035764154,7.414993073165376,30.230119818204248,9.125958099065546,6.0313305541335644
10.95150865003741,8.461627129333285,6.059576800021371,7.396282733604895,30.104832907103862,9.143716055677434,6.094316469030194
11.068822633776326,8.39786134415821,6.088840048776511,7.3767299110234426,29.956923311008538,9.161098085442484,6.155245918217373
11.181891753004015,8.338718240964662,6.119118483539524,7.356230259003181,29.78622422699788,9.178076364027998,6.21383704116425
11.290280362717684,8.2846276361876,6.150280411537092,7.334683685077422,29.592704854312583,9.194614103247094,6.26981993287498
11.393551503624893,8.235970760265904,6.182187947039082,7.311993320379809,29.37647273039215,9.210666522852206,6.322936411445203
11.491270910360551,8.193075475909245,6.214698058978158,7.288063312040907,29.13779031074945,9.226183064150769,6.372939987515847
11.583016296397135,8.156214379776046,6.247664978409991,7.262796511158183,28.87708849456524,9.241108150092103,6.419596405483474
11.668390380840119,8.125603035731183,6.2809434104302175,7.236092801056924,28.594960577408205,9.255380618859316,6.46268585894336
11.747032938191944,8.101396772854686,6.314390861291713,7.207849476006387,28.29214177575055,9.268934124896084,6.50200707001998
11.818627076011786,8.083687508479175,6.347868257058238,7.177966678308908,27.969487054034147,9.281699143488085,6.537381453680646
11.882898900946582,8.072503417642622,6.381239835906126,7.1463587616734445,27.627952684785825,9.293604360219973,6.568656043727857
11.939614337211403,8.06781316141208,6.414373128711129,7.112966755054743,27.268581319542083,9.304575779967449,6.595705066135699
11.988576493217229,8.069533415393254,6.447138743722326,7.077766194750317,26.89248844310593,9.314534810347121,6.618429817414202
12.029623090783389,8.077536846137235,6.479409862526642,7.040769374917222,26.50084886717831,9.323397582611767,6.636757139742719
12.062622613790863,8.091660493604966,6.511061648045383,7.002024315702509,26.09488339558042,9.331076387871782,6.650637704325859
12.087470407237557,8.111715457761324,6.541970324655874,6.961612248763398,25.67584577778799,9.337482281296667,6.660045366554262
12.104087088649212,8.137494393587358,6.572011877053649,6.919644034267627,25.24501005296301,9.342526974664123,6.66497833366544
12.112420210673418,8.168773453013687,6.6010612801102555,6.876255733930143,24.80365823772641,9.346123035650919,6.665460819422286
12.112447984347837,8.205310631483187,6.628993672164015,6.831603677706683,24.35306805504822,9.348183382697151,6.6615430097315045
12.104182018766123,8.246844349917884,6.6556884524912086,6.785859719339448,23.89450195813721,9.348621707689897,6.653299081664043
12.087667012314661,8.29309580234098,6.681035556886763,6.739208331763365,23.429199949600342,9.347353787783698,6.640823914100708
12.062979012654385,8.343776526570219,6.704941090356312,6.691845640798824,22.958377092622843,9.344297877880374,6.624229307863095
12.030225486102124,8.398597142111502,6.727329884373358,6.643977465442536,22.48322433375131,9.339373671587364,6.603641748303852
11.989548317717464,8.457271343744562,6.748145075840894,6.595814398162851,22.004911991291387,9.332503093783668,6.579203478361984
11.94112708030542,8.5195139273269,6.767346329344185,6.5475657625743775,21.52459763046929,9.3236174479498,6.551076368078581
11.885179036673074,8.585036019990488,6.7849075104436976,6.499435328095136,21.043436798978327,9.312670154882856,6.519445939805408
11.821956295395415,8.653540700939221,6.800813263103726,6.451618939049459,20.562593959218493,9.299647712034368,6.4845224384046425
11.751742816660613,8.724720257897705,6.8150548802410915,6.404301989573188,20.083261982192983,9.28457260684828,6.446538083206469
11.674851713667326,8.798255392700302,6.827627561285502,6.357656009618175,19.606693736589055,9.267498354148056,6.405742710409289
11.591621991215066,8.873815921539848,6.838530201790682,6.311835542283912,19.13422403812681,9.248501003156255,6.362399776575281
11.502414710176879,8.95106175994475,6.847766844312594,6.2669761390477134,18.667264639719715,9.227671679857883,6.316782433729449
11.407608852726147,9.029644146993306,6.855348100725742,6.223193588761764,18.207285279881503,9.205111713841431,6.269169306977471
11.307597392232188,9.109207743275563,6.861291165726986,6.180584318919464,17.755802101952806,9.180928729856628,6.219840359803642
11.20278424943232,9.189392749442499,6.865618944452044,6.139226492094534,17.31437880170846,9.155232504292767,6.169073028775258
11.093581594944913,9.269836211602778,6.868359955642842,6.09918125982672,16.884629888486597,9.12813110496035,6.117139045950678
10.980406782927586,9.350173064954669,6.869548592540394,6.06049386694281,16.468218841339947,9.099727736371468,6.064302416782921
10.863680507141032,9.430036963560923,6.86922404019042,6.023194222595068,16.066853345552442,9.070118490593408,6.010818104694992
10.743828404578737,9.509060126691645,6.867428786878717,5.987296905244959,15.682274710940979,9.039391288623989,5.956930638959799
10.621285421505805,9.586872539479637,6.86421075164659,5.952801397754154,15.3162440930323,9.007625954045412,5.902873227861775
10.496499079106602,9.663102149819244,6.859631564838582,5.919693875121082,14.970538282736506,8.974895080457136,5.848869332801296
10.3699278254283,9.737376706776601,6.853777401696569,5.887952406456984,14.646948258371932,8.941264589386801,5.795136493675864
10.24203442933612,9.809325705587728,6.846765853227163,5.857555940206172,14.347259603353134,8.906793354288796,5.7418886708050065
10.113277589658532,9.878581182905041,6.838746692783885,5.828493641050024,14.073218658014223,8.871533564045222,5.6893347568026025
9.984104525686732,9.944778387261815,6.829898417694328,5.800771896389371,13.826513030637575,8.83553331320684,5.637675339348486
9.854945849537216,10.007557839445335,6.820422043124609,5.77442008535731,13.608778220206457,8.798840153431534,5.587101072380259
9.726212934375082,10.066568637993374,6.810533003168267,5.749494393076213,13.421605763480434,8.761503604703277,5.537793338365731
9.598296693371562,10.121471647328939,6.800452576080996,5.72607667878769,13.26652874743129,8.723576227081786,5.489924739396738
9.471566725003221,10.171941861074608,6.790400413683172,5.704268888610467,13.144989219879934,8.685113357888833,5.443657275410248
9.346371591408154,10.21767059319368,6.780589046507173,5.684186206054086,13.058300496448009,8.646171353577571,5.399139077546345
9.223040970529212,10.258368300360262,6.77122050508561,5.665950763742024,13.007611726306067,8.60680545207881,5.356502465237541
9.101887544003034,10.293768540567084,6.762484867036317,5.649686047448553,12.99388316564045,8.567068987364296,5.315865158936591
8.983206202679797,10.32363480750819,6.7545595944173655,5.635511687041872,13.017879435707442,8.527014398391623,5.277333243317579
8.86727148862757,10.347772681859311,6.747607909633203,5.6235389253903305,13.080178408421313,8.48669541224884,5.241002805089748
8.754335682859159,10.366044984333497,6.7417762889131065,5.613867537157769,13.181182548914704,8.4461687889495,5.206960329405664
8.644628548568656,10.37838120095382,6.737193051908034,5.606584128334742,13.321118129011495,8.405494317862848,5.175287359024501
8.538357900954491,10.384775906981126,6.733968426296508,5.6017613314934565,13.500020246499203,8.36473527627799,5.1460740958003734
8.43570963575853,10.385281151816887,6.732193934511342,5.599457892233582,13.71771902871729,8.323962633355459,5.1194362472139945
8.3368470582696,10.379999811408176,6.731939630266017,5.59971881545124,13.97384728619059,8.283261274913865,5.095523758817615
8.241910074606178,10.369080876369708,6.733250056438099,5.60257421571918,14.267868983369803,8.242733549572657,5.074518253885591
8.151014437365559,10.352714321324433,6.736140746953772,5.608037414933592,14.599103249023788,8.202498916541547,5.056624371009499
8.064251338543446,10.331124728295258,6.74059689060483,5.616104100259995,14.966729721741741,8.162691476594736,5.042059895639195
7.981687583901011,10.304565047211472,6.746574764029329,5.626753056976879,15.36978712064307,8.12345688030248,5.031046818186089
7.9033668008122255,10.273311760491849,6.754004754893508,5.639947514210059,15.807176092784616,8.084950658770454,5.023803563142036
7.829313111983963,10.237661110939209,6.762794440923574,5.65563576535416,16.27766472558628,8.047339215304781,5.0205376288891745
7.759537313210266,10.19792582808407,6.772831552041989,5.673749984387668,16.779893737655694,8.010800107966322,5.021438695621012
7.69404336923247,10.154431750390716,6.7839870803954225,5.694203745922755,17.312380677111914,7.97551793770509,5.026673195469624
7.63283424322124,10.1075130444767,6.796118748997066,5.716891126524201,17.873520299353483,7.9416781966533305,5.036380865855812
7.57591666808874,10.05750620965213,6.809075407218186,5.7416898439489295,18.46157862164577,7.909463748185567,5.0506727328986685
7.523302388254124,10.004745485771155,6.8227015775835,5.768466709059098,19.074687943481127,7.879054458968489,5.069629239068492
7.4750051355762235,9.949561915510596,6.836839889523297,5.7970812285642985,19.710856354564154,7.850627238152525,5.093298143326618
7.431037691189548,9.892284720009338,6.851331076831315,5.827386699129565,20.367991806798592,7.824354642518405,5.121693116286156
7.391412856614022,9.833240872624842,6.86601389072546,5.859232359297401,21.043923340757775,7.800402061454634,5.1547930969957685
7.356146239396866,9.772751305108354,6.8807265788008936,5.892468405429271,21.736408812484395,7.778924875482624,5.192541777520221
7.325257483890109,9.711126052520603,6.89530921662935,5.926951228086586,22.44313744914497,7.760068218205254,5.234847374662578
7.2987700663528985,9.648660243715632,6.9096053446724985,5.962545754378042,23.161735343302706,7.743971035022749,5.281582815557064
7.276709777689874,9.585630858954286,6.923462064639102,5.999124840429248,23.88977084013311,7.730771948785677,5.332586299176034
7.259100395842234,9.522293639640177,6.936728880176468,6.036568564257636,24.624758280265254,7.720611342659931,5.387662603007787
7.245957140695432,9.458880191118938,6.949256215104515,6.074765611875997,25.364164287234672,7.713627330403418,5.44658501689165
7.237281014495467,9.395596665895395,6.960894242946418,6.113614852203247,26.105417532851906,7.709948835529199,5.509096983774926
7.233056009395591,9.33262553910512,6.971492270047662,6.153024323278598,26.845920235990736,7.709689551149696,5.574912836838434
7.233248179771382,9.270129758079202,6.980898860825603,6.192908117748367,27.58306128371139,7.712943684342009,5.64371850518668
7.237804511503941,9.208256603048795,6.988962439580612,6.233182689836628,28.31422976011297,7.719783519143,5.715174254412626
7.246650989449942,9.147139628841801,6.995531872334045,6.273763163857879,29.03682678881099,7.730261097338181,5.788920838905223
7.259690610193464,9.086899285111574,7.000457300006081,6.314560392523867,29.748275893882493,7.744415682113927,5.864588227169404
7.276802766017915,9.02764340304952,7.003591709561203,6.355479500936663,30.446034363483673,7.762282160650737,5.94180385947325
7.297846358610469,8.969468384924438,7.004792813069679,6.3964198151454985,31.127616138795833,7.783894241491514,6.020197279627328
7.322666737619089,8.912461765226524,7.003924469994679,6.437275256106135,31.79064892461786,7.8092848317908805,6.0994011958753225
7.351101593355238,8.856706120367534,7.000857847239745,6.477934034490897,32.43296576069041,7.838488839260777,6.1790523273928954
7.3829819773673835,8.802283196776033,6.9954731555791465,6.518277250791507,33.05268125331537,7.871545594028617,6.258794236966927
7.418130694216665,8.74927692055342,6.987661822081581,6.558176911772537,33.64821160632638,7.90849549307849,6.338280929012338
7.4563617042366745,8.697774485222599,6.977328161231903,6.597494199612327,34.21825616607448,7.949372796800338,6.417179251341976
7.497481189540252,8.647865977980425,6.964390192642585,6.636078809472699,34.761770528422744,7.994200831450613,6.495169466088521
7.541289160706627,8.599645924116642,6.948779738041488,6.673769867822417,35.27793478743659,8.04299195615059,6.571945669473738
7.587580406337063,8.553219335211669,6.930442188866291,6.710398414496352,35.76611400683407,8.095748719945373,6.647220139559535
7.636144225333144,8.50870765069624,6.909336540122519,6.7457908626489,36.22581791286712,8.152462322478014,6.720732292533385
7.686763590269074,8.466248233877064,6.8854357651252975,6.7797733432920175,36.6566693623213,8.213109047405178,6.792256077029774
7.739214553302085,8.425988321136556,6.858727178824858,6.812177514164034,37.05838397524958,8.27764728595533,6.861600519464012
7.793265606204965,8.388077918344749,6.829212907412573,6.842846648825374,37.430755661944524,8.34601660321102,6.928604506302644
7.848677167267037,8.35266371438804,6.796911098454997,6.871639268145621,37.77364270249045,8.418139997315416,6.9931293697901875
7.90520228218791,8.319884200630268,6.761857696921018,6.898429608692685,38.086953541818666,8.493929553878065,7.055052234635345
7.962588321140146,8.2898654576223,6.724107548875898,6.923106573859003,38.37063298960144,8.573292345340334,7.114262126054046
8.020579204107003,8.262717162613527,6.683734509183634,6.945572538814605,38.62464939415833,8.656131964015604,7.17065866607578
8.078919249638725,8.238529537361382,6.640831253455077,6.965742454898092,38.84898473927325,8.742344981010902,7.224151276431899
8.137359236421355,8.217372081184124,6.595508828951296,6.983543476826977,39.04363015912981,8.831816315755903,7.274657857444568
8.195663758270722,8.199293395341263,6.547895841758808,6.998914608818231,39.20858759590917,8.924416793171646,7.322103736642145
8.253617872225224,8.1843208371737,6.4981374737287725,7.0118051460414845,39.34388024289727,9.020002278375648,7.366420718814386
8.311030194122411,8.172460332295246,6.446393678411885,7.022172018820441,39.449579170886814,9.118412510966142,7.407545016550418
8.367732886324752,8.16369715232996,6.392836582419912,7.029978179778083,39.525841563634096,9.219469061449589,7.445414576112501
8.423583557118427,8.157996675673692,6.33764983704182,7.035194033626954,39.57293600208659,9.32297317579421,7.4799674506880445
8.478470017201074,8.155303923932236,6.281031583226496,7.037801183635331,39.5912405062768,9.428705221319651,7.511141469309321
8.532311433772366,8.155542401168118,6.2231975807672875,7.037795013754597,39.581227471231415,9.536428187238638,7.538874839676702
8.58505202740241,8.158613222372688,6.164380055797028,7.035183824879776,39.54345553691792,9.645895676612533,7.563108184114454
8.636651479958369,8.164394791555559,6.104822235406999,7.029985839017823,39.47857176720124,9.756859784414203,7.5837878463715045
8.687078231211169,8.172743098112335,6.044772146168873,7.022226132252567,39.38731194688183,9.869074691333205,7.600869227227224
8.73630808849853,8.183492812409533,5.984479562356122,7.0119342352560174,39.27048961980979,9.982297922007573,7.614319672098734
8.784325566748938,8.196458907606784,5.924197055364289,6.999142859208639,39.12897874400693,10.096292116708318,7.624120796606866
8.83112322879868,8.211438168646891,5.864181784954772,6.983888101610539,38.963699622818346,10.210826652612804,7.630269352000204
8.87669777429556,8.228210338935432,5.804694192605947,6.966210852678292,38.775611346039206,10.325677626452958,7.6327764637449205
8.921045572916324,8.246540737325509,5.745993498368367,6.946159556821523,38.56570650130255,10.440625961119624,7.631667978905822
8.964159315357254,8.266190142618179,5.688332148894162,6.923794562542412,38.335002087404995,10.555454155263448,7.626990027999628
9.006025777990567,8.286934774222416,5.631950453118638,6.899192457581012,38.084525544331875,10.669942669124948,7.618818989821962
9.046625763101739,8.30858777993453,5.577071876191692,6.872449075734299,37.81529944793793,10.783867715324346,7.607268473420051
9.085936230146977,8.331012056715405,5.523899640254191,6.843681747211819,37.52832794046015,10.897001333954096,7.592488011615691
9.123931611429077,8.35412395696737,5.472615277504958,6.813030051285259,37.22458576270149,11.009113210428628,7.574655782663463
9.160582819618192,8.377890651120506,5.42337962928526,6.780653814919872,36.90501028941331,11.119974978857057,7.5539703426116676
9.19585561428977,8.402321493187076,5.376335702056593,6.74672995468055,36.57049793356454,11.229367837896733,7.530644106902734
9.229708754255165,8.427455006673275,5.331611104047215,6.711449759542253,36.221905553790734,11.337090837066931,7.504898760695704
9.26209080159856,8.453345339292925,5.28931834596698,6.675015882543094,35.86005458471637,11.44296549027791,7.4769614960146376
9.292937251859362,8.480051080249316,5.249553809312779,6.6376395345738715,35.48573435233769,11.546836075042263,7.447061436086568
9.32217354989102,8.507626470278353,5.212396875843787,6.59953963507099,35.09970291741668,11.648571937408718,7.415426537285151
9.349726253002963,8.536113507166052,5.1779093530502225,6.560942339145031,34.702686981275846,11.748079084976665,7.382281200347952
9.375534824073299,8.565534665502803,5.146135030975821,6.522077614748034,34.2953836125016,11.845316406803132,7.347843957722209
9.399555188806115,8.59588775843234,5.117099505593404,6.483173460508154,33.878464387211615,11.940301921166574,7.312324451044755
9.421755545886924,8.627144156095458,5.090809563219962,6.444451272620787,33.45258034863734,12.033103670274874,7.275920156536149
9.442110251352128,8.659249535017896,5.067251559765196,6.40612371942818,33.018366059042734,12.123823607877767,7.2388143231253865
9.460595621468142,8.692125085817786,5.046389977735767,6.368393753501506,32.57644256482065,12.212582651450667,7.201176028721271
9.477188595592038,8.725668156159234,5.028167531634478,6.331453623940246,32.12742225758226,12.299509366416467,7.163161296159309
9.491867217610073,8.75975448208327,5.01250655969294,6.295483503630082,31.67192073175964,12.38473261834583,7.124913437797425
9.504611782004728,8.79424562901922,4.999311058199234,6.260648884676252,31.210575329175825,12.468377726873083,7.086562908011597
9.515406907512965,8.829000976714303,4.988469361424162,6.227096482816855,30.744059553869686,12.550565546475983,7.048227983639004
9.524244868949536,8.86389036123755,4.979857049670905,6.19494982497407,30.273083504692817,12.631413953147241,7.010015980850389
9.531128806070003,8.898806611906151,4.973340008716318,6.164305895665421,29.7983830927195,12.71104004863088,6.972024218551174
9.536073462647995,8.933677754047004,4.968778655029068,6.13523408585449,29.32070619881846,12.789560065054488,6.934340493625027
9.539103072843563,8.968478681438881,4.96603277563835,6.107778148938231,28.840800059892906,12.86708522638537,6.897042614512054
9.540248842663129,9.003247410655081,4.964964757191703,6.081959653320035,28.359401073835716,12.94371709397277,6.86019677636429
9.539548169035802,9.038109713880413,4.965440767134138,6.057780586291351,27.877226879119437,13.019550567191581,6.8238553008465175
9.537045283880753,9.073310713882814,4.9673315960607365,6.035225644790109,27.394969882725402,13.094687546049661,6.788054723351641
9.532791281877536,9.109246840197638,4.970514425556253,6.014266548546008,26.913292761723657,13.169251320469977,6.752815296741734
9.526841335758883,9.14647958350948,4.974874774928231,5.9948676691274985,26.43282660785587,13.243389894868695,6.718142218256626
9.519249255606384,9.185719049669558,4.98030692927455,5.976989526618587,25.954169374390716,13.317269377867555,6.684027985868907
9.510062551400662,9.227794064950926,4.986712708435859,5.96058913441305,25.47788230649251,13.391065718143649,6.650454835740328
9.499320708728067,9.273631298781908,4.993999711415446,5.94561925909465,25.004485752692926,13.464958334291362,6.617396130939732
9.487055990955758,9.3242429152444,5.002079026056553,5.932027896733566,24.53445646247956,13.5391252583,6.5848163386745835
9.47329426652506,9.380707728868622,5.0108620018543295,5.919757535741065,24.06822657663562,13.613739460215205,6.552670273386669
9.458055037169027,9.444139559423103,5.020257131777989,5.908743995854512,23.60618390967589,13.68896484756836,6.520902849694314
9.441352309869593,9.515649679682854,5.030168168929935,5.898915628209586,23.148673175341507,13.764950044387717,6.489450622431471
9.42319804300345,9.596310889393573,5.040493429420703,5.890193511761075,22.695998665463414,13.841821699113769,6.458246257625232
9.403607633591562,9.687125990958437,5.051126086078966,5.8824923345410625,22.2484305300571,13.91968038975403,6.427225997845964
9.382604802022051,9.789001942358746,5.0619552756068815,5.875721286529442,21.806214445544136,13.998597799328966,6.396336862953918
9.360223180792202,9.90272971054602,5.072867182066626,5.86978441390572,21.36957955384855,14.07861189494397,6.365539434583121
9.336504226236585,10.028968279527549,5.083745683730912,5.864580807364716,20.938741602350426,14.159720600657302,6.334806431622957
9.311493917550635,10.168232041193413,5.094473587021704,5.8600073676567215,20.513905629998582,14.241877783600813,6.304120029800236
9.285240550052986,10.320881845203047,5.1049352709914375,5.855967961042916,20.095272562714932,14.32499395789612,6.27346981908305
9.257793322322739,10.48711947769572,5.115019897111752,5.852388836768108,19.683046027480437,14.408939388873842,6.2428523932457916
9.229200511932335,10.666985737923117,5.124623668708875,5.849233709822242,19.277433249078744,14.493545225515696,6.212272541548641
9.199507213126495,10.860362871510493,5.133650594404846,5.846511083649135,18.878640000427186,14.578601701224084,6.181744904622305
9.168754249267613,11.066980145565436,5.142012689628728,5.84427289149304,18.486864162033047,14.663856736748796,6.151295019988307
9.13698036815172,11.286419894216149,5.149630252719388,5.842608462742376,18.102292317095273,14.749017797317515,6.1209591604265405
9.104226807161812,11.518123470259932,5.156431244406339,5.84163690249724,17.72510037207556,14.833757648188222,6.0907830410974695
9.070540322386725,11.761398674131916,5.162349536177342,5.841499492901824,17.355454606494757,14.91772797758003,6.060819478857898
9.035973007371501,12.015428830983856,5.167323482436429,5.842353571186862,16.993509802825944,15.000585728154944,6.031124687130986
9.00058029999565,12.279281591387651,5.171295187235954,5.844368103613549,16.639404891679373,15.082027707520448,6.001754059317246
8.964418218174714,12.551917239653548,5.1742094029515595,5.84771948380754,16.29325787121993,15.161820470241667,5.97275936876076
8.927540555258624,12.832198774674207,5.176012013648676,5.852585948966393,15.955161861777464,15.239813011946493,5.944188259439656
8.889997447437802,13.11890652053576,5.176649021137822,5.859140687482551,15.625184205049528,15.315929981055563,5.916085346580372
8.851835765789692,13.410761858854446,5.1760663688693995,5.867545353530107,15.30336848888124,15.3901547197913,5.888493800033622
8.813099638936405,13.706459987480264,5.17421072687972,5.877945253451349,14.989737045596396,15.462511963392066,5.8614564801634295
8.773828909164513,14.00469857306581,5.171031726032941,5.890466129111712,14.684291777271342,15.533054722983099,5.835015738658221
8.734055527831917,14.304193519399735,5.166485875752131,5.905212452613839,14.387013751951613,15.601857899829263,5.8092118610671575
8.6937999665129,14.603693715765397,5.160541509152949,5.922267408567134,14.097864257397765,15.669017616776278,5.7840816472016785
8.653069071814501,14.902003771099112,5.153182706889304,5.941693730678446,13.816789477861473,15.734650192879137,5.759658078782968
8.611855287906664,15.19800161101094,5.144409729431563,5.963533885202988,13.54372751339244,15.798886488255441,5.735970747174331
8.570136890864259,15.49063921796436,5.134235898783189,5.987809195676091,13.278613398911705,15.861863093961645,5.7130473014344
8.527878926461067,15.778935929544785,5.122684061379367,6.0145186817206895,13.02137969287266,15.923715020313509,5.69091556765102
8.485034586612048,16.061981725983937,5.109786146056777,6.0436382499946335,12.771954521592205,15.98457487977049,5.669604280854371
8.441546934784366,16.338956558795296,5.095585921712266,6.075120212177501,12.53025893748624,16.04457724642259,5.649141856552453
8.397351170089268,16.60915220858301,5.080141053760764,6.108892699228549,12.296203228651683,16.10385957451896,5.629554801233173
8.352378926252033,16.871976504577592,5.063521556735581,6.144858894756659,12.069682313676136,16.162556359309498,5.610867210590206
8.306565514149776,17.126936887063327,5.045806806894307,6.182896977193445,11.850572248104507,16.220791947411936,5.593102653898136
8.259856998494623,17.37361720735673,5.027084939439407,6.2228616205047445,11.63873178145625,16.278674817824125,5.576288511341168
8.212213212719044,17.611659113453047,5.007454595538406,6.264586364728446,11.434012086454054,16.336291014715595,5.56046019797715
8.163606579966382,17.840748961643087,4.987025562356189,6.307885600355032,11.23627068850567,16.39369608154254,5.545663583169163
8.11401860382509,18.060606739056748,4.9659164515031105,6.352556365444311,11.045380172520101,16.450909333889896,5.531956690950343
8.063435730626473,18.270975998406733,4.944250800332958,6.398381202729965,10.86122758102725,16.50791762787991,5.519411306893745
8.011846664460743,18.471616147502814,4.922153570397365,6.445133343501934,10.68370864618244,16.564690635155713,5.508113512504548
7.959242809704619,18.66229666595432,4.899749109306113,6.4925841218856535,10.512722095042724,16.621196454627295,5.498162366428008
7.905621120405243,18.842791924217003,4.877160203751569,6.540509244426155,10.348166007768755,16.67740571641382,5.489667347820798
7.850986556112373,19.012876601511906,4.854506547904963,6.588690497990682,10.189935781172483,16.73328676135012,5.482746171402233
7.795352133751206,19.172321964954854,4.831902354779477,6.636913977728953,10.037922899826047,16.788801073191973,5.477523741453723
7.73873700818779,19.320892942248953,4.8094550719488955,6.6849682187801545,9.8920146627683,16.843902663500202,5.474132174299243
7.681164325430575,19.458345922157307,4.787266242389468,6.732644726010128,9.75209564653639,16.898540162484206,5.472712217937087
7.6226605484950305,19.584427624962935,4.76543329005172,6.779742622395799,9.618050696699502,16.952658652766907,5.4734148209421765
7.563257075696034,19.69887598134378,4.744050674348572,6.826076710034514,9.489766811372737,17.006197883777084,5.476399526708419
7.5029939646772235,19.801423477971774,4.723209966216721,6.871484642270479,9.367131242001433,17.05908595040858,5.481828798901309
7.441925567059659,19.89180261915187,4.7029993122177745,6.915829839475697,9.250026947636382,17.111232514710682,5.489861282332108
7.380126519521353,19.969753715397935,4.683502949734633,6.959000586138509,9.138328548508962,17.16253154683711,5.50064661288281
7.317694372977876,20.03503484929195,4.664801314021256,7.0009066829045254,9.031899853176526,17.212884528104926,5.514322127900178
7.254747641943156,20.08743059728591,4.646971761610635,7.041474956976922,8.930592863380324,17.26223830295799,5.531012680826875
7.191421612375954,20.126756050764964,4.630088970841679,7.080645396149806,8.834249100716832,17.310611549932638,5.550835028042287
7.127863183849786,20.152858808487125,4.614224529220235,7.11836906877207,8.742703088937342,17.35809462418897,5.573903838265668
7.064225268456686,20.165623725275168,4.599447352792059,7.154608747590107,8.655786054432404,17.4048330037692,5.600334174860061
7.000662675317665,20.164980475184485,4.585826264461711,7.189341718330163,8.573329068139987,17.451007467944105,5.630239151971665
6.937330761461575,20.150911749895155,4.573432929964319,7.222561058088401,8.495165678441987,17.49681611606723,5.663725042525859
6.87438662740028,20.123460967659852,4.562342724373572,7.254273054475707,8.421132593139037,17.542461839983662,5.700887102109713
6.8119920875195135,20.08273965518448,4.552633208936122,7.284492861917407,8.351067809847986,17.588146083131093,5.7418093055861865
6.750316533234377,20.028934629409356,4.544381761107701,7.31324068348933,8.284808459753918,17.63406621123042,5.786568234187905
6.689537474768,19.96231128553976,4.537664717349917,7.340538580802504,8.222190355991787,17.680413843284597,5.835236897157426
6.629838484441128,19.883208822539903,4.532558438927469,7.366407175719836,8.163048676022113,17.727370746092582,5.887884232807536
6.571406258966447,19.792029294954027,4.529139757383765,7.39086178423159,8.107218208582879,17.77510011096092,5.944570279164409
6.5144283564921,19.689224860038617,4.527483870382646,7.4139087049329655,8.054532298376646,17.823735857507682,6.005340067712586
6.459090973337669,19.57528520571136,4.527660598182369,7.435543200702485,8.004820618157863,17.873373660382114,6.07021930382626
6.405575025940037,19.450726517610708,4.529730995587374,7.4557497244788635,7.957906304094859,17.92406480049841,6.139212547735549
6.354051052554916,19.31608321187665,4.533745268190564,7.474503174258354,7.913603042218522,17.97581315602423,6.212302135562383
6.304675682651854,19.17190122718552,4.539741528292457,7.491769760385571,7.871712996352653,18.028574862300314,6.289446257404923
6.257591621652591,19.018730651940828,4.547744456751544,7.507507688728322,7.832026156515094,18.082258451383396,6.370575731300055
6.212931459079663,18.857118462800784,4.557763653964199,7.521668370141389,7.794321420622315,18.13672557276266,6.455589395970475
6.170823989597571,18.687604179022,4.569792323210106,7.5341980486796105,7.758370850797606,18.191795075585404,6.544349173836133
6.131399624347524,18.510718101646965,4.583806401432943,7.545039886990663,7.723948218522131,18.247250356987866,6.636678246870574
6.094792109998753,18.326978709947078,4.599763413025102,7.5541362591307815,7.690840359952547,18.302847126342996,6.7323671318596325
6.061137056314575,18.13688833119859,4.617601274650464,7.561430364090277,7.658858176068108,18.358319650866164,6.83118748781421
6.0305697701283645,17.940929917585777,4.637238322984065,7.566867935632113,7.6278433346075305,18.413386496959948,6.932905650533164
6.003225260847814,17.73956682055829,4.658575040616991,7.570403196181703,7.597668202113281,18.467758087246168,7.037289352517232
5.979240685931598,17.5332443448841,4.681497024090354,7.572014114563495,7.568231035348305,18.521143594897833,7.144108766869412
5.958756212930737,17.322391243150307,4.705878661512717,7.571724007524425,7.539450072828373,18.57325339819538,7.253134800682226
5.941912395858295,17.107420596989382,4.731586933480566,7.569616372507171,7.511257899052267,18.623803023025026,7.364135588349802
5.928848669583426,16.888730184975227,4.758484582166741,7.5658350619240045,7.483596254957635,18.67252784472903,7.47687321522597
5.919706023471536,16.66670269861481,4.786431769920589,7.560575532822401,7.4564119749438085,18.719203722560774,7.591104223044105
5.914629100672265,16.441707186835536,4.8152860774755855,7.554074861756226,7.4296554015875635,18.763658128026673,7.70658415504673
5.9137626339972735,16.214104320368232,4.844901967753984,7.546601688595993,7.4032817959983195,18.80576568758486,7.8230718073086685
5.917243991582803,15.984256026794041,4.8751305092749915,7.538444613912046,7.377253809765611,18.845435644205768,7.940329786127487
5.925196606282707,15.752534577303827,4.9058190556312535,7.5298995100266515,7.351542876714592,18.88260049772038,8.058121911347389
5.937726687496766,15.519325756993094,4.936810770144839,7.521257913899573,7.326129689094522,18.917209175082334,8.176209455016643
5.954922952330777,15.285026983647679,4.967944450210818,7.512797723137701,7.301004178851623,18.949222382689033,8.294347458367184
5.976858160374223,15.050043880215089,4.999055017300628,7.504775807498788,7.276164002507364,18.9786073782051,8.412281197283738
6.003590885003733,14.814786297654084,5.0299744176286545,7.4974224645951795,7.251611146938089,19.005333171813067,8.5297424494849
6.035165289474835,14.579664615342097,5.060532581901746,7.4909381767656535,7.227347870109448,19.029367384548785,8.646446236415741
6.071608071078717,14.345088481403138,5.090559238003155,7.48549246377566,7.203373660682045,19.050673438447536,8.76208939706302
6.112924923415719,14.11146971427415,5.119887477693907,7.481224493002832,7.179684981613287,19.069207535812136,8.876351123318907
6.159098718688363,13.879229608275983,5.148358423471252,7.47824473372043,7.156277834726663,19.08491648101425,8.988894174272774
6.210088742670142,13.64880655717342,5.175826301296448,7.476635700446787,7.133149874483461,19.097739628002326,9.099365980857055
6.265829608697555,13.420657398168009,5.202163745126073,7.47645074825574,7.110299677644439,19.107623239834204,9.207400081767112
6.326229414665461,13.195251263847805,5.22726609767046,7.477712682986808,7.0877250575225705,19.11454850238059,9.312618920405416
6.391167210291238,12.973059695737222,5.251054523580669,7.480414307783663,7.065422659870047,19.118554572841784,9.414640034085119
6.460490928935431,12.754546025385842,5.2734794259886,7.484520572663833,7.043388207104977,19.119739230820965,9.513086413043691
6.534017939260693,12.540155959669615,5.294523207057192,7.489970671636456,7.021616456152074,19.118243609711577,9.607596704647701
6.6115385754993605,12.330310804454175,5.314200108465225,7.496679142301372,7.000101736438854,19.114236070936734,9.69783010093371
6.692820175880722,12.125403510091033,5.332553095366077,7.504535891432745,6.978839628697691,19.1079002362418,9.783466118332644
6.777609600843893,11.925797642696997,5.349648621837941,7.513406322727308,6.957828460129251,19.099427824389196,9.864202509460899
6.865634361065996,11.731829585825396,5.365570275492127,7.523134014302137,6.937069807391776,19.08901809347749,9.939753580320911
6.956602621752464,11.54381186033948,5.3804129539543055,7.533546947676039,6.916568988906527,19.076881585127932,10.009849814664028
7.050202322076791,11.362033785793699,5.394278512158539,7.544464651805022,6.896335805495764,19.063243230578845,10.074238840930683
7.146101111537526,11.186758885782332,5.40727281248852,7.555703004142111,6.8763843818512855,19.048342689646173,10.132687338716952
7.243949154952396,11.018221454466602,5.419504235279779,7.567076503559119,6.856732000752657,19.032430234195566,10.184984212726967
7.343385343532743,10.856623464847717,5.431083400963779,7.5783989901580915,6.837398485228536,19.015757559815782,10.230947169101947
7.444044982036939,10.702131562675406,5.442122931749651,7.589482687779345,6.818406711646875,18.99856853803276,10.270432741980423
7.5455650415916455,10.554874346265743,5.452736025136228,7.600135905573063,6.7997822722516945,18.981095363980785,10.303343914668451
7.647584908448921,10.414940501103152,5.463033131151345,7.6101607829874665,6.7815506859536,18.96355877361117,10.329630049051294
7.749744945405414,10.282378106391915,5.473117140977883,7.619352480644527,6.763733740345873,18.946167250246894,10.34928117236432
7.851686421785359,10.157194812335968,5.4830789409005956,7.627500936691568,6.746347088620633,18.929112177380418,10.362321783537118
7.953053659113905,10.03935835750134,5.492994843194631,7.634395242147319,6.729398919853894,18.912559782075466,10.368805969553579
8.053496605366302,9.928797664971066,5.502925337570142,7.639829002765707,6.712888995586226,18.896643332793687,10.368812295926999
8.1526723689362,9.82540497279205,5.51291373998743,7.643604925411535,6.696808147222919,18.881457611602873,10.362437632735025
8.250246425507648,9.729038674308082,5.522984799643308,7.6455382824826765,6.681137762680372,18.867054433706663,10.34979142263423
8.345894760917066,9.639526318561973,5.5331446701821845,7.645459664349628,6.6658486080335075,18.85343793032246,10.330992023863123
8.439306878447017,9.556667994012798,5.5433828272454875,7.643217092940703,6.650899952833343,18.840561400890373,10.306165208784217
8.530189322115525,9.480241486335489,5.553674746692748,7.638677158702223,6.636240326860769,18.82832989228441,10.2754441692352
8.61827009447512,9.410010037685826,5.5639838185269115,7.631725056359777,6.621808931882669,18.816610710473764,10.238970336253326
8.703304255871554,9.345731026879266,5.574262482419496,7.622263978346308,6.6075359513497975,18.80524796183568,10.19689416232667
8.785080639929859,9.287165120491206,5.584453669323607,7.610214387264848,6.593342509692283,18.794073114664222,10.149375441009935
8.863428926263591,9.234089162826947,5.594493021395661,7.595513324467321,6.5791422547225,18.782908354182332,10.096583095110821
8.938223863668522,9.186311328572865,5.6043110413373265,7.5781136117104575,6.564844518720694,18.771571593313794,10.038694115965752
9.0093827188452,9.143679289731532,5.613833800969799,7.5579825606926025,6.550357366076784,18.759900214457183,9.975891816807044
9.076856796403218,9.106077484711946,5.622982199215071,7.535100156584553,6.535589686826859,18.74780047709558,9.908364088510785
9.140622031066526,9.07341942824282,5.631671142199074,7.509457510929036,6.52045274773964,18.735303095817667,9.836302220911483
9.200671676435599,9.04563986993009,5.639809497596282,7.481056229297715,6.504861274242574,18.722594961717007,9.759900739993418
9.257010685668138,9.022687351972639,5.647300963571996,7.449908256683795,6.488734130191719,18.710018052248973,9.679358068537562
9.309650752415438,9.004517751182915,5.654045949609621,7.416035158425173,6.471995603883781,18.698049516788434,9.594877431204125
9.358606516840341,8.991088865959293,5.659944528380751,7.379466132169529,6.454577163212012,18.687281880881283,9.506668067063368
9.403895361638142,8.982355137512277,5.664900348959768,7.340235283558453,6.436418068715371,18.678411938927965,9.414947064260915
9.445542576450647,8.978262171948664,5.668824452641592,7.298379969763852,6.4174658501157795,18.672229750151807,9.319941789046485
9.483589990372032,8.978741478061455,5.671637177343314,7.253941259358773,6.3976809871058515,18.66959992631494,9.221892601672934
9.518103606630753,8.983706438707241,5.673267920513756,7.206965295026477,6.3770465477205365,18.671442662322264,9.121054787217975
9.549177009684373,8.993050464747466,5.673654641512238,7.157504415427582,6.355576395410147,18.6787202064883,9.017697890485007
9.576930416724704,9.00664698676425,5.6727441019120395,7.105618865087351,6.333316631592767,18.692422371095322,8.912101971613316
9.601507242489348,9.02434961760672,5.670492020487927,7.051379620314117,6.310342131270912,18.713545622503446,8.804552747919029
9.623069750140791,9.045990717315767,5.666863013479815,6.994871655392567,6.286752485565247,18.743069553617623,8.695337927607303
9.641793738735064,9.071377896388592,5.6618308947890945,6.936197491280529,6.262668990682711,18.78193702821359,8.58474497493471
9.657861843617482,9.10028960995337,5.655378985782884,6.875481023406691,6.238231703871618,18.831039973284074,8.473058990014561
9.671457166248935,9.132471482916955,5.647499877257054,6.812870803369117,6.2135959036453805,18.89121194108598,8.360560305605782
9.682761612414414,9.16763469692408,5.638194469146408,6.748541835493201,6.188928916134465,18.963229461713016,8.247522702189094
9.691962293057347,9.205457626635182,5.6274704301314635,6.682695551561048,6.164407412035738,19.047817180276375,8.134212832302799
9.699262887100117,9.24559095865733,5.61534142305631,6.615557991336208,6.140213494056941,19.145643554082152,8.020890503189758
9.704892189961955,9.28766411554405,5.601829128429749,6.54737624470088,6.116528771190261,19.25730353385298,7.907808703604877
9.70910557249211,9.331289960392592,5.5869676409699816,6.47841364131189,6.093528107702721,19.383305327565154,7.795212335014665
9.712180453123018,9.37606885966317,5.570806731211491,6.40894478809512,6.07137592586047,19.524074872640554,7.683335906460936
9.714408419452525,9.421598269391264,5.553412749857136,6.339251630695914,6.050226828493049,19.679969053793524,7.572401644262427
9.716086219067394,9.467489787718906,5.534871225638073,6.269620942566089,6.0302293325289105,19.85129180648732,7.462619330974788
9.717506513781885,9.513384548475097,5.515293344814997,6.200341923609463,6.0115288246921255,20.038320841715194,7.354188103372212
9.718948870907568,9.558957626845586,5.494820981685984,6.131702156573904,5.994266576947456,20.24133443682608,7.24729927705049
9.72067341419251,9.60391391698969,5.473625137530035,6.063982961852153,5.978575155756471,20.46061408473927,7.142138467901416
9.722919882840849,9.647984819459568,5.451899530762268,5.997457316650405,5.964573139819328,20.69642411770787,7.038885338793156
9.725910726404773,9.690931722054984,5.4298528842540925,5.932390847920297,5.952361949613675,20.948989009489363,6.9377107334868
9.729853115202948,9.73255480324687,5.407701887387738,5.869042468713563,5.942025282850253,21.218478823177758,6.838772949065555
9.734936788703049,9.772700978130134,5.385666577005888,5.807661864691693,5.933629483199622,21.50500174366268,6.742215137437838
9.741329369029799,9.811267302074246,5.363968032854115,5.748485265587992,5.927223460832337,21.808600140352883,6.6481639545455655
9.749172143353395,9.848200826265934,5.34282609745302,5.691732603257231,5.922838535115746,22.129247879898003,6.556728450965907
9.758577274821203,9.883497673305243,5.322455659748018,5.637606806484476,5.920489586646028,22.466853372262207,6.467999056996672
9.769625444248458,9.917207123222026,5.303062235563988,5.586293777362549,5.920178084885051,22.821274746061288,6.382047625176982
9.782363645904523,9.949444660258722,5.284838678944324,5.537961444109572,5.9218953866865265,23.192341040363814,6.298929432870433
9.796805078087337,9.980404708548036,5.2679638278986785,5.492757411017287,5.925624040805045,23.579868474303954,6.218686626360931
9.812933081689433,10.010358982750544,5.252601947854313,5.45080619657897,5.931336503319823,23.9836772854451,6.1413518418839335
9.830708478765978,10.039639919654947,5.238902167291102,5.412207556618863,5.938992180558419,24.403616565307527,6.066951912139892
9.85007781886012,10.068619867557604,5.226999144225617,5.37703655571322,5.948534393678858,24.839586739646496,5.995511578163415
9.870980203725422,10.097693625757524,5.217015681069839,5.345344679420502,5.959888706648479,25.291553155883552,5.92705551297586
9.893350672844743,10.127263720463366,5.20906539954873,5.317160849590238,5.972962554101815,25.759553299975483,5.86160743872282
9.917120186134287,10.15772571739935,5.203253525058105,5.292491957295849,5.987645147683118,26.24368776044621,5.799187562173853
9.942216490706059,10.189454361372661,5.199675846424974,5.271323284632568,6.003807364728165,26.744087583697876,5.739810714871889
9.968568676230403,10.222792406879798,5.198417157442994,5.253620068128684,6.021301920333731,27.260876029166322,5.683486187327979
9.996111410134107,10.258042137123466,5.199551205032036,5.239331204449622,6.039964199399569,27.79414890164181,5.630218139679753
10.024785041079896,10.295458855031118,5.203143092778759,5.228393707394623,6.059614720596792,28.343976094572106,5.580005530876009
10.054533813047456,10.335246005838412,5.209251754527459,5.220735680448192,6.080064129148442,28.910414740674803,5.532842065480365
10.085305273806267,10.377552037504007,5.2179293298257425,5.216277493215811,6.101119910761804,29.493535381984252,5.488716700652239
10.117050260394901,10.422469466020514,5.229217755100947,5.214932157036895,6.122593046571085,30.09345771486886,5.447614062869159
10.149720917329086,10.470035542916783,5.243145588019091,5.216605320407717,6.144303150100401,30.710369335665842,5.409514109689036
10.183265791985628,10.520232517146413,5.259726715140227,5.221194558090011,6.166080646563929,31.34451014649334,5.374391185113056
10.217624128111213,10.572987080524706,5.278959956669888,5.228588107838316,6.187765953206116,31.996140982615294,5.342212602097833
10.252722462852986,10.628170574059881,5.300828477787541,5.238663462962682,6.209207982577515,32.66552302433856,5.312936736368224
10.28847494132645,10.685600418814897,5.325299474901578,5.251285617284772,6.230263471082873,33.352904324248236,5.286510900702065
10.324786946790617,10.7450423163754,5.352324650433159,5.266305211430889,6.250796314293647,34.058501275279724,5.262869226240176
10.361560301446785,10.806213645768748,5.38184066314211,5.2835573295677785,6.270676512235287,34.78250458064575,5.241931144585039
10.398697091263879,10.868789193988695,5.413768620611576,5.302860736256541,6.289779356298582,35.525134208950725,5.223601623390743
10.436100001825135,10.93240996610192,5.448013088939355,5.324017240244138,6.307984557616741,36.28669496630814,5.207772846728964
10.473669804560851,10.99669331906837,5.4844616946029605,5.346812688292061,6.325174532618317,37.067584072991274,5.194325166276931
10.511302193693508,11.061240651854408,5.522985509560904,5.37102173309043,6.34123271162754,37.868277164182985,5.183126509516711
10.54888537897308,11.125641373666902,5.563439549726971,5.396415751046603,6.3560440672350556,38.689349996835226,5.1740320461476985
10.586298081527492,11.18947623113199,5.605662432453954,5.422770492983375,6.369498125487222,39.53156149197877,5.166885443511415
10.623406963886024,11.252324952868806,5.649474836776518,5.449870675785129,6.3814915134283785,40.39596503234597,5.161520872732693
10.6600639353284,11.313780682346797,5.694677853417886,5.477510775494317,6.391927644049533,41.283976929751816,5.15776506624541
10.696105999243924,11.373467391770765,5.741053199083741,5.505493245432508,6.4007150164447895,42.197357731271175,5.155440206601496
10.731360450023004,11.431053035711857,5.78836660257453,5.5336268302193865,6.407767258529218,43.138138763699295,5.154368129644046
10.765654224857272,11.486254897077803,5.8363736099450785,5.561726749124926,6.413005131765004,44.10856039032044,5.154374854526134
10.798822425382221,11.538838965577153,5.884825520772343,5.589616267000126,6.416357526284886,45.11102843101664,5.155294082388487
10.830713029312998,11.588616716388302,5.933473985945986,5.61712814992056,6.417759850506427,46.148064353436745,5.156969111313994
10.861188942470802,11.63544262723099,5.98207416974615,5.644105050073168,6.417151674426945,47.2222729347125,5.159253825723927
10.890128781225316,11.679217310676254,6.030386284040231,5.67039873556946,6.414475836364375,48.336347663891765,5.162014395224945
10.91742564648101,11.719896885893075,6.078175636209184,5.695868659236139,6.409679031355533,49.4930900768143,5.165131919188434
10.942983188205853,11.757498823274515,6.125212821854496,5.720380959550973,6.402712379795091,50.69542629214583,5.168503888555868
10.966710471625886,11.792095941244677,6.171275119651513,5.743809049505754,6.393530750757238,51.9464156460081,5.172043965182955
10.9885175821362,11.823802946509117,6.216147897712926,5.766036030183727,6.3820914871486005,53.24923994324051,5.175682272373809
11.00831245848244,11.852763173877127,6.259625057965645,5.786957868169539,6.368355102922275,54.607183528405,5.179366352343647
11.025999605837015,11.879136775600847,6.301509094234114,5.806485370581253,6.352289200987538,56.0236526060778,5.183060197178309
11.041481188106442,11.903088795058565,6.3416109698487775,5.824543778313434,6.333873048996027,57.50228070621661,5.186740355065193
11.05465896812747,11.92477775747683,6.379749309269128,5.841071088128897,6.3130998922297445,59.047086765638944,5.190391196077208
11.065436776078176,11.944347327587653,6.415749045725078,5.856017252251107,6.289977229373467,60.66257449158677,5.194002005796169
11.073724992193878,11.961922257272244,6.449441411311393,5.869344910578006,6.264526354016181,62.35372882954856,5.197566565348709
11.079444831354254,11.977606842122826,6.480668408349576,5.881030536981555,6.236781155517941,64.12598345945207,5.201083951158898
11.082528863284956,11.99148384938334,6.509291665338547,5.891065348265716,6.206785782243932,65.98521111040851,5.204559362253668
11.082918985500923,12.0036137368748,6.535200095167593,5.899455988185962,6.174591813301597,67.93769313256689,5.208004677288273
11.080564920188353,12.014034418244853,6.558311541823523,5.906223781286379,6.140256425055542,69.99000407137883,5.21143850222911
11.075424244312037,12.022761774223214,6.578569600776233,5.911402275847293,6.103843154925613,72.14880918484015,5.214884981161608
11.067463936389956,12.029791195015955,6.595939376699948,5.91503545138742,6.065425845156143,74.42062901661897,5.218371206055874
11.056662720152465,12.035100096323278,6.610403784072508,5.917177435861885,6.02509360812912,76.81161685546846,5.221924337670749
11.043012652854888,12.038651477712186,6.621960205665589,5.917891688018479,5.982953267817587,79.32737243174513,5.2255692182383155
11.026519785616014,12.040398827852924,6.630617760624768,5.917248934079525,5.939128321141744,81.97281629737988,5.229326159464207
11.007206070992849,12.040294625571477,6.636395514363174,5.915325468540012,5.893757085619912,84.7521499948725,5.233208782451579
10.98511359057881,12.03830730974924,6.639321073868684,5.912202856979193,5.846993307733909,87.6688980132071,5.237222351971023
10.960308411645903,12.034444431149808,6.63942951460835,5.907968644432045,5.799009151144102,90.72596518694864,5.241363230034044
10.932880795650922,12.028767529740643,6.636763672606612,5.90271704980532,5.749996932698125,93.92561083054785,5.245619939453742
10.902941720509597,12.02139180866563,6.631375807637021,5.896548542864938,5.7001676095431275,97.2693246405803,5.249975395775846
10.870617785225656,12.012484306136521,6.623329261877112,5.8895685063940135,5.6497487782470435,100.75771901639129,5.254408976485374
10.836046219057733,12.002271501335949,6.612699801175106,5.881886925917543,5.5989852609133,104.39052566513722,5.258897612794669
10.799370591650716,11.991046149222365,6.599578011239161,5.873619861387307,5.548140814287839,108.16664400205522,5.263416067833537
10.76073634922856,11.979164072845537,6.5840727633160805,5.8648905754514145,5.497497037296588,112.08415804400406,5.267936549462127
10.720285335599566,11.967040176128657,6.566312489101964,5.855828994564486,5.447348084924372,116.14029365943739,5.27242765595214
10.678151207441504,11.955150033139883,6.546441912529528,5.846572513130788,5.397993110949096,120.3313226694896,5.276853478557889
10.63445932113054,11.944026165215325,6.524617546706124,5.83727273652544,5.349728869447731,124.65246474052937,5.281174749740489
10.589331222817737,11.934240624520756,6.501008200883719,5.828106519193751,5.302843786498705,129.0978663226813,5.285352863395912
10.542889159544515,11.92637989634145,6.47580198248351,5.819282015758557,5.2576134696948,133.66067275405416,5.289354001517882
10.495257137467066,11.921021387627237,6.449213436093041,5.811034824430128,5.214296661066497,138.33312674348693,5.293149750573736
10.446559407663715,11.918716490297662,6.4214837248480565,5.803621622469627,5.173131631049063,143.10664671848875,5.296714702403309
10.39691822882158,11.919980401203997,6.392874008888338,5.797324826406438,5.1343342263181855,147.97190343205358,5.300024071923276
10.346451754740848,11.925284406795294,6.363657960644303,5.792475594346378,5.098097451521898,152.9189217326801,5.3030523196491615
10.295272603425405,11.935046960605922,6.334119234273427,5.789484405301017,5.06459137788518,157.93719197206832,5.305772079994007
10.24348728081955,11.949624109921917,6.304555571156943,5.788859564628014,5.033963471476997,163.01572736540845,5.3081533620413675
10.19119658574438,11.969301645290377,6.275286998817083,5.791209026461603,5.006339951073255,168.14304172636244,5.310163397720012
10.138497081225056,11.994290619573048,6.246663257194592,5.797232623302194,4.981827029974392,173.30711373521032,5.311768243890512
10.085482327530144,12.024726174032407,6.219064591046828,5.807708094802646,4.9605107024600485,178.49541004169006,5.312938361030848
10.03224186799379,12.060668347107782,6.1928943560680025,5.823479356147139,4.942457122073048,183.69498129324697,5.313657197034853
9.978857994317249,12.102103616350611,6.168568958536553,5.845461982038525,4.927716179179224,188.8925857006878,5.313927182119244
9.92540279322946,12.1489462775049,6.146510638573442,5.8746611585347965,4.9163258781600465,194.07476892972252,5.3137699628680295
9.871938055932103,12.20103961092707,6.127143624506477,5.912192158383088,4.9083137779413,199.22789151774072,5.313223262327922
9.81851807537685,12.258158289165413,6.110891054278294,5.959339945319073,4.903696288417616,204.33816456368731,5.312337325075606
9.76519245465887,12.320014001996634,6.098169716310214,6.017688074174446,4.902478404242359,209.3917229241752,5.311171613302027
9.71200630532131,12.386264631943083,6.089381468002618,6.089254151176148,4.904654621968906,214.37470854429813,5.309791348797161
9.658998585908959,12.456524338045476,6.084902500339743,6.176547079313689,4.910210544593999,219.27334470606817,5.308263847317355
9.60620112347695,12.530370471692937,6.085074295951417,6.282545908353558,4.919124078303523,224.0740063087339,5.30665555673317
9.55363875788942,12.60734567399527,6.090202242694939,6.4106887163916895,4.931365334161219,228.76328940464262,5.30503080387187
9.501329188279893,12.686958090060275,6.100562842569113,6.564959318356411,4.946895888016486,233.32808391141106,5.303451957884024
9.449282044999608,12.768684161171777,6.116411458784985,6.750018526329751,4.965668756552402,237.75565959577185,5.301979798592277
9.39749762551644,12.851975015650318,6.137983602740077,6.971220063430933,4.9876289669985026,242.03375996108338,5.300673638442272
9.34596579530102,12.936264107897554,6.165490662645931,7.234462539975365,5.012713391594176,246.1506708440989,5.299591510734397
9.294665867250163,13.020974293040956,6.199114028652809,7.545981830528895,5.040849453021548,250.09524309217124,5.298790407204534
9.243568241707102,13.105523808685634,6.239001419716041,7.912175967668706,5.071953484542842,253.8568988860976,5.298326955963735
9.19263732923891,13.189330204977479,6.2852664528441515,8.339469782404816,5.105929393026343,257.42565991015,5.2982593913963125
9.141833445383062,13.271812421223325,6.3379876457577895,8.83420025697458,5.1426678797595295,260.79219994661213,5.298649996502486
9.091112079180064,13.352395939107854,6.39720389313728,9.402513577498029,5.182046418495416,263.9479117014537,5.2995657134555545
9.040422257360332,13.43052740991112,6.462908267302864,10.050279566892767,5.223929463818538,266.8849802686605,5.301076021729335
8.989706510403531,13.5056958026903,6.5350429109522326,10.783036583068837,5.268167644183576,269.59644219073687,5.303249430590911
8.938902291541288,13.577447776514587,6.613496321243831,11.605947306645328,5.314595890578666,272.07620972466873,5.306149984626534
8.887943346220647,13.645390575846456,6.698103776964191,12.523727656561567,5.363031701012289,274.3190707695571,5.309833980116701
8.836760617596823,13.709186674930184,6.788651873240002,13.540561503728368,5.413273979267377,276.3206992430873,5.314346918524734
8.785283304775172,13.768547291409513,6.884889226874882,14.660040855632532,5.465102526928163,278.0776887634882,5.319720988774606
8.733440979201067,13.82322952237602,6.9865430191007425,15.885129274396034,5.518279054909756,279.58758281962486,5.325973310142088
8.681166664477331,13.873036721869283,7.093334620025107,17.218121717846,5.572550258318796,280.84887899522255,5.333105384438856
8.628398751325,13.917816876007592,7.204987293118863,18.660595981029232,5.6276521404457895,281.86101575558513,5.341103967667274
8.575080029818249,13.957455815837884,7.321225814764671,20.21337396410666,5.683313947392853,282.624368787478,5.349942829950141
8.521155196956299,13.991867661039494,7.44177316393055,21.876508890323596,5.739260650173889,283.1402596234538,5.359585900123332
8.466569602098723,14.020986266322245,7.566349357521485,23.649302818311362,5.795214754691715,283.4109311380426,5.3699932545050535
8.411271057434849,14.044759250290417,7.694671934503889,25.53035380475957,5.8508990341902,283.4394713090656,5.381129323371975
8.355215064121015,14.063143689921217,7.826453728679092,27.517612958202662,5.906039706465352,283.2297234178931,5.39297099503787
8.29837137147074,14.076101624182225,7.961397131074823,29.608420567203932,5.960367895169457,282.78620169746085,5.4055134458911
8.240728513691957,14.08359534893935,8.099188862033298,31.79952183187849,6.013619130258669,282.1140030007549,5.418771822863985
8.182295511490798,14.085584527674794,8.239500019568446,34.087087641655295,6.065532753809954,281.2187225019513,5.4327784045838
8.123102424575547,14.082025928503239,8.381992086113643,36.466747270251894,6.115852621121331,280.1063953908243,5.447576644552385
8.063200744071459,14.072874101073907,8.526322975672775,38.93362199435392,6.164329259680263,278.78346702806095,5.4632141161327
8.002663350671144,14.058081193635374,8.672147067354308,41.48237594454935,6.210722642418647,277.2567642436405,5.479736170409901
7.941583280380356,14.037596758293187,8.819110890628078,44.10730337641582,6.254804331118164,275.5334514308857,5.497181102366333
7.8800704305984235,14.011371078976818,8.966849965438863,46.802411254530874,6.29635838945358,273.6210083380249,5.515577046845647
7.818247163038741,13.979363079316334,9.114988970433318,49.561466052494346,6.3351814085562586,271.52727281272956,5.534941163604911
7.756246720883752,13.94154803224182,9.263145599633841,52.37804239390234,6.3710824818835246,269.2605068970156,5.55528139241122
7.694216659553647,13.897920625274018,9.410939143024686,55.245580748974085,6.403883271430009,266.82939523352127,5.576599470645051
7.6323231710116035,13.848494299407843,9.558001834321793,58.157413437826456,6.433417331733849,264.242965357627,5.598892767167842
7.570750752374536,13.793300655284021,9.703986840151249,61.10678119014184,6.459528566679899,261.51050283132525,5.62215403859836
7.509696969808498,13.73239283282067,9.84856862001526,64.08690391483317,6.482070087551364,258.6414985892358,5.646370717391445
7.449365862485129,13.665852591556995,9.991437993400565,67.09108159089725,6.500904636429215,255.6455972788265,5.671525325143719
7.389962640018337,13.593794567533024,10.13230068801808,70.11273459406594,6.515906413021961,252.53254388232023,5.697596396066845
7.331689655532333,13.516363375241829,10.270890932627179,73.14535652699831,6.5269633329289425,249.31218440694207,5.724558045352671
7.274742944523399,13.433727053626917,10.407000850439779,76.18242850763508,6.533979048664497,245.99452633042014,5.752377632986645
7.219311180025456,13.346071678302506,10.540507272411613,79.21734256496553,6.536874595218679,242.5897994814836,5.78101287145698
7.165579052931502,13.25359781082865,10.671384097635967,82.24335712047021,6.535589822273332,239.1084941627322,5.810410168124808
7.1137320314039565,13.156517137033019,10.799717552105346,85.25359114728488,6.530085017488503,235.5613751267451,5.8405052375335424
7.063957682663354,13.055050114630122,10.925739511908981,88.24104370504536,6.5203427740244795,231.95944482377865,5.871225433817715
7.0164434766369235,12.949429749149973,11.049860174264186,91.19862725522883,6.506369326187559,228.313850057906,5.902492103207473
6.971374725770682,12.839912852477262,11.172674079574136,94.11922112275082,6.488194591655712,224.63575233561494,5.93422170211033
6.928936048615766,12.726789860332133,11.294940121406627,96.99573621202943,6.4658707271889275,220.9361848005413,5.966325625824718
6.889316349143374,12.61038445182173,11.41755684970426,99.82117018743381,6.439469338461392,217.225934052627,5.998710080220559
6.852713040275547,12.491045076293998,11.541545956815087,102.58867267073545,6.409078297372587,213.51547521487942,6.031277353882532
6.819331899218129,12.369137026669014,11.668034840310925,105.29164048481245,6.3747996313189095,209.81494393510647,6.063927541882781
6.789383339649923,12.245043730567406,11.798232331669702,107.92380463281877,6.336748849665756,206.13411297530678,6.096558854364295
6.763077298741194,12.119180240602374,11.933407935959115,110.47929498139342,6.295054896818637,202.4823622371844,6.129066771425552
6.740617615890261,11.992009750700658,12.074874589412714,112.95271577029108,6.249860058451049,198.86864411276426,6.161343362397798
6.722195822362971,11.864050570110262,12.2239681266195,115.33920495142789,6.201319542275628,195.30144312970458,6.193276760435975
6.707983887964427,11.735875641537573,12.382040853482147,117.63442630357997,6.149600241015643,191.78874464042187,6.224750377074845
6.698126258856537,11.60811861840791,12.550484253180965,119.83451815384265,6.094878291387265,188.33805533195059,6.255642606394925
6.69273337671388,11.481491447634243,12.730753284525482,121.93604658562184,6.037336220627146,184.9564787937546,6.285828028275929
6.691879260236743,11.35680251051059,12.924361619930119,123.93596886617752,5.977161148677315,181.65077639409952,6.315179958888256
6.695602749784051,11.234961887405152,13.132855277199111,125.83159902745484,5.914544279188728,178.42738179394587,6.343573385405885
6.703908910486779,11.116969231443404,13.357784002497043,127.62059025172192,5.849680493159128,175.29240241569386,6.370887488900895
6.716768543158299,11.003888605041336,13.600683158598946,129.3009412538401,5.78276721090113,172.25159862201443,6.397007245734238
6.734116737363008,10.896817611409125,13.863070264948494,130.8709949922809,5.714002803140836,169.31031171065675,6.4218238416164395
6.75585165568324,10.796856127667956,14.146442123823043,132.32941319782108,5.643585331444201,166.47336783741002,6.445234108291375
6.781834112330233,10.705077657831621,14.452263889488796,133.67516431507863,5.571712655880368,163.74499476313633,6.467139849002799
6.81188812281083,10.622505212257591,14.781959967249916,134.9075498783345,5.498584325776147,161.12876043921344,6.487447897484802
6.845802281749661,10.55009253921493,15.136902878415698,136.02625056419564,5.424403663557914,158.62755198973005,6.506070368288109
6.883331702125854,10.488711038058874,15.518385620989768,137.03138904682046,5.349378061420116,156.24363377719027,6.52292397546875
6.924199881613201,10.439142808236692,15.927580802474234,137.92360799785413,5.273718071953949,153.97877296425182,6.537929280142659
6.968100655953389,10.402078345390686,16.365496274948548,138.70411385566743,5.1976374134536645,151.83433840808632,6.551012871722259
7.014701991633916,10.378113802360469,16.83293722654082,139.37466678381858,5.121354114806124,149.8113095672482,6.562113796222186
7.063653146841279,10.367743953420113,17.33050322068907,139.93758137677574,5.045091337182971,147.91023538531525,6.571190752688388
7.114594350345396,10.371353484480364,17.858642674835266,140.3957758175332,4.969077766091282,146.13119797963074,6.578225978151411
7.167165271332566,10.389212853979393,18.41773263934653,140.75280171678995,4.893548305807583,144.47378294842406,6.583226742095143
7.2210087104165375,10.421481581388736,19.00812422065562,141.01278297411898,4.8187440427916375,142.93704593808226,6.58622727242557
7.27576979419195,10.468215206424862,19.630136533559753,141.18028915842,4.74491010632315,141.5195008457524,6.587290021120303
7.331093828281177,10.529370076977001,20.284023103169076,141.2602142377721,4.6722925124584185,140.21915636998438,6.586503357925455
7.386625410281087,10.604805161789383,20.969942142722253,141.25770616065023,4.601136252576868,139.03357363531393,6.583976088997863
7.442009144512989,10.69428421278388,21.687980000672827,141.1781693495962,4.531684691793879,137.9598983925288,6.579831217039839
7.496890584071416,10.797479632391184,22.43825699800228,141.027316710559,4.464178277340412,136.99486034184443,6.574200122842342
7.550916409028375,10.91397736160901,23.22104667220992,140.8111873510789,4.39885188623366,136.13476429433277,6.567217723476916
7.6037349405794625,11.043283293255886,24.036807365791617,140.53608101545285,4.335932051976598,135.375496901992,6.559019047695861
7.654998829419386,11.184831049832704,24.88611831760076,140.20846623503988,4.275634816715409,134.71255370727405,6.549736889435971
7.704369481394711,11.337989882497798,25.769580072817824,139.83493782454607,4.218163997303833,134.1410817559996,6.539499975158996
7.7515213386834025,11.502075593383159,26.687721334146296,139.4222186735313,4.163709552142303,133.65593425905726,6.528431312756673
7.796146102500872,11.676367597238983,27.640924692916403,138.9771516350738,4.112445793747742,133.2517280826588,6.516646314282561
7.837957504628237,11.860127228837719,28.629375995116366,138.50666114738445,4.064529785620838,132.9228895408178,6.504250501590235
7.876694535956641,12.052611366666902,29.653037747201825,138.0177096943135,4.020100740093558,132.66368019379385,6.4913373262402425
7.912121177945303,12.253083506815473,30.711633639951685,137.51726769550197,3.9792802547747357,132.46821869342105,6.477986944091981
7.9440238118842625,12.460831370194791,31.804633067388632,137.01229120962878,3.9421724283176105,132.3305267092388,6.464266208950661
7.972207985502807,12.675198045346178,32.93124784094191,136.50970179855017,3.908863616824977,132.24460130282495,6.450229402781906
7.996495245356166,12.895617617777656,34.09044949544087,136.0163671671929,3.8794221849511077,132.20449739912414,6.435919024470654
8.016721156214691,13.121634379170338,35.280983884423286,135.5390807764208,3.8538982710561096,132.20439943127465,6.4213662177364
8.032735131939896,13.352896542332282,36.501366394811946,135.08453385417994,3.8323231769870807,132.23865978727227,6.40659104384836
8.044401065657986,13.589136062740042,37.74987783819874,134.6592658115745,3.814708343683476,132.30180408776542,6.391603311241981
8.05159791759194,13.830150528982546,39.024576712614135,134.26959373234172,3.8010447024621157,132.38851757955536,6.376404532512008
8.054220520654184,14.075791330712384,40.323309486239914,133.92154684517388,3.791303041327281,132.4936193779716,6.360990910679767
8.052180810571373,14.325959676290772,41.64370098932636,133.62082251028048,3.7854349427918734,132.6120344954321,6.345356170252099
8.045409368838332,14.58062621887829,42.98313855851693,133.3727422342242,3.783373379466886,132.73878022683934,6.329493130960492
8.033857179178318,14.839881960150839,44.33877623262146,133.1821784682962,3.78503290489334,132.86898152194598,6.313394363913367
8.01749805107516,15.103985731213712,45.70756210500218,133.05346414113342,3.790310479254932,132.9979199729241,6.297052223278983
7.996332605986972,15.373367350917754,47.086266974057146,132.9903259676436,3.799087225401686,133.1211038280659,6.280457962648217
7.9703933050521965,15.648596779826338,48.471519416852324,132.99585533933296,3.8112298495738712,133.23433584263006,6.263600799038069
7.939748307716566,15.930352557825856,49.85990274686445,133.07250294306724,3.8265908346757103,133.3337570210987,6.2464683074524086
7.904502102028008,16.21939453655329,51.2481208041517,133.22209582736915,3.8450077835565835,133.41585467407785,6.229048031977019
7.864792635691191,16.516533576546422,52.63312813989266,133.44587560637024,3.866302778567125,133.47743679524586,6.211328978538719
7.8207872278280055,16.822602599337614,54.012142437274164,133.7445335956341,3.890282465517823,133.5155889616611,6.193302171170506
7.772679823744891,17.138430823940688,55.38258561776504,134.11822262683694,3.9167388861657195,133.52764140903074,6.174960567761206
7.720689360272906,17.46482116270989,56.74204268790625,134.56657113020663,3.9454506592493956,133.5111602988324,6.156298994416109
7.665057408470148,17.802552783840568,58.08826673090892,135.08877365161752,3.9761845828316273,133.46394873573718,6.137314771250156
7.606044695018062,18.152437571840654,59.41919824066864,135.68378248140013,4.008698249929378,133.38404218171402,6.118009565276406
7.5439278241474845,18.515414453481466,60.7329659287649,136.3505029211441,4.042743327793675,133.26969652793056,6.098392070969963
7.4789971424719015,18.892619394789868,62.02786551814331,137.0878913924585,4.078067982317242,133.11936226595148,6.078479956266706
7.411554872550753,19.28539122772637,63.30232316286945,137.89495563409844,4.114418439599862,132.9316408984485,6.058299539282053
7.341912256995988,19.695232962732113,64.55485125702496,138.7706996917168,4.151541451652186,132.70523893989005,6.0378834731775415
7.2703867369152935,20.123761842885038,65.78401830962824,139.71404541421992,4.189188277099797,132.43893212496394,6.017268869243777
7.197302844043069,20.57265996644779,66.9884680796995,140.72374832772903,4.227119425429687,132.13154158349028,5.996497835028405
7.122998657273811,21.04363868790834,68.16698884183772,141.7983268701089,4.2651096675455324,131.78193513516658,5.975619289308283
7.047832999492289,21.538423981106558,69.31857390225314,142.9360419783293,4.302952895982896,131.38906005466248,5.95468961098795
6.972186708942599,22.05873902912396,70.44244137154811,144.1349539011261,4.340465408730433,130.95197750502444,5.933771907878973
6.896457657900722,22.606272726509317,71.53804341582908,145.3930118878265,4.377485800401068,130.46986991769026,5.912935109493837
6.821053970707314,23.182655195879867,72.60507465951244,146.70808181818884,4.41387193411808,129.94202853890994,5.892252652315605
6.746388707415994,23.78944674823912,73.64346435154948,148.0778811491468,4.449497736588545,129.36783633486857,5.871799629901303
6.6728758151589105,24.42813258267051,74.65335708302892,149.49987360142973,4.484251383727565,128.7467514440954,5.851648736565145
6.600925407642891,25.1001347065304,75.6350907838411,150.97117128388618,4.518034237452286,128.07830245405944,5.831866517354121
6.530937890079785,25.80686595422501,76.5891694414593,152.48846124613533,4.550759322364047,127.36211166455679,5.812510886891689
6.463298187286507,26.54981242371841,77.5162238375011,154.04796132440205,4.582348769552612,126.59794464389309,5.793630276677655
6.398371241564003,27.330568678679157,78.41696158267354,155.64539729022567,4.612730864075715,125.78576534604571,5.775264134768223
6.336498767603126,28.15078929074112,79.29212343976585,157.2760006727409,4.64183790248911,124.92577685839288,5.757443986533766
6.277996017647683,29.01211761382533,80.14246419705485,158.93456523498608,4.669605697094497,124.01843523943835,5.7401950764226015
6.223147679271634,29.916136826417066,80.9687510516219,160.615587120867,4.695975109566651,123.06443560593661,5.72353873019593
6.172203429065678,30.86431793218753,81.77174651014893,162.31342162954144,4.72089466954735,122.06468165867413,5.707494453217618
6.125373852479088,31.85794932700634,82.55216772587477,164.022364769663,4.744322131366001,121.02025067284855,5.692080693351923
6.08282744421091,32.89806786683965,83.3106633823398,165.73666265922904,4.766224722867753,119.93237145755661,5.6773142295455115
6.044690069588865,33.985403703583025,84.04783190668476,167.45051523498807,4.786580344588129,118.80243137972309,5.663209397964286
6.011047429808894,35.12033613845161,84.7642443005431,169.15809667244264,4.80538032493766,117.6320001421479,5.649778283787332
5.981948888529988,36.30285933209468,85.46043732840896,170.8535608091459,4.822631351758892,116.4228461270619,5.637031292896951
5.957410615498275,37.53256451527969,86.136893095127,172.53102139829954,4.8383550565760265,115.17694556738599,5.624976941378211
5.937417877998746,38.808643319353926,86.7940323047384,174.18454024705667,4.852586486529691,113.89650205531734,5.613620605734692
5.921927303621528,40.12989871123671,87.4322287521502,175.80815604380382,4.865373440295015,112.58398246978521,5.602962721071239
5.910868838242595,41.494744388415064,88.05183714165332,177.395982991003,4.876777047105096,111.24214646104238,5.592997378409772
5.904146366496687,42.90120363042948,88.65322223091178,178.9423824106042,4.88687197977716,109.8740369666883,5.583711956574853
5.901636988825401,44.34696018648423,89.23679420094362,180.4421217723363,4.895744994476415,108.48293461066237,5.575087477142462
5.903190736029785,45.829487962567484,89.8030600502192,181.89041848780053,4.903492521179819,107.07230620604741,5.5670991444033
5.908632844905613,47.34618721716738,90.35267849044943,183.2828688733883,4.910218591640396,105.64576134840443,5.559717168946413
5.917768385393009,48.894435261566066,90.88649473085394,184.6153335071428,4.916032932669019,104.20701663159325,5.552908490824941
5.930386450178157,50.47155427817197,91.4055387704907,185.88384910636367,4.9210478650665905,102.75986510380217,5.5466390748555865
5.946262447013227,52.07475433546913,91.91099099705984,187.08461442464747,4.9253736003353845,101.30813920887876,5.540875144665237
5.965161936493111,53.70109085042202,92.40414317474027,188.2140402312256,4.9291131253382146,99.8556589939803,5.535582852519689
5.986849875435457,55.347452352772216,92.88637623334475,189.26879219402332,4.932357930191006,98.406175845405,5.5307280332412745
6.0111020822717265,57.01056944534704,93.35914700996659,190.24578205595353,4.93518532298518,96.96332500693312,5.526277791986761
6.037712348616612,58.6870153576029,93.82397183819144,191.142157171239,4.93765777760552,95.53059326173104,5.52220355930494
6.066493420140014,60.37319087997995,94.28240340444404,191.95534417513497,4.939823966629332,94.11131162174988,5.518483389514402
6.097275648736923,62.06532748607639,94.73599877173642,192.6830982841218,4.941720352216879,92.7086747968701,5.515102375198078
6.129922971801464,63.75952859824493,95.18629978768308,193.32348193966752,4.9433724039143625,91.32576795089064,5.5120524567079086
6.164406960122518,65.45181894472387,95.63484677555113,193.8747835651837,4.944795636796608,89.96558251316776,5.5093338990869904
6.200946137024255,67.13818094522993,96.08318604970675,194.33543484086715,4.945997306946231,88.6310129828445,5.506959175741604
6.240142286623421,68.81459348151348,96.53282711545184,194.7039578936015,4.9469786217862834,87.32483309741221,5.50495656564821
6.283039512637246,70.47707061372286,96.98518351519753,194.9789495371548,4.9477363901275595,86.0496674924203,5.5033704549112485
