HandOpen,HandClose,Wrist Flexion,Wrist Extension,Supination,Pronation,Rest
49.45288747196078,125.58634228370413,66.11696081432012,23.13151435920457,68.51906269470744,40.86416154539881,24.939157460425314
48.7014763986909,125.05017618905882,67.37602167874655,23.328923041224368,68.25856268437887,40.68627141433152,24.94981360739515
47.94915654910541,124.48454108264927,68.64182260967137,23.51833398196956,68.00935072993205,40.50223788077195,24.963815723593886
47.19674924927261,123.89163260437401,69.9112534209446,23.698965507975362,67.77302612396271,40.31243145357662,24.981151395663794
46.44506477447651,123.27366233595224,71.18110828432668,23.870082737499626,67.5509370507646,40.11731473053291,25.001796202437575
45.69489861698757,122.63285611581858,72.44808493586167,24.031002710271007,67.34416171122945,39.91741118625962,25.025723800793372
44.947039369126394,121.97151142214797,73.70882437375158,24.18111116342978,67.15349880695656,39.713269060706736,25.052904715630046
44.20227779225884,121.29207644292755,74.95998174209763,24.319877097886152,66.97946068653916,39.50543200552718,25.083295124569165
43.46140609311838,120.59718262382886,76.19828362513687,24.446851548846453,66.82226501444505,39.29442645213387,25.116830147564098
42.72521879098084,119.88962834091494,77.42054527673321,24.561654915889275,66.6818339488483,39.08077002464142,25.153429754389755
41.99454676337815,119.17232742349395,78.62365530685942,24.66396650452258,66.55781480563802,38.86498708271077,25.193007571055485
41.27032849152725,118.44822629417602,79.80454241832183,24.75352224571958,66.4496181917665,38.647613125931606,25.235468232023454
40.55366892409301,117.72022133635434,80.96014038985375,24.830114622926036,66.3564480580543,38.42918485220245,25.280694769221885
39.84585133544557,116.99111211501828,82.0873702789648,24.893586915224727,66.27731079487079,38.21022570327195,25.328542336713372
39.14832658724426,116.26359564886432,83.18314948918817,24.943823680102202,66.21102301561382,37.991235019299175,25.37884808088263
38.462701476575205,115.54028020365922,84.24441802568859,24.9807477836501,66.15623584152945,37.77267885130924,25.43144645298489
37.79071411222417,114.82367928885729,85.26816084796243,25.004328482970372,66.11146283919663,37.55497973822423,25.486172589027895
37.134189441829285,114.11616618683064,86.25141497502902,25.01459076271071,66.0750937282485,37.33851248515143,25.54285291899395
36.4949858270646,113.4199133865321,87.19126561719895,25.011614782355966,66.04540171123668,37.12361645441858,25.60129893922023
35.87494678535838,112.73684541253846,88.0848408448643,24.99552788664779,66.02056881027613,36.910621131524906,25.66131439348843
35.2758688371125,112.06861025357304,88.92931989566176,24.96649957698023,65.99873712004421,36.699863108398404,25.722705838042085
34.69948343819429,111.41656481711709,89.72196853938725,24.924743682922593,65.97806023962227,36.491679626332676,25.78528170612092
34.14743690602012,110.78176449773277,90.46018580003305,24.87052158467706,65.95672637855381,36.28638958710711,25.848841469310994
33.62126068337771,110.16494682585713,91.14152757913837,24.804139549218966,65.93295959673641,36.08427984361713,25.913169653769856
33.12234431040568,109.56651887769183,91.76370327065031,24.725941258112076,65.90502081290298,35.88560053348178,25.978043154594925
32.651925109814314,108.98656970346323,92.32458015211824,24.63630137213743,65.8712159529581,35.69056113687589,26.043242384768156
32.211090299890095,108.42490274250544,92.8222197249251,24.535625836327664,65.82991914384155,35.4993204636236,26.108551282047248
31.800774012795948,107.88105747937543,93.25492287779761,24.42436034256498,65.77961507338892,35.31197380962108,26.173746740925996
31.42174111175703,107.35430788618918,93.6212450251996,24.30299928539744,65.71893451887256,35.128547844133884,26.238592887565552
31.07456783184405,106.84365688397084,93.91997926967942,24.172084604906292,65.646657578821,34.94901198531135,26.302849449887805
30.759634142772516,106.34784477310164,94.15013649337675,24.032194840721953,65.56169607242867,34.77330146218506,26.366284050254006
30.477130457221378,105.86536559484638,94.31093723751577,23.88393540506743,65.46307527415107,34.601336270343786,26.42867286249396
30.227065138363812,105.39447700928145,94.40180359839943,23.727935390238112,65.34991576990171,34.43302751905309,26.48979081647405
30.009261602900935,104.93320449637176,94.42234302372937,23.564844169554785,65.22141243746216,34.26827365647393,26.54940807943948
29.823352858824464,104.47935553504219,94.3723497526208,23.39532283875332,65.07681819307486,34.10695068499219,26.60730229552083
29.66878778514159,104.03055242441128,94.25186758213873,23.220036708126536,64.9154377226592,33.9489001136847,26.663274262175598
29.544848030933892,103.5842711000502,94.06130321073499,23.039655119534828,64.73662661907582,33.793918709005425,26.717149330359355
29.450660881144092,103.13786885051928,93.80150413487819,22.85485383069596,64.53979980462532,33.641753879920934,26.76876548810629
29.385200800318202,102.68860231975033,93.47374646130791,22.66631156865414,64.32445817879469,33.49210759796314,26.817964863332005
29.347287992345997,102.23364980955073,93.07967317713806,22.474699827822477,64.09021836343267,33.344646325523364,26.86459886621583
29.33559585066914,101.77014421316242,92.62123842668632,22.280672870335515,63.83682268640956,33.199008276574965,26.908538141124943
29.348668029898857,101.29520798738476,92.10066394956293,22.084866320495934,63.56413707640583,33.05480327289652,26.9496725806431
29.384933910221363,100.80597766531619,91.52039262334854,21.887904280390355,63.272155796052736,32.91161039835294,26.987901321238777
29.44271628768501,100.2996184312474,90.88303625579255,21.69040445952984,62.96100869967038,32.76898098862704,27.0231269218514
29.520241147780464,99.77334342253823,90.1913230287776,21.492973992836326,62.630957962447276,32.626447865731116,27.055262808065972
29.615660364750777,99.22444528693606,89.44805014291316,21.296202863886087,62.282385592166484,32.48353439972548,27.084245039549575
29.727080626468688,98.65032733919658,88.65604979816,21.100668613034763,61.9157785173626,32.33975693681073,27.110033568239565
29.852582149422876,98.04852044075174,87.81817115223586,20.906952862430625,61.531712249990925,32.19462071801159,27.13260271074957
29.990224224753007,97.4166896729636,86.93726687755851,20.71565199484602,61.13083911944866,32.04761885114003,27.151935566013133
30.138051249537405,96.75264471944136,86.01617441938109,20.52737010231959,60.713892393592836,31.89826292675724,27.168032438143698
30.29410874766007,96.05435981548678,85.05769549759643,20.342703646903978,60.281698442252356,31.746179908250777,27.18092348080813
30.45646218706158,95.31999417489746,84.06457801484832,20.16223193075157,59.83517400292855,31.591255278416185,27.190669367855534
30.623208051544083,94.5479008375486,83.03949873710303,19.986515040468024,59.375307555849716,31.433741627185935,27.19735201178886
30.792479655205664,93.7366266076803,81.98504772047369,19.81609169500635,58.90314717411076,31.274283328507885,27.201072732514987
30.96245685564465,92.8849189487991,80.90371743168019,19.651470959543865,58.4198066310848,31.11387616196804,27.20196409327786
31.131380694507993,91.99174614389717,79.79789470123437,19.493119110101457,57.92648618103344,30.953795524568967,27.200199643793685
31.297565713174837,91.05631502642734,78.66985719915856,19.341450109300983,57.42450655344675,30.79552105260889,27.19598602913854
31.459403781732743,90.0780705124825,77.52179048800441,19.196828573985385,56.91534385940012,30.640685365846814,27.189543920733374
31.6153607860066,89.0566833331695,76.35583254426932,19.059582103498283,56.40063514355597,30.49104967137018,27.18109706468235
31.763974573711348,87.99204372168535,75.17411983258053,18.930008186983954,55.88214488262745,30.348482822874033,27.17087612504865
31.903861669074253,86.88426771810182,73.97880829084909,18.808368997638908,55.36171827504847,30.214942962294618,27.159122874891654
32.03372937681075,85.73370490780805,72.77207065104852,18.694884673769064,54.841249870002706,30.09248441191543,27.146081040130877
32.152381607456725,84.54093368572947,71.55607926579998,18.589736479181706,54.32267136706356,29.983277392724965,27.131981684387704
32.258713879129104,83.3067464516514,70.33298085023883,18.49307596615331,53.807937963450236,29.88959890795459,27.117042137585344
32.35170589497717,82.03214123341543,69.10487585127989,18.40502792784753,53.29899727197048,29.813782705670587,27.101482362542022
32.4304226593452,80.71832726273173,67.87381126807662,18.325683780719736,52.7977503166711,29.758147536035676,27.08554008475898
32.494024258100005,79.36672980376797,66.64177886687357,18.255094185748472,52.30602405482957,29.724922156320527,27.06946769222326
32.541772189523364,77.97897817711359,65.41070616647909,18.193270014823987,51.82556489353629,29.71617822668131,27.053517265798522
32.57302511948869,76.55688245388566,64.18244235109019,18.14018946912423,51.35804445127124,29.733776608483787,27.037932424494688
32.58723400179812,75.10241555373139,62.95875424240871,18.09580078067136,50.905057342007986,29.779325162929,27.02295359159532
32.58394874854657,73.617706465228,61.741339766130366,18.060016146783596,50.468100719730984,29.854144181563054,27.008824500395107
32.56283142119655,72.1050343010883,60.53184529666501,18.032703935562818,50.048542723391535,29.959239858395307,26.99578699247848
32.52366033303276,70.56681207003794,59.33187351529487,18.01368806018074,49.6475902202622,30.095288741840868,26.984067430347572
32.4663212777596,69.00556577023926,58.142999188787705,18.002754753382966,49.266261139464866,30.262632960653313,26.973869511826052
32.39079900315711,67.42392877125698,56.966813541897615,17.999658129974126,48.90536607517535,30.4612812793133,26.965380573458297
32.29718125931785,65.82465762023358,55.80497156980251,18.004119151189823,48.565503786464326,30.69091117952708,26.958779186568336
32.18566981727097,64.21064490404581,54.659199999482105,18.015823868294998,48.24707359006688,30.950871967028004,26.954229055033192
32.05658169666571,62.58490606582117,53.53126741230013,18.034429817978594,47.950301230791894,31.240192549981675,26.95186401917114
31.910336704801775,60.95054873502452,52.42295109250278,18.05957967145722,47.675264350343326,31.557596921235227,26.951782204416013
31.747446633437413,59.31074746295899,51.336020103936434,18.09091137942679,47.42191243964761,31.901525751600705,26.954055350461456
31.568518478011086,57.66873258854863,50.27222343673472,18.12805798189744,47.19008855198531,32.27015847802049,26.9587390150106
31.3742622890545,56.02778156455011,49.23326524345078,18.170642794174803,46.9795452656865,32.66143331319374,26.965869922207652
31.16548696375202,54.39119763352101,48.22076831839999,18.218279997140453,46.789943038554604,33.07307054758536,26.975455593576513
30.94308519125762,52.76227771192223,47.23624244584511,18.270581408851054,46.62083879063974,33.502606294004075,26.98747183912465
30.708020930874987,51.144285843681104,46.2810700517027,18.327159937787027,46.471682807933206,33.94743295429727,27.00187337357821
30.46132150786545,49.54044103538668,45.35650480250864,18.387624052729656,46.341846572557216,34.40483252237049,27.01860401196436
30.20406566438975,47.95390895823586,44.46366745947705,18.451570454775528,46.23068503220196,34.8719959584551,27.037592275522353
29.937368159283707,46.387783868451784,43.603531791095975,18.518586540330677,46.13758933419033,35.34603553129287,27.058738032797294
29.662370816299234,44.84506388200583,42.77690908349132,18.588263406039474,46.06198897614654,35.82399979988063,27.081908612986673
29.380239599213915,43.32863543946587,41.984441649031,18.660206405130094,46.00331924048286,36.302894466040875,27.1069519621968
29.092156570643873,41.84127364615025,41.22660460373518,18.734033364033554,45.960994321608965,36.77970457186001,27.1337123977544
28.799302343281397,40.385644439965574,40.50370759490132,18.80936655282265,45.93440592014084,37.251411867102284,27.16203169609484
28.502835645989332,38.96429276071126,39.81589308044585,18.885830405932378,45.922942816800536,37.71500711533721,27.191739149291596
28.203879949729185,37.57962139951567,39.16313536045282,18.963056696083193,45.92601802503327,38.16750264339133,27.222648248595483
27.90352231399055,36.23387794078774,38.545245136675106,19.04068839556306,45.943090253609924,38.60595323493645,27.254566574464267
27.602818430729403,34.92915643457597,37.96187988037555,19.118376580028148,45.973666628927795,39.027492210209694,27.287306418716014
27.30279179643958,33.667401358812434,37.41255457885757,19.195774965457783,46.01728258829962,39.42937726675579,27.320683769410437
27.00442241445891,32.450399889930715,36.89664841795576,19.272540203954872,46.07347241852351,39.809029513568994,27.35451025774872
26.708632035081955,31.279765914984715,36.41341440379459,19.34833864502364,46.14175097553332,40.164058208692516,27.388592512707415
26.416276739912817,30.156930534365177,35.96200367036559,19.42285108214844,46.22161463534967,40.49227992929815,27.422743405124578
26.128149205148482,29.08314408809899,35.54149901845355,19.49577076113104,46.31254834451084,40.79174045155413,27.456791422931612
25.844981140540458,28.059478315930487,35.15093598216869,19.5668040470575,46.41402265929087,41.060733832346855,27.490575079173507
25.567438281047004,27.08681908880714,34.78930325632546,19.63568732283508,46.52548743660088,41.29781110556083,27.523928993790015
25.29611322173305,26.165857658659476,34.45553798554158,19.702215993791192,46.64637580240255,41.5017861032217,27.556679008745
25.03152682333359,25.29709480488846,34.14853123635036,19.766262489795047,46.77610956820196,41.67174578264842,27.58865222403969
24.774139209093047,24.480857064509685,33.86714013274505,19.827770945160868,46.9140943937466,41.80705230218156,27.61968780141956
24.524358415961093,23.717308048274482,33.61019350150095,19.886742882778794,47.05971185035141,41.907326571269195,27.649633441989675
24.282538077220625,23.006444439662573,33.37648785092107,19.943232671032842,47.21231875536209,41.97242986477009,27.678333077914534
24.048971107667807,22.34808471723595,33.16478548312613,19.99735151882482,47.371259945216536,42.00246317362914,27.705623599372217
23.82389192816137,21.741864215732917,32.97382880051768,20.04926422364808,47.535890872260396,41.99777457036437,27.731346202342205
23.607490131885406,21.187241309664195,32.802367762200674,20.099173232815733,47.7055883319124,41.95895065827381,27.755358096785987
23.399925559837175,20.683507866824055,32.64917906216195,20.147301794116075,47.87973466338744,41.88679032182526,27.777530347405442
23.20133358059259,20.229795321705577,32.51306562709123,20.19388651612845,48.057686157469284,41.78227563302383,27.79773659501896
23.011825136970142,19.825077240191064,32.39285049332803,20.23917622856645,48.238746932982934,41.6465457497847,27.81584929660845
22.831497558127506,19.46817686898392,32.28737948601585,20.283428266403643,48.422170842228105,41.480876370381786,27.831750567918377
22.66045612831107,19.157786238437886,32.195526037171135,20.326898503852867,48.60719942770462,41.28666796952678,27.845344456042742
22.49882534440262,18.89249221086497,32.116186029933445,20.369829707911617,48.79311444439156,41.0654331156664,27.856554439594674
22.34674042308093,18.670794738521913,32.04826664025212,20.412446179484053,48.97927802413664,40.81877321955584,27.865309986423537
22.204336352561455,18.491112064138367,31.990684853419204,20.45495620461615,49.165148567974704,40.54835126215195,27.871540799702288
22.071751093909057,18.351787206886357,31.942381237530025,20.497554211927753,49.3502729419209,40.25586770364272,27.87518678472877
21.949136462628594,18.251107140781148,31.902334290261145,20.540416432955716,49.5342649477305,39.943037973329695,27.876209829812304
21.83665962106757,18.18732410270735,31.869559696175692,20.583694870781652,49.716776716227244,39.6115714471483,27.874591134726607
21.734489134830348,18.15866358494595,31.84309944526756,20.62751746102088,49.89746644136419,39.26315629823202,27.870317182073773
21.642774216833395,18.16332098943063,31.822019122522132,20.671993439087025,50.07597657941913,38.899452897059284,27.863370902465157
21.56162989186517,18.19946121971738,31.805421532412186,20.71721516024323,50.25193170922259,38.522092384233545,27.853736176804365
21.4911324276984,18.265228479152213,31.792463655331446,20.763251457978487,50.4249434460155,38.13267242554015,27.841405427909937
21.43131743799855,18.3587583442781,31.782359072099272,20.81013735361558,50.59461117715791,37.73274760985349,27.8263776793557
21.382173062073473,18.478180717256382,31.774366289885805,20.857869401485353,50.76052171038015,37.323824435356485,27.808650489905087
21.343634438301745,18.62161507791142,31.767780236192866,20.906410496379156,50.922245776281336,36.90737014063358,27.788219626656847
21.315594543731372,18.787171656723416,31.761937848665095,20.955697211261338,51.07932638432607,36.48482711030544,27.765090882559697
21.297930941360462,18.972966018317948,31.75622760352946,21.0056408433484,51.231265128738094,36.05761638084648,27.739290618312946
21.290525143038696,19.177136398329772,31.75008716754704,21.056124827946956,51.37751309767598,35.627126470293284,27.710862058566992
21.293260836650777,19.397849886270045,31.74299069463873,21.1070105039574,51.517464165744265,35.19469569104837,27.67985420770213
21.306017478657406,19.633299699546324,31.7344407423546,21.15815462766184,51.65044720190534,34.76159541926137,27.646320771512116
21.32867808590731,19.881707184040906,31.723971403608502,21.20942506963736,51.77572156750864,34.32902015171679,27.6103333474533
21.36114332234129,20.141334572598772,31.711152805906792,21.260701881453706,51.89248429522089,33.89808778074008,27.57199300571983
21.40333149636974,20.410498326841758,31.695586069492325,21.311867073328738,51.99988678273034,33.469845530737125,27.531425154665346
21.455161623568454,20.68757067360574,31.676891774614333,21.362795789015927,52.0970510606944,33.04528097931235,27.488763941218654
21.516533798698756,20.97097243003294,31.65470430077255,21.413359214693887,52.18308888290592,32.62535125771133,27.444145297178515
21.58731654171937,21.25917266362259,31.628677559515673,21.463437020317663,52.257133390028756,32.211028438578474,27.397715956556908
21.667338743550552,21.550705583117814,31.598492338366672,21.512925034854852,52.31837249965138,31.803328960678716,27.349643956631102
21.75638068331821,21.844195352434756,31.563853175315682,21.56173062509945,52.36606373304689,31.40330977097661,27.300114024949522
21.85416369538565,22.138368337217113,31.524478361309246,21.609764612188574,52.3995316976804,31.012055007739516,27.249311638789464
21.96034562428096,22.432050213894136,31.48009886272053,21.656940254000283,52.418164286000724,30.63067460780151,27.19741341491031
22.074531449357085,22.72416601193624,31.430472663729656,21.703177472110728,52.42141151832933,30.260301620041435,27.144591503159578
22.196295488547054,23.013749116746144,31.3754004541428,21.748403293919775,52.408777600202356,29.902070156118448,27.09101971702494
22.325196319783117,23.299943810639586,31.314726262478768,21.792545811257945,52.37980268969246,29.55707909698953,27.036867157735635
22.460774153027103,23.58199185482654,31.248326026848826,21.835529050900185,52.33404430679058,29.22635563999826,26.98228391256837
22.60254181442145,23.85921312137653,31.176100444065636,21.87727559298499,52.271072876858454,28.91082589513686,26.92739652930564
22.749982908262236,24.130994523665542,31.09798035269737,21.91771235764398,52.19048432084412,28.611296562370004,26.872320232248033
22.902555514075242,24.396788175639667,31.013935047681777,21.956769939613526,52.09191334005353,28.328448639132844,26.817173082311207
23.05969226164681,24.656106650365757,30.923969943088256,21.994374931049602,51.97503199350776,28.062839125286867,26.762075489442516
23.220795063067836,24.90850901473271,30.82811514377875,22.030444384916947,51.839539942654405,27.814911623678185,26.70713966831017
23.38523240470543,25.153588089746616,30.726419503129488,22.064889178381886,51.68516377060424,27.585017483274775,26.65246745819325
23.552348177697066,25.39097029592123,30.618958313932325,22.09762161253729,51.511670212620054,27.373433054572853,26.598162998871878
23.72147981806942,25.62032237274998,30.505844783657174,22.128557403116424,51.31887938289641,27.18035754724002,26.54434484099166
23.891971569655073,25.841350299404343,30.387230678467045,22.15760927051306,51.106666084943306,27.005897731664312,26.49114138451554
24.063174615303435,26.053788193506488,30.26329644814051,22.18467813069091,50.87495742559104,26.850056069608282,26.438674808546697
24.23444111206816,26.257390182809093,30.134244143387264,22.20965035677376,50.62373986793647,26.712729808431522,26.38705241291431
24.40512218431413,26.45193364261169,30.0003008310733,22.232402909058862,50.35307191464373,26.593715490808105,26.336373919614786
24.574570837155406,26.637224873766733,29.86172425440367,22.25280804402462,50.06308877380381,26.492708570356122,26.286741653635314
24.742143446360885,26.81309474423965,29.71879881260998,22.270730976313477,49.75399490943909,26.40929549856376,26.238257723340393
24.90719683811105,26.979386614217926,29.57182408156641,22.286025502932105,49.4260511013796,26.342948734230394,26.191012127242406
25.06908834918722,27.135950229343713,29.421110691595704,22.29853659151161,49.07956369681326,26.29305224323553,26.145078702754535
25.22718917519857,27.282648045715895,29.266991868830868,22.308109841463807,48.7148803975948,26.258986308373842,26.100525545578158
25.38090711723921,27.419364547580535,29.109838714761604,22.314598406023194,48.33239086959829,26.240247441833965,26.057427306406847
25.529700334315134,27.54600659475261,28.950060744955742,22.317861357150413,47.93252554291687,26.236525355741257,26.015865116230536
25.673072787820733,27.66249589066334,28.788091759354703,22.317757806671462,47.51574979524659,26.24769767401151,25.975917353261288
25.810562383267055,27.76876435570301,28.624378435216975,22.31414593549683,47.08255902960033,26.27377742778409,25.937656229452347
25.941737700427744,27.864757639483287,28.459380382766962,22.306891062996957,46.63348292017102,26.314855828757192,25.90115649766749
26.066205840663798,27.95043898140295,28.293570181471928,22.295876075929787,46.16910107408471,26.37105186454517,25.866504004340527
26.183618762755827,28.02578447984886,28.12742226785415,22.281005056556,45.69006088939424,26.442468459280327,25.833789868691543
26.293667821095593,28.09077481573114,27.961398588860156,22.262202497407518,45.197084338848576,26.52915816905742,25.80309519260844
26.396072135212133,28.145397364766442,27.795946079254243,22.23941973934434,44.690962242614795,26.631102056816378,25.774484295820827
26.49057403353092,28.18966135189732,27.631505994803497,22.212650274951436,44.17254469545984,26.74819828357672,25.748014111531283
26.57694616352963,28.223610500835132,27.468519473933522,22.181938702314692,43.64273033043998,26.880250528934305,25.723746452455757
26.65500053238369,28.24732038692825,27.307419615279457,22.147372776064028,43.10245203659873,27.026951847655013,25.701746417532785
26.724587697791215,28.260888739249207,27.14861850353842,22.109067850887225,42.55266538451178,27.18787076890496,25.682069239345754
26.78558736548494,28.2644353018361,26.99250374956391,22.067158358161933,41.99435132070847,27.362450992289492,25.66475310147313
26.837902139676817,28.25811285947612,26.83944665392043,22.021798805519108,41.42853052711405,27.550027344873193,25.6498263106246
26.881460982816918,28.242114281916788,26.689808203124375,21.973165465108746,40.85627369280443,27.749844844079302,25.637315909951685
26.916225103124916,28.216665996491322,26.54393235491155,21.92145098521227,40.27870681265731,27.96106708176405,25.62724310058585
26.94218608102971,28.182016961245807,26.40213502855056,21.866854112793643,39.69702670482439,28.182775726288945,25.619610421418592
26.95935875319875,28.138436994505298,26.26470469054549,21.809574531625664,39.112524185312104,28.413970759231752,25.61439720598669
26.967781161153614,28.086226531009338,26.13191619492627,21.749818050508544,38.52659518144477,28.65357495402492,25.611569614454925
26.967524711130633,28.025726958982307,26.004041924841353,21.687803227191882,37.94073661581105,28.900438072965418,25.611092511862864
26.958701351678073,27.957319822083164,25.881347660119676,21.623758195212424,37.35653625329864,29.1533364194398,25.61292775217443
26.94145758875479,27.881417165225137,25.764079701494833,21.55790939958455,36.77565465443067,29.41097009337015,25.617022080569907
26.915963514819197,27.798457639312886,25.652457009194162,21.490472183080126,36.19979625466458,29.67196289232543,25.623302093502495
26.882410662488294,27.708913422367345,25.546672193021685,21.421649959415593,35.630676837190705,29.93486587070694,25.631684140300923
26.8410188314722,27.613293743750216,25.446894174607372,21.35163973717599,35.06999667738686,30.198162881352303,25.642086912887798
26.792039252588307,27.512133198593837,25.353263789300843,21.280635146726404,34.519429969046136,30.460278589033212,25.654431925553535
26.735747087141064,27.405973634947536,25.265882644069833,21.208822498977803,33.98063782392531,30.719590794061318,25.668634238502378
26.672429522640666,27.29535747190333,25.184806587790835,21.13637556104817,33.45529627719495,30.97444942475033,25.684598389814806
26.602378455391804,27.180836264722466,25.110052309600135,21.06345737116887,32.94512618305271,31.223209532387166,25.702227056142952
26.525890148785383,27.062978668226616,25.04160942519245,20.990228446535866,32.45191585080291,31.46428127641146,25.7214316925713
26.443266246851223,26.942364325577334,24.97944399116046,20.91685152908997,31.977519719028162,31.69617840202557,25.74213037749121
26.354809230087522,26.819570542854095,24.923492141739803,20.843488132835994,31.523828666739014,31.917540341934355,25.764234844946138
26.260814221471527,26.69516750722502,24.873656367911043,20.770294006763137,31.092740175940587,32.127127857189755,25.78764423141112
26.161567706756685,26.569725283935583,24.829813124105907,20.697420967139543,30.686148966407703,32.323810762237,25.812256206039407
26.05735909411723,26.443819041091647,24.79182375048261,20.625022808652464,30.305943305363797,32.50655720077183,25.837983292341992
25.948495627335806,26.3180221470472,24.759535334963093,20.55325752533383,29.953993464449244,32.67442216302307,25.864755793945758
25.835306202445796,26.19289542830125,24.732771338587312,20.482282272551224,29.632136732632173,32.82653947365682,25.8925123653423
25.718134266197076,26.068985928292577,24.711324352611076,20.4122453324045,29.34215887232342,32.96213769636689,25.92119541558351
25.59733313857537,25.94683356679046,24.694960103483538,20.34328417270472,29.08577241879466,33.08059307119569,25.950759874159857
25.473269870349647,25.826972063439687,24.68342708087667,20.275533661097125,28.86459872869751,33.181491286810726,25.981183350503407
25.34632811703058,25.70991837904213,24.676459373392525,20.209135240053385,28.680150841749185,33.26465183396399,26.01246247009909
25.21690078713103,25.59616082164891,24.673771769215524,20.14423696093882,28.53381016676072,33.33010679929193,26.044598245992752
25.085377972663355,25.4861590076199,24.675059220374873,20.08098942660247,28.42679874000894,33.37806294150732,26.07758751382471
24.95214287497784,25.38035445281001,24.680007082256328,20.01954738976657,28.36015225376132,33.40887011028714,26.111429894344838
24.817578651357866,25.279175568530015,24.688301590937453,19.960073894347136,28.334697308107383,33.42299673960688,26.146139040754182
24.68207496571884,25.183027437321858,24.69962803954872,19.902736925206675,28.351034849502522,33.42100397459497,26.181740921620904
24.54602373490267,25.092276260516737,24.713660180667198,19.84769796079025,28.40953361480965,33.403516330277654,26.218259916416397
24.409807875792698,25.007243566585473,24.730055948911613,19.795101702828074,28.510338292242817,33.37120349967694,26.255709834032324
24.273795906320373,24.92821095612887,24.74846724561908,19.74507359419293,28.653386775005444,33.32480197106721,26.2940992714085
24.138347645929645,24.85542161206307,24.768553733127035,19.697723479949975,28.83842064622398,33.2651775731186,26.333440325743236
24.003820743179176,24.789070508829735,24.789985987238957,19.653149894560755,29.06498649285876,33.19337599227343,26.373745534866718
23.870566648644974,24.72929306100726,24.812438286190627,19.611439375043876,29.332448321037692,33.11061739177806,26.41501431828699
23.73891858003821,24.67616642808662,24.8355845863797,19.572659705097028,29.64001834094593,33.01825366556113,26.457223967153563
23.609182784146096,24.629722938540024,24.859106117372985,19.536853758267387,29.986780971554847,32.91772609154733,26.500334548956243
23.481641052968577,24.589959940558785,24.88270264201949,19.504039378339332,30.371695871044334,32.810534205812154,26.54429860199026
23.356559819335942,24.556835765776196,24.906094451007775,19.474210965009263,30.79359531877795,32.698207097826995,26.58906090391738
23.234192009336674,24.530259075939426,24.929015802867685,19.44733635649503,31.25118220580473,32.58226925564033,26.634549343734154
23.11476889262771,24.51008483141053,24.95121286673118,19.423350636509035,31.743020339790903,32.46420320035981,26.68067117180706
22.99849638098493,24.496120669307,24.972451870832337,19.402154077005875,32.26752926524425,32.34541760468691,26.727321582291985
22.885564242824522,24.488134950020463,24.992525946375384,19.3836169174484,32.82302041733424,32.2272252222646,26.774394236242507
22.77615595292893,24.4858572721073,25.01124939484355,19.36758507197657,33.40777977974199,32.11082561809762,26.821780056558197
22.670445750763665,24.488975183548895,25.028445030455998,19.35388070316073,34.020138079859265,31.997286518711647,26.869356347179508
22.568588020664805,24.4971381906444,25.04393868682873,19.342299982565866,34.65848420586285,31.887524743761364,26.91698149734055
22.470713738566975,24.509970003612953,25.05756752400612,19.3326158054461,35.32125098000526,31.782291869407246,26.964503298498162
22.37693899158688,24.527076902451476,25.069193622585985,19.324588863965918,36.006908945291336,31.68216822178543,27.011770252460792
22.287374676593412,24.54804388691706,25.078707550972286,19.317980220474347,36.71396071843031,31.587564751689044,27.058631047074144
22.20212480249762,24.572425297993416,25.086019600902347,19.31255595402095,37.440921979224136,31.498728226465484,27.10492317528244
22.121275929551246,24.59974359995366,25.091052064839246,19.30808417562219,38.186294098714995,31.415748798045165,27.150465913782615
22.044891895108538,24.62950085246863,25.09374142718546,19.304333862347697,38.948537408844544,31.338583614862507,27.195067029970442
21.973020410677677,24.661191982042535,25.094042910195054,19.301082783795948,39.726050180788626,31.267110296060466,27.23853328379932
21.905700983044312,24.694307806758946,25.091926827332603,19.29813067362138,40.51716237837258,31.2011915787569,27.280669907516568
21.842962137297327,24.728331159728885,25.087370334151085,19.29530695285572,41.32014645646139,31.140712201440724,27.321271789217022
21.784812674478548,24.762740474378415,25.080358154352744,19.292468834331235,42.13322616921984,31.08557944802065,27.36012322585824
21.731242582945097,24.79702551107852,25.070895347120086,19.289496188849895,42.95457681772646,31.035714574161766,27.397013763474973
21.682238188614882,24.830700941976467,25.059017603015207,19.28629047310003,43.78234732619931,30.991053713214146,27.43175619112761
21.63779647019377,24.86330507946159,25.04478644619917,19.282776971476945,44.61471404567695,30.951548362405315,27.46418916909188
21.59792434328924,24.894391101168324,25.02827515495583,19.278904535437896,45.44992013603242,30.917154130151708,27.494167251290804
21.562627571510962,24.923524901455234,25.009561964932285,19.274640419636945,46.286264709117766,30.88781564998095,27.521557032895785
21.531902779160887,24.95029191406132,24.98873785680137,19.26996362768235,47.12206120049979,30.863457852737085,27.546249051474486
21.505739183112727,24.974304092581207,24.96591701962717,19.264863781597512,47.955598241290964,30.843980035027016,27.568173104700282
21.48412457480947,24.99519876304058,24.941235204017516,19.25934924440366,48.785115564617264,30.82924760932643,27.58729952916998
21.467044510161244,25.012631667235304,24.914839006731473,19.25345707610778,49.60879234734911,30.819083911200277,27.603627064004932
21.454471911146147,25.0262754039275,24.88688105960785,19.247254663078845,50.424743898899635,30.813262523553394,27.61717403273305
21.44635689267894,25.035828256190516,24.857526065828104,19.240834486610375,51.23103242071122,30.811497788278942,27.627983063271408
21.442628214126273,25.041023472433253,24.82695581445022,19.23430944565531,52.02569881501006,30.81343652273375,27.636129299035456
21.44320407802283,25.041628169803644,24.795362417618296,19.227808959195414,52.80680444746931,30.81865650663383,27.641716656495227
21.447997515503477,25.037436066314235,24.762935559634904,19.22147087907002,53.57246018572809,30.82667156197114,27.64486327923841
21.45691036111443,25.028266524850604,24.72985834841696,19.215428085038855,54.32083049613953,30.83693741068664,27.645691818834116
21.46982751251496,25.013973484876132,24.696315674602292,19.209794501647494,55.05011863908523,30.84885517129582,27.644333701055714
21.486621967825364,24.994454558506053,24.662501382878673,19.20465849121321,55.75854907720406,30.861775252965053,27.640937675520437
21.507163845053288,24.969649229233188,24.628612145921725,19.20008931167494,56.4443605871385,30.87500321247506,27.635667200810584
21.531320313268314,24.939527880713108,24.594835323722208,19.196151294111374,57.10581237172361,30.887804075264775,27.628686173507184
21.558946355931447,24.904085151470575,24.56134648232723,19.192912020129924,57.741195061188535,30.89940229100729,27.620148119593452
21.5898787937765,24.86334530794333,24.528318633957916,19.190439763929493,58.348838530428125,30.908979427100924,27.61020018701421
21.623941085058515,24.81737053044938,24.495928824422137,19.188799794985616,58.927113918214204,30.915673933894666,27.598993867316835
21.66095143980328,24.76625961114947,24.464351597176424,19.18805685500218,59.47442998296919,30.91858986661525,27.586686252211198
21.700722676063624,24.71013854016901,24.43374646310123,19.188278159050125,59.98922685338459,30.916824342726095,27.57343028382395
21.743053187090315,24.649155031847588,24.404253977618442,19.189529320220966,60.46997107693938,30.909510112063618,27.55936783794832
21.787719097038803,24.58348242834464,24.376003933730576,19.191864571870923,60.91515513338426,30.89584898470395,27.544634724384583
21.834477034803786,24.513324114531652,24.3491224717414,19.19531874872408,61.323307435878974,30.87512010449013,27.529369232279755
21.883074334705576,24.43890835195195,24.323726264386494,19.199906551747663,61.693013607933025,30.84667196403651,27.51371068369625
21.933253494073483,24.360477248766816,24.29991086663092,19.205625896191453,62.022935510536435,30.809910728369555,27.497788500039334
21.984746195385664,24.278283166318598,24.277749555035225,19.212456699582862,62.31181686464687,30.76428843321635,27.48171645211358
22.03726733510724,24.19259732938149,24.257304963111284,19.220352878417888,62.558481352054784,30.709293169794407,27.465602218671417
22.090520564671923,24.103718464259913,24.238637286372974,19.229235204021602,62.761831784910704,30.644444983239023,27.44956182207846
22.144212473225245,24.01196840517561,24.221797358387608,19.238994502169625,62.92084961856288,30.569298666732863,27.43372030969142
22.198060853026746,23.917678056198216,24.206813603978524,19.249505302850267,63.034592989605216,30.483449008714782,27.41819874784455
22.251791084494503,23.82117843635668,24.19368995353879,19.260638590555434,63.102196829231886,30.386532109681717,27.403105844827838
22.305132098859588,23.722805495106485,24.182418448897497,19.272265614226757,63.1228789909744,30.278222093954493,27.38854352606508
22.357824798767172,23.6229101034773,24.17299117042212,19.28425961592524,63.09595251084989,30.158229924230383,27.374614187117892
22.409638595581097,23.521858252607824,24.165396506411074,19.296504900115657,63.0208430203352,30.026310295533833,27.361415916269323
22.460378685795376,23.420022143226237,24.159605152778283,19.30890847284546,62.89710931268106,29.882272532920602,27.34903082895676
22.50987789421221,23.317776837451788,24.155564381317014,19.321402448187737,62.72446006724632,29.725985584307917,27.337522622447374
22.55798687553483,23.21550730974083,24.153208929866622,19.33393600999462,62.50276133884052,29.55737453529309,27.32694767009663
22.60457694547712,23.113613000823957,24.152475800621108,19.346466693479815,62.23204003669866,29.37642009924601,27.317364923054637
22.64955166102884,23.012499255450322,24.15330722696152,19.358959246753088,61.912491642447854,29.183182552292255,27.308831661282277
22.692851089521046,22.91256265338241,24.15564649887102,19.371389879509373,61.54449298595018,28.977854301889295,27.301391562614615
22.734442824920244,22.814185418283234,24.159444817785403,19.383746292833575,61.12861413687827,28.760806706610893,27.29507080660388
22.77431139198416,22.717743287733647,24.16468216150188,19.396020193654483,60.66562293292748,28.53259758637057,27.28988731865636
22.81245733651235,22.62361460508416,24.17138265961875,19.408201386936437,60.15648252531373,28.293948460714457,27.28586083253039
22.848901106501025,22.532178312674027,24.179609731118756,19.42028273816849,59.60234846184851,28.04571826704059,27.283009495232285
22.883679517886836,22.443803311335415,24.18944989047327,19.432271341500194,59.004566570197056,27.78888167050522,27.28133595828329
22.91683432025117,22.35883894461489,24.20100394465613,19.444191947086303,58.364664529991124,27.524504580845306,27.28081950356537
22.948405208630614,22.277610636693627,24.214390854236704,19.456077763816793,57.68433550551901,27.25371363021905,27.281421923397637
22.978434170374012,22.20041698199469,24.229750327570752,19.467959100843668,56.965423761019416,26.977667524190757,27.283094523162887
23.006971826743285,22.127523890319264,24.247231311075886,19.479862497827217,56.20991748476943,26.697541725190746,27.285772934302674
23.03407404412376,22.05915767476817,24.26697227329962,19.491819785865765,55.419940369982044,26.41452720240827,27.289366966427526
23.05979106573362,21.99550487614827,24.28908909296097,19.503874659526375,54.59773413272868,26.129830600021155,27.29376300274218
23.084161704333177,21.936722491780788,24.313677238605873,19.516079504948163,53.74563401807181,25.84467224210433,27.29884176047938
23.107220172727285,21.882949087612747,24.3408177378331,19.528489329577514,52.86604277057646,25.560291677213673,27.30449366233413
23.129007964909263,21.83430466618159,24.370573284579624,19.541163851801944,51.96140786040013,25.277955137465124,27.31061654564807
23.149576913073908,21.79088069646671,24.402977197432133,19.55417755611461,51.034204213082184,24.998946878907315,27.317102786118337
23.16898213410716,21.752730710807565,24.43803057774029,19.567624948345433,50.08691945723559,24.724543386201677,27.323834267656345
23.187277810622962,21.719868201949556,24.47571355194265,19.581613516656645,49.12203827475679,24.455984160379867,27.330691035076395
23.20452510484085,21.69227041954753,24.515997404328832,19.59625272293378,48.14203081241496,24.194461476468383,27.33756040633006
23.22080386495062,21.66988058842556,24.558843692388315,19.6116514500279,47.14935820626286,23.94116599328004,27.344333434925566
23.23621284506699,21.652605316562912,24.60419330802765,19.627925367471644,46.14649621259474,23.697389367729365,27.35089341581203
23.250857546314563,21.640315338486616,24.651958112623795,19.645203311561644,45.135953039104585,23.46460773882798,27.357111383748858
23.26483899222567,21.632856316512036,24.702022572265534,19.663623250941427,44.1202628978309,23.244480816687926,27.362853914701336
23.27825240292304,21.63006132355493,24.75425044469887,19.683321839825638,43.10197380183113,23.038789951450767,27.36799190437982
23.29119059007209,21.631752715563987,24.808485615526592,19.704428395653878,42.083665539918,22.849367362330508,27.37239848327835
23.303741938879714,21.637735598863394,24.86454560147988,19.727066116020314,41.06800100265112,22.678035793251464,27.375940409499034
23.315981981280096,21.647796896944143,24.922218967996088,19.75135268484656,40.05776730927982,22.52655619510356,27.37847703054202
23.32796788835143,21.661716472751575,24.981276178035213,19.777394143538697,39.05587078865941,22.396581255791798,27.379871004068477
23.33974222953815,21.67927978088792,25.041486902689577,19.80527663242805,38.065297915525,22.289618769304443,27.379997866989733
23.351339368134767,21.7002793590996,25.102626873138146,19.835064410290954,37.08906842979128,22.20700783339137,27.378741762399052
23.362784697409918,21.72450867263789,25.164470392786253,19.866803864691544,36.13018734409468,22.149902672802884,27.37598265230872
23.3740887344991,21.751764992589713,25.226782527588217,19.900524505237012,35.1915948873419,22.119257158495955,27.371591441826087
23.385247968317707,21.781868121409246,25.289320804211144,19.936232485720215,34.27612168599996,22.115811553867864,27.365438972497106
23.396258121242475,21.814678021663592,25.351838835428737,19.973903990970836,33.386461189133286,22.14009327656399,27.3574056211436
23.407128910501623,21.850092919146967,25.414082129912448,20.01348881613533,32.525159518350684,22.19243888387696,27.347377817264107
23.41788567527624,21.888033632177397,25.475779921896827,20.05492263421609,31.694605674108697,22.27302165042404,27.335236926634114
23.42855956172142,21.92843370252259,25.536645029202194,20.09813423877636,30.897010074911446,22.381860896099596,27.32085714191815
23.4391820745965,21.97124362804642,25.596385710022734,20.143040986074144,30.134379453173754,22.518810447114628,27.304117949215915
23.449792085429664,22.016437980386243,25.65471804747362,20.1895418784145,29.408500575805995,22.683541138874915,27.28491730197445
23.460443800727777,22.06401050984179,25.711366636224856,20.237519427731566,28.720935115943863,22.875527632052346,27.263170774137194
23.471201680986876,22.113957754011295,25.76605801616948,20.286849213712156,28.073019672583186,23.094040967047732,27.23880130407669
23.48212560138241,22.166264248815377,25.81852185156867,20.337406898252507,27.46586541377283,23.33814820452954,27.211736871815745
23.493260500956755,22.220898394338334,25.868504779931417,20.389065598361896,26.900363137004458,23.606720945579024,27.181922946787008
23.504638151758954,22.277814400609945,25.91578378658804,20.441688288856454,26.37720284528841,23.898452410080516,27.14933537974483
23.5162844681869,22.33694943142599,25.960165530115876,20.495129024924847,25.89689806984064,24.211884269793153,27.11397796496767
23.52821984198921,22.398214059758185,26.00147622378544,20.549248798368385,25.459795088124906,24.545440359367213,27.075870485949235
23.540449048793615,22.46148626715204,26.039558057037915,20.603932218501658,25.066065183895507,24.897453664719794,27.0350459769904
23.552950017850176,22.526619039925897,26.074278047332008,20.659090331875756,24.715695541610636,25.26617870045057,26.99156257755709
23.56567435919146,22.593457331524974,26.105536434822255,20.714654625452265,24.408491000099758,25.649800823762643,26.945514194170617
23.5785614312933,22.66184830008797,26.13326125940609,20.77057542705805,24.14408643570949,26.046453851644678,26.897024661386943
23.59155144514704,22.73163707962753,26.15739498402814,20.826827016115175,23.921964652106546,26.454237632206347,26.846230807717923
23.604585231093576,22.802659492692616,26.177890287471257,20.88341118910132,23.741474401189688,26.871223599082494,26.793272996111583
23.61759691815614,22.874748385150173,26.194720311128727,20.94035161884451,23.601840478633786,27.295451341001787,26.73830167044401
23.630513829737865,22.947752730633955,26.207889127734887,20.997681048597435,23.502163789141527,27.72492613834111,26.681486948492342
23.643265663859584,23.02154974452496,26.21742836587665,21.055432467962174,23.441418783638124,28.15762327504124,26.623014665090093
23.65578985112558,23.096038055424632,26.223385276415385,21.113640191579126,23.418451252873925,28.59149859828662,26.563071676791317
23.66802435311846,23.17112188396117,26.225819307778476,21.172341822732793,23.431974178860457,29.024499630398157,26.501837548737967
23.679897247255404,23.246702377621304,26.22481352225161,21.231570883138986,23.480563740055945,29.454572565130388,26.439490939156165
23.69132701997126,23.32268090371886,26.220486520208407,21.291343180741155,23.562660302178436,29.87966695667032,26.37621973532625
23.702232554488333,23.39896433015753,26.212989227880847,21.351647130228496,23.676577982621446,30.29774475762246,26.312220380646753
23.71253867198452,23.475461409655612,26.202491246579076,21.4124435951576,23.820520955848334,30.70679634297594,26.24768810569422
23.7221699566573,23.552075084456998,26.189174062770807,21.473671369466288,23.992599592372745,31.104856595770187,26.182813440462606
23.73104325667461,23.628704062901893,26.173238892374222,21.535249339337785,24.19084687555957,31.490013896245184,26.11779216746115
23.73907319274718,23.705253430947124,26.154917634026148,21.597072268969978,24.413239906243955,31.860412922518126,26.052835491597104
23.746188323175822,23.781641343642427,26.13447204348832,21.659007310887432,24.65771907532663,32.21425590111734,25.988165830753864
23.75234081324374,23.857799408414316,26.112185433593062,21.720899056869303,24.922194678717076,32.54980706518061,25.92400349798381
23.757500861568815,23.933673721334262,26.088362194091403,21.782579874732345,25.204544763134308,32.86540210824475,25.860561206700073
23.761645673193165,24.009224103074736,26.063335018439574,21.84387451320365,25.502615713930144,33.159458982396515,25.798052365217895
23.764756762521333,24.084418076992808,26.037464574247807,21.90459495571236,25.814236013385262,33.43048918796169,25.73669990590587
23.766825993592004,24.159225530998402,26.01112633586026,21.96453271194113,26.137245337479545,33.67711343561668,25.67673129450303
23.76785780347424,24.233620934986988,25.98469837965796,22.023456905248732,26.469524346403528,33.89807798054854,25.618364231417583
23.767860814210515,24.307598310793,25.958563158240402,22.081118919759714,26.809008165643423,34.09226167228658,25.561800309364557
23.766838783052812,24.381194420558263,25.933115890172182,22.137258017361102,27.153686744209477,34.25867170598742,25.507233811635906
23.764793768761717,24.4545000570357,25.908761923602047,22.19160334034011,27.501606430043463,34.39643462087245,25.454862418076488
23.761738669964043,24.527647958201815,25.885901330959424,22.24387376550397,27.85087496597066,34.50478852005875,25.404884508097002
23.75770377400697,24.600789121589287,25.864917154330936,22.29378131159597,28.199662162256704,34.58307920372038,25.35748651167114
23.75272948322126,24.674073858700773,25.846176993136115,22.34104133156849,28.54620123581858,34.63076180008133,25.312836446298572
23.746853836253187,24.7476434150627,25.830037329357104,22.385384955028943,28.888812601373473,34.64740678070621,25.271091020126512
23.740110084614205,24.821630096512973,25.8168366048756,22.426564882795816,29.22595419229076,34.63270462391937,25.232405018110136
23.732538206571785,24.89616095468414,25.806878843024545,22.464351987384866,29.556264286193258,34.586465407276336,25.196928163855578
23.72419566719104,24.971359031844088,25.800421512226073,22.49853055546841,29.878566310445382,34.508617283505345,25.164791273695208
23.71515421955887,25.04734083085843,25.79767577025437,22.528899813893773,30.191843740398834,34.39920803073596,25.13609719940522
23.705490362447467,25.124213864930272,25.7988114328097,22.555278520713422,30.495208649450245,34.25840694393193,25.110924798291656
23.69528553756654,25.202072832798894,25.80395396893709,22.577504655630307,30.787877596298998,34.08650319957355,25.089336038656246
23.684636697764248,25.280989337821254,25.813173597328618,22.595429347128345,31.069158734175836,33.88390165754461,25.07137336827897
23.673661591663237,25.36099735927236,25.826478610883946,22.608910939049014,31.33845108973362,33.6511196391065,25.057050285039267
23.66249027501779,25.44208381603771,25.843819916893114,22.6178155057518,31.59525710302314,33.38878781978044,25.04634982281849
23.651253908243156,25.524195418477387,25.86509862016723,22.62202492171424,31.8392005346799,33.09765609322035,25.039236863350244
23.640085339274552,25.607263199696344,25.89016531774088,22.621445256798353,32.070032214772965,32.77860080671517,25.035671105026726
23.629129419899616,25.691227109113637,25.91881378615543,22.61600755233524,32.28761563118043,32.43262633199236,25.03560626284553
23.61854738885264,25.776044639957657,25.950783540188795,22.605662480552546,32.491899737755816,32.06085951941369,25.038979948125995
23.608507376274627,25.8616899077287,25.985777909193615,22.590378078608033,32.682888646240805,31.664552490012646,25.04571008351372
23.599171047753096,25.948153190396003,26.023484620071127,22.570146785213527,32.860613604456795,31.24511352282041,25.055703775701456
23.590692090955816,26.035435827893394,26.063581841970525,22.544996940321802,33.02511450006345,30.80415399943084,25.068866732854
23.583227777687345,26.123537760115795,26.105731063518082,22.514997801578403,33.176444900033985,30.34351172647232,25.085099561035776
23.576947170007156,26.212459313758824,26.149574543849223,22.480253992135346,33.31470323446369,29.865237459614946,25.104284646744702
23.5720249142963,26.302249227051888,26.194747945811514,22.44089720416002,33.44006359340003,29.371566892372186,25.126280505200672
23.5686294625254,26.39309055834526,26.240896895769566,22.397086742873423,33.55278066721248,28.864890470956944,25.150931556173486
23.566919543645486,26.485362875174,26.287681293865965,22.349019405388574,33.65317584400181,28.347715081826916,25.178080317153054
23.56704919258855,26.57963757393905,26.334770225867313,22.29693565308523,33.74162082595915,27.82261794452826,25.20756565659077
23.569168976656073,26.676630250550915,26.381844459398692,22.241114065484222,33.81851932007867,27.292200883031846,25.239210931302807
23.57341651379393,26.77715482508404,26.42861212179501,22.181862099740325,33.88428365628545,26.759049926799946,25.272820483017213
23.579905604296226,26.882092093802072,26.47482129895358,22.119511673711173,33.93931714516713,26.22570071054224,25.30819184418893
23.588727304356198,26.99235900182741,26.52025375562978,22.054415342126116,33.984023905543786,25.694608636008983,25.345129323667663
23.59996196200486,27.108871801915956,26.5647057733259,21.98693662895021,34.01884958022692,25.168126011345112,25.38344331467496
23.613686859305115,27.2325141845116,26.607973568225525,21.917437634771982,34.04432047660636,24.648496674204665,25.422939724665525
23.629969843555795,27.364117882264285,26.64985111123707,21.846271669801627,34.06105029241682,24.137873250907187,25.463416570762373
23.64885895451693,27.504446241139618,26.6901320303706,21.773782688189222,34.06972204637098,23.638337686648715,25.504674350010855
23.6703857714167,27.654170666448014,26.728604264859385,21.700304865581,34.07107070817949,23.15190145034598,25.54652731717279
23.694583157133795,27.813844589527708,26.765040001811673,21.626156208438037,34.065875561096114,22.680490076979527,25.588801216433897
23.721497371637494,27.983889922100985,26.79919496732819,21.551629037959913,34.054952175073694,22.22593266597239,25.631321348597698
23.7511811420341,28.16460611088235,26.830823108790465,21.476986503116,34.03913696305757,21.789960769441503,25.673907592250824
23.78367739701887,28.356191224464588,26.85969370592481,21.40247167640831,34.019269968808686,21.374204017740567,25.71638413531209
23.819010436186428,28.558752272639413,26.885594856577253,21.328323921882962,33.99617919248701,20.980176285144946,25.75859196941524
23.857188350726723,28.77229960383795,26.908325366172534,21.25478803735593,33.97066237489633,20.60925876224713,25.800388243529035
23.898205800044312,28.996739473017367,26.927691260527787,21.182110686167384,33.943464197180155,20.262684533205867,25.841633947856618
23.942037162223595,29.231872265315513,26.94351506966363,21.110534628209802,33.915252346521946,19.941524480849846,25.882185563424894
23.988624276070933,29.47739250855034,26.95564683073034,21.0403001842752,33.886602892358816,19.64667545595288,25.921899178135597
24.037871396819856,29.732887356444607,26.963962740059937,20.97164931906756,33.8580097074979,19.378851183282055,25.960637264932153
24.089651451668615,29.997832358253948,26.968353460269512,20.904824735813087,33.82991625148032,19.138574904901386,25.99826505866335
24.143812779957898,30.27158631439607,26.968715287122986,20.840066662957188,33.80274273235308,18.926173877268635,26.03463986852032
24.200176164562055,30.553390639220773,26.96495247292827,20.777616196728243,33.776889524333704,18.741780805478317,26.069608504537502
24.258527415318625,30.842373925429047,26.956985768263664,20.717727031476578,33.752726159656454,18.585353686927174,26.103018970037848
24.318618278441043,31.137556093308365,26.94475531572026,20.660673644126835,33.73057864489463,18.45671468676792,26.134734387145237
24.380177825130676,31.437853910651896,26.928214536517793,20.60674394837058,33.71071648485558,18.35558475812826,26.16463481415229
24.44292220642879,31.74210487810413,26.90732502436151,20.556222085557778,33.693341647491856,18.281594912823476,26.19260873178882
24.506553451148307,32.04911649613281,26.882061958528965,20.50937727161294,33.67858519697036,18.234282795007996,26.21854802475013
24.57075329795841,32.357713375400046,26.852424338008174,20.466463879194933,33.66651085808534,18.2130887945685,26.24235402881522
24.6351843562003,32.6667521275907,26.818436355289197,20.427722162232662,33.65711910019331,18.217351966890618,26.26394599735051
24.699500780695136,32.975108898133314,26.780138918461052,20.393369884609893,33.65034920416594,18.246302877144352,26.283259464733568
24.763356797458425,33.28166391123207,26.737585586418007,20.363588314381648,33.646079580236155,18.299057176753696,26.300236652698267
24.82640386379078,33.58530109067769,26.690851097666236,20.33851202319117,33.64412469482296,18.37461491351233,26.3148236819064
24.888284038264715,33.88492301413164,26.640041200627117,20.3182279726627,33.64422868779479,18.471864687397403,26.326981777571483
24.948634480136512,34.179464200193166,26.585289663273823,20.30278075234955,33.64606177172466,18.589587781028765,26.336700475155425
25.00710476080609,34.4678925247479,26.526745653490188,20.292174528711914,33.64922975416495,18.726463163649086,26.343997573688068
25.06337146264523,34.749208382072034,26.464566597294368,20.28636785032442,33.653297838421324,18.881086807417162,26.348908381061953
25.117137970493545,35.02244947795332,26.398923472398373,20.285268992404603,33.657811769213325,19.052019659447982,26.351480471897755
25.168126635491237,35.2866945906102,26.330008554445286,20.288740814299153,33.6623029372692,19.237852667290902,26.351782227140713
25.216077977345744,35.541058574387776,26.258032814747903,20.296612126652885,33.666288053143425,19.437252347884595,26.349913914117142
25.26075847986096,35.784681262819625,26.18321475796492,20.308683650683584,33.669279049737426,19.64896728678596,26.346005984491473
25.301964685206606,36.01672162868082,26.105774776677737,20.324725027672162,33.67079887903583,19.871809899321907,26.340205987784458
25.339516458125974,36.23636529717838,26.025943708853273,20.344474094787927,33.67038803837064,20.10463319357793,26.332668723528986
25.37324706855918,36.442837828548946,25.94397590768332,20.36765133000044,33.6675985442664,20.34631077404265,26.323557997529548
25.403001815307473,36.63541069473798,25.86015002226183,20.393987389136157,33.66198427782151,20.595724065926703,26.313051573716837
25.428646753325502,36.81340456231281,25.774756585693275,20.42324593806915,33.65309424834733,20.85175853868511,26.301336170952045
25.450076561481005,36.97620762763302,25.688087894816302,20.455229346272766,33.64046784735856,21.113308327354698,26.288593733431963
25.467212204618278,37.12331127958334,25.600438996579847,20.489775938990118,33.62362927593026,21.379291310811915,26.27499381935695
25.479992994605844,37.25434117582303,25.512109854813787,20.52676431458631,33.60208225247017,21.648671789934127,26.260700600286928
25.48837463124602,37.36906183366006,25.42339705487398,20.566123983066053,33.57531050772867,21.9204746015095,26.245883805880624
25.4923356640636,37.46735817632676,25.334580090052373,20.60783778614755,33.54278845640279,22.193780187035486,26.230717925247497
25.491881349464705,37.54921554511919,25.24591769209976,20.65193033331231,33.50399798816388,22.467711900951343,26.2153703390052
25.487036489683202,37.61470860283885,25.157659202407142,20.69845357689767,33.45844171260386,22.741430333305868,26.19999335598893
25.477835210825567,37.66399435574904,25.07005704736421,20.747481917217414,33.405655646565656,23.014132912894524,26.18472852251192
25.464321141441708,37.69731277223324,24.98336579897776,20.799114194469546,33.34524109944277,23.285048618653523,26.16971343024337
25.446557689572607,37.71500134797139,24.897831509869608,20.85346904992803,33.276919716320805,23.55342514149155,26.15507771658156
25.42463430785436,37.71750849616695,24.813686565782493,20.91066829942897,33.200584515094576,23.818514057514918,26.140930863060927
25.398660139241894,37.70538760568358,24.731156445305025,20.97081798748419,33.116322053300124,24.079560904156725,26.127356802163064
25.368752735172936,37.679275031517705,24.650467137663913,21.03399940578184,33.02440405980076,24.335803269869626,26.11442286317057
25.335034449299233,37.639863248266124,24.57184131239213,21.10027059211227,32.92526071892695,24.58647293303042,26.102192422255545
25.29763745280704,37.58787966339935,24.495488349537542,21.16966690170927,32.81944983170781,24.83079522178222,26.09072627253013
25.25670634235366,37.524080116002,24.421601859713277,21.242193254106063,32.70762625669408,25.067984811737507,26.08007273460736
25.212392223182878,37.449251037917634,24.350367427603974,21.317814089875668,32.590510240040594,25.297244565572406,26.070260408572032
25.164846022246348,37.36420369802966,24.28196827060365,21.396449669763648,32.468859371969806,25.51777369798401,26.061303382703894
25.11422130506712,37.269761494602434,24.216579206601065,21.47797766689433,32.343448404633385,25.728782501982238,26.05321152000299
25.060684654007538,37.166765311008,24.15435633326252,21.562232333566932,32.215053770062895,25.92950366728018,26.045991984148394
25.00442037044509,37.05610605007047,24.095436533541914,21.648998104111328,32.084438120251015,26.119194811391957,26.039642102706683
24.945622449895996,36.938750653316575,24.039947998121367,21.738003438468326,31.95233352521351,26.297135162443656,26.034147210642267
24.884483066823424,36.81573040702052,23.98801709739429,21.82892370820682,31.81942604918828,26.462621472546804,26.02949073001099
24.821190866156385,36.688104257605886,23.93976131706863,21.92139405260427,31.68634527174639,26.614967189031905,26.025665121756475
24.755938773994025,36.55692627951314,23.895277312149737,22.01502180682653,31.553658069793784,26.75350689351622,26.02266858898507
24.688928054766386,36.42322777398371,23.854640773068656,22.1093893363496,31.421863057127652,26.87760402947736,26.020490206375438
24.620361772096405,36.28800525243296,23.817920686176333,22.204050661758433,31.291384226897932,26.986658610243026,26.019100094864275
24.550437155374887,36.15220396260291,23.785191684583978,22.298532196484086,31.162567235821008,27.080118965180205,26.018453386400047
24.479348578601698,36.01670364136475,23.756530664660705,22.392341480808422,31.035682313634915,27.1575079195877,26.01849835027945
24.407298734266632,35.882329654277626,23.73200454001535,22.48497664220102,30.910929755453193,27.21845968766324,26.01917478564584
24.334504771063937,35.74989373933874,23.711666418151896,22.575929679587123,30.788440047219957,27.26274403787665,26.020403970882448
24.261192201180357,35.62022715571209,23.695565359860495,22.6646880627627,30.668269004048877,27.290263943815535,26.02208465077718
24.187583520518015,35.49417381702639,23.68375594646698,22.7507417243358,30.55039848027925,27.30103800692326,26.02410284913393
24.113893405960948,35.372557609115056,23.67629437737925,22.83359218205797,30.434755499130368,27.29518256447862,26.026345225404466
24.040332343060527,35.25615493015879,23.673227699142878,22.91275539683848,30.321249782819155,27.272896200078915,26.028701146147522
23.967108671790108,35.14568174823399,23.674593733886486,22.98775785185183,30.20980885758184,27.234444919396147,26.03105442960822
23.89442212476812,35.04178329738011,23.680435022241394,23.058135574554527,30.10039144336497,27.180153612346228,26.033280087244485
23.822455142276617,34.94501560303443,23.690809186842134,23.123444523477186,29.992985282442984,27.11041572443079,26.035254013799847
23.751373638525948,34.85582263964869,23.70578195395868,23.183275866579717,29.887604049677652,27.02571996586546,26.036864005049186
23.681338183185986,34.77451991154884,23.725411818778678,23.23726183024345,29.784283131717928,26.92667070017138,26.038007712009644
23.61251170312546,34.701292357873875,23.749744681800273,23.285070475280744,29.683071419231805,26.81398290289165,26.038581049142703
23.545053232407152,34.636205469049955,23.77882268119845,23.32640179715624,29.58402403523163,26.68845875289357,26.038473510771574
23.479105529955053,34.57921668647466,23.812692131792236,23.360994568848184,29.487197571566426,26.550964694862977,26.03757855989509
23.414792138230325,34.53017733499896,23.85139664105942,23.388638686582226,29.39264623422375,26.402417998058375,26.035808008553307
23.352226679557706,34.48883205736904,23.894960958169325,23.40917955999736,29.3004179863398,26.243777565167232,26.03309449217848
23.2915202004694,34.4548246007688,23.943382321009704,23.422510333063297,29.210547243493867,26.07602990461484,26.029382269742342
23.23277596006317,34.427705286324304,23.9966360896197,23.42856158120312,29.123045847117968,25.900169043113948,26.024620699407315
23.17608015978327,34.406936181933226,24.05468334794379,23.42729871148708,29.037900262532627,25.71717695482812,26.018768944805036
23.121503617531943,34.3919084996424,24.11746618378981,23.41872579945779,28.95507434007605,25.528011374367193,26.011804203094353
23.069115331408938,34.38198653568454,24.18489491447874,23.402886451329195,28.874508876783672,25.3336013347238,26.003721542100635
23.018992504620968,34.376561023407326,24.256843217337224,23.379857852596846,28.79611535405255,25.134843266126865,25.994525791985737
22.971215712645446,34.37508077376912,24.333156202130088,23.34974420169219,28.719768319575927,24.93259153436639,25.98422737542226
22.92585784416676,34.377057455120266,24.413658512320193,23.31267703985002,28.645299417828788,24.7276457087259,25.97284940577811
22.88298318699743,34.382059007360745,24.49815042110415,23.268821306925766,28.57249279282899,24.520742052151547,25.960437070162545
22.842658737899946,34.38970048545624,24.58639788898276,23.21837685352803,28.50108256767884,24.312556906696564,25.947054741733492
22.80496322914743,34.399630361486516,24.67813172380133,23.161570356528053,28.43075551470132,24.103726123313155,25.932770942733267
22.769983147551677,34.41151023235203,24.773059239202855,23.098646958937266,28.36115946764078,23.894872648283805,25.91764638066244
22.737801850723606,34.42499465536277,24.870874704444788,23.02987250121086,28.291912130500567,23.686626854649784,25.901736218865892
22.708492718582583,34.4397250084864,24.971256735236786,22.955543377188594,28.222606582463143,23.479639465821037,25.885099459517956
22.682117486410117,34.45534197252252,25.073858894944827,22.875990887117695,28.152818092960544,23.274596267332722,25.86780028540454
22.658723024717734,34.471500547622476,25.17830931267993,22.791573934857944,28.08211544026934,23.072227849509602,25.8498999658995
22.638332862247466,34.487868594617794,25.284223799332405,22.702667852340507,28.01007247907949,22.87330894369255,25.831453120443765
22.62093784370362,34.50411020010239,25.391218401782595,22.609658896437004,27.93628255788993,22.678661506965792,25.812515866117597
22.606493187281973,34.51987078249165,25.49890802453906,22.512943177625743,27.860384065261066,22.489165723384595,25.79315444380265
22.594923834498825,34.53477664688939,25.606896838041422,22.412922161713418,27.78208820049974,22.305761187160105,25.7734406667947
22.58613203846048,34.54844542949406,25.714776127357794,22.309992864569647,27.701189177878312,22.12942924783988,25.75343899077865
22.579999360773158,34.56049268040457,25.82213410303917,22.20454010940154,27.61755306321871,21.96116751499775,25.73320282075981
22.576382201479895,34.57052612981478,25.92856543805317,22.096939944114578,27.531096341667702,21.801967018725747,25.712786687569846
22.575109202861825,34.5781335546348,26.03366932272739,21.987573451590436,27.44176415782708,21.652790959250467,25.69225924028242
22.57599001001118,34.58287542984627,26.13704198899314,21.87683726596456,27.3495151513153,21.514551193598297,25.671700816353535
22.578832490849337,34.58428586535516,26.238278007031624,21.76514062078305,27.254318027895337,21.388083039074633,25.651191296790095
22.5834538344928,34.581878174715754,26.336982662825147,21.65289548939702,27.15615789664081,21.27412136420241,25.630807438161522
22.589679276838652,34.57515931345432,26.432781387010337,21.5405120730636,27.055045979963662,21.173281210560592,25.610635699722145
22.597339005759775,34.5636612051527,26.52531496475493,21.42840115432131,26.951028895208278,21.086046619294084,25.590784880994946
22.60627338146786,34.54697783347133,26.61422769745861,21.316974276669146,26.84419358972742,21.0127682287054,25.571383052961817
22.616341729102974,34.52478547843053,26.69916506454593,21.20663644371108,26.73466439770329,20.953663864589924,25.552563460272747
22.62742399149462,34.49684077383864,26.779785693261076,21.09777784238276,26.622593541142237,20.908816276471153,25.534455741677082
22.639413800549832,34.462972401389834,26.85577396417786,20.990773308494386,26.50814858289417,20.878172240874633,25.517189089991568
22.652211291649024,34.423080666156714,26.926840310235267,20.885987171287915,26.3915019278925,20.861557014117405,25.500896430047803
22.66572354877245,34.3771389737303,26.99271483958792,20.783772649298097,26.27282664070109,20.858708488513393,25.4857071608293
22.679870451705767,34.3251834938197,27.05314928915501,20.684461527872788,26.152294644244613,20.869310800906014,25.47173258967591
22.694585069965665,34.26729140976774,27.10793087438521,20.588351784644917,26.030070664264702,20.893005430492273,25.459059485510444
22.709804309492295,34.20355886525581,27.15689514896573,20.495703666127376,25.906302949780216,20.929383103150627,25.447757569079876
22.725459487189113,34.13408770421265,27.199925601693568,20.40674600729299,25.781115198340416,20.97797283102129,25.4378885108771
22.741478123487532,34.05898246213357,27.236943883393476,20.32168337355562,25.654600716839436,21.03823565942785,25.42950341556426
22.75779459259142,33.978349548926765,27.267905658053195,20.240695774775265,25.526819085002025,21.109564082465255,25.422633266216447
22.774355487179776,33.89229106032839,27.292808665807758,20.163935316827512,25.397795770018934,21.191293767752075,25.417286808883706
22.79111271217134,33.80089865424338,27.31170014185751,20.091529503185136,25.26752568338271,21.28273318164682,25.413459712570667
22.80801494197626,33.704257211982,27.324669312981772,20.023591409856447,25.135989263700115,21.383197051609383,25.411141815523553
22.825011436077986,33.602454937306774,27.331830784823993,19.960226495269087,25.003187574496753,21.492020715565786,25.410311045921265
22.842064923771368,33.4955870193669,27.333316196415282,19.90152896229979,24.869179403164917,21.60855171236845,25.41092119371629
22.859156078969708,33.38374801536063,27.329280059622445,19.847573590024822,24.73409502957103,21.73213257068789,25.412900071839804
22.876272776982542,33.26702369356773,27.319906889740015,19.79841607576265,24.598126427320558,21.862086094268268,25.416163662737333
22.893396864614424,33.14550126999351,27.30540541932286,19.754104795878227,24.461514709810665,21.9977070573502,25.42063305367895
22.91050308761713,33.019301233581274,27.285993427680587,19.714690304954996,24.32454672242382,22.138263940250933,25.426237639041275
22.92756904949731,32.88860424811832,27.2618884347838,19.68022116989934,24.18755232891131,22.283012131701376,25.43290569816007
22.94458153854806,32.75365060644342,27.23331011038749,19.650732920128007,24.050891694393844,22.43120993205906,25.440559191249942
22.961531241194944,32.61472845610033,27.200483800130836,19.626244175385267,23.914937833735447,22.582125887346855,25.449121845018446
22.978405378577314,32.47218170296526,27.163634330726694,19.60676209762512,23.780070332211785,22.73503798765022,25.45852846325745
22.995190966298797,32.326437542685355,27.12297429018598,19.5922864286705,23.646685849630146,22.889236275577517,25.46872138947688
23.011886007599507,32.1780223327087,27.07870033506814,19.582807026786533,23.515210046391505,23.04403470256167,25.47963911463042
23.02850314119102,32.02754668897153,27.031002216893608,19.57830115758987,23.386093890039618,23.198782064001733,25.491212492042113
23.045058793960134,31.875673604799875,26.98007255279802,19.578734433683863,23.25979858623502,23.352860741667758,25.503373329220608
23.061559494099154,31.72309147641235,26.92610483773253,19.584065266176932,23.136788111795646,23.505678487191656,25.51606263950829
23.07800101256703,31.570499682179857,26.869283109168247,19.594251430136136,23.01753739739521,23.656665365966155,25.52922560194546
23.094379759420484,31.418600428132574,26.809776495909727,19.609251738395532,22.902541456542323,23.805276186830174,25.542798199936247
23.110699492408973,31.268086481595283,26.74774489994411,19.629019359362008,22.79230978050413,23.950988836451316,25.556700452084737
23.126964326681335,31.119624397343536,26.68334716932348,19.653495208375244,22.687349851655572,24.09329781319992,25.570840985263434
23.14317111313134,30.973842623168018,26.61674019002165,19.682608838995012,22.58815030677037,24.231718177477642,25.585122676660724
23.159317958447538,30.831325845255577,26.548070852228953,19.71628247246866,22.495168309560995,24.365809028883085,25.599439332697656
23.17542481343359,30.69260710502242,26.47747358701031,19.75442913203352,22.408824250413144,24.49519947325156,25.613667429963428
23.1915449698246,30.558155294435256,26.405079404593813,19.796943575031268,22.329502673353744,24.619594033407278,25.62766577544914
23.207758199141413,30.42836375604578,26.331026033742155,19.84369551846909,22.257550435544307,24.738758143456902,25.641287615880618
23.22415942315675,30.30354370874615,26.25545617785532,19.894533820880344,22.193266978710948,24.85250181052944,25.654392955087193
23.24085759049641,30.183921398916993,26.17850866689486,19.94929671318,22.136891486500907,24.96067286659036,25.66684768985117
23.257980715335595,30.069637071085083,26.100321700596695,20.007816916506123,22.088592114600953,25.0631559714641,25.678514035426712
23.27567310422471,29.96074458080526,26.021054555996077,20.069921287549892,22.04845960892521,25.15986763413787,25.689249185151386
23.294081632308572,29.85721785424837,25.940908104425496,20.135434947831484,22.016509162118112,25.25074398819538,25.698919522508866
23.313342795910064,29.758989564384482,25.860124848527164,20.204196446835237,21.992691472074153,25.33572746338401,25.70741697742972
23.333580923295887,29.666035197543902,25.778975032149063,20.276077853594007,21.97690549264,25.41476213646198,25.714661114436044
23.35491268810357,29.578456854836325,25.697748781780316,20.35099412566322,21.96900467599941,25.487799908202398,25.720589513921105
23.37744464186395,29.49650832739878,25.61676112593399,20.428894579711745,21.968795270926698,25.554806875114963,25.72515242719912
23.40126131136469,29.4205632199818,25.536356562910857,20.509747857317745,21.976029442718918,25.6157602622373,25.728318718667722
23.426416794628956,29.35106463121715,25.456899730453287,20.593533200169425,21.990405590353845,25.670641357294663,25.730081824733585
23.45293927391713,29.288480621514587,25.378757570812756,20.680236206049887,22.011602747276175,25.719438709488763,25.73045341242889
23.48083978853385,29.233271786623366,25.302289881162817,20.76984100094058,22.039354786106326,25.76216641026424,25.72945007357278
23.510111891778976,29.18586765423533,25.22785485266626,20.862318410420556,22.073518891822946,25.798884175443238,25.727089052537632
23.54072267663357,29.146646386250147,25.15581643856132,20.957618673226957,22.114093996184383,25.829702515428224,25.723398188890062
23.572606153819216,29.11592448208904,25.08653925266324,21.05567478265209,22.1611989645411,25.8547734215877,25.718426440374852
23.605665339714008,29.0939701697167,25.02037566670067,21.15640972288415,22.215042820498343,25.874284376187816,25.71224086011848
23.639777256481885,29.081032263578024,24.957660033780687,21.259736885591238,22.27589931659405,25.88846758977973,25.704914583194142
23.674791455262696,29.07735432765561,24.898714382341318,21.365553573260133,22.34408122529022,25.897613997157684,25.696522030704426
23.710522641333064,29.08316290972272,24.84385388973114,21.473736307598905,22.4199123672204,25.902079981351882,25.687147123499
23.7467470577016,29.098651207323762,24.793379887161315,21.58414421857611,22.503702055612656,25.902289309765205,25.676891393223798
23.783209226492275,29.123974750397693,24.747564575011584,21.69662655361775,22.595724136261346,25.898728736703056,25.665868576576397
23.819634630866762,29.159248874524913,24.706644830725327,21.811024361516886,22.696204237732353,25.891930172950634,25.654191101931126
23.85573757501992,29.20453595875412,24.67083318181958,21.927166189157557,22.80532535673903,25.882443228412814,25.641965224007592
23.891219714830523,29.25983108689297,24.64033096150077,22.044871847423597,22.92324820044859,25.87080874549693,25.62930101992057
23.925766579230547,29.325064207267314,24.615325683514325,22.163970558794183,23.05012155880185,25.8575422695347,25.616324036681878
23.959053374532576,29.40012052017219,24.595976402247114,22.284316973823252,23.18607014279863,25.84313040022755,25.603173301359316
23.990760315385725,29.484857417181757,24.58240525283935,22.40578876001627,23.331177125987416,25.828036243340698,25.58998862429981
24.02058409354248,29.57910005938573,24.574703150355784,22.528271476949186,23.485479496409273,25.812716526426275,25.57690373384584
24.048237322659773,29.682622753954107,24.572937762684607,22.651645661698794,23.648971416897467,25.79765643500791,25.564052955855804
24.07344480976689,29.795133619563686,24.577149679182572,22.775781916587935,23.821604085122274,25.78341835847261,25.551579209104144
24.09595029728259,29.91627176622644,24.58734107020939,22.900539519310847,24.00328562459389,25.770700313166486,25.53962938006317
24.11553391956867,30.04561495930699,24.60347416129226,23.025763078983978,24.19388727283627,25.76039222123592,25.52834150187718
24.13202493009175,30.182688337046528,24.625485634176208,23.151276192710085,24.393246515384625,25.753601824828994,25.517838743803907
24.145298655244684,30.32696862548548,24.653301203563803,23.276875236825724,24.60116053588309,25.751640575233925,25.508235708608574
24.155265866920843,30.47789117035853,24.686834114562423,23.40233032212278,24.81738356842445,25.755985622219413,25.499646407465594
24.16186939081335,30.634865160584795,24.725972454526936,23.527395094658385,25.04163741320576,25.768233152750167,25.49218154475645
24.16508935627762,30.797284213270167,24.770572753099394,23.651814268785937,25.273622259288754,25.790066957293167,25.485937397690286
24.16494467297115,30.96452057118372,24.820467392254304,23.775320398687036,25.51301581888799,25.823264439272577,25.48099050040011
24.161484052337993,31.135913389090874,24.875474790206585,23.897628584879854,25.759469604142936,25.8697159574575,25.4774062456192
24.15477593560977,31.310767629017636,24.935399368361026,24.018443564120822,26.01262178946876,25.931413604205023,25.47525071086971
24.14490986940129,31.488364134473013,25.00002469081831,24.1374788314679,26.272129759995888,26.010407181556527,25.474589874782136
24.132008525650058,31.6679699040483,25.069113230598095,24.254471028432267,26.537700393099115,26.108759209526518,25.475478418790296
24.1162359693376,31.84884351595309,25.142416449650515,24.369179909825764,26.809103683422578,26.228528933231466,25.47795553501723
24.0977930546946,32.03024181666859,25.21968257592357,24.481387492122224,27.08617760599159,26.371790460861856,25.482056149864015
24.07690857910599,32.211432155549545,25.300650597859104,24.590912099168058,27.368824449065386,26.540653392598127,25.487824645751882
24.05383914061044,32.3917029893034,25.385037470761514,24.697627512131604,27.65698921787731,26.737248412706705,25.495314254148155
24.02887632974003,32.570363770151424,25.47253574882458,24.801465853840078,27.9506244259127,26.963675884874675,25.504573806496833
24.00234727447788,32.74673488206546,25.562825760147522,24.902405193507274,28.249653337343403,27.221947840909962,25.51563862056065
23.974601307874828,32.9201368311449,25.65558673226276,25.00046218226075,28.553937650605086,27.513948212487115,25.528534682235364
23.945993363383394,33.08988852901745,25.75049388119727,25.095696193234012,28.863251627737572,27.841404911521575,25.543285352963654
23.916880136750464,33.255316039522484,25.84720804146427,25.188209869265243,29.177264221710153,28.2058629504575,25.559906483630357
23.887629423949594,33.415761069116094,25.945373366290504,25.278135310546162,29.495528589228385,28.608666852763722,25.578393245726932
23.858625802790787,33.57058071969128,26.04462858983783,25.365613224175704,29.81747553082846,29.05097816189947,25.59871413297162
23.830262365417777,33.719151094085866,26.14461929361821,25.45077779195983,30.14240838461692,29.533881479746494,25.620818801648944
23.802928634071122,33.86089713326014,26.244995890941528,25.533751624420578,30.469499506207164,30.05858247744637,25.644648015707546
23.77700761177833,33.99534221094626,26.34540122179535,25.614643903357038,30.79779018408295,30.626570226912683,25.670131065805162
23.752878570220606,34.12213876424855,26.445466835581424,25.693543322830546,31.126199503745486,31.239627691002717,25.697173299443335
23.730912815852125,34.24106017109092,26.544827015487545,25.770507881994675,31.453547711595803,31.8997283648603,25.725650588871723
23.711458651215594,34.35197686729328,26.643136348083644,25.8455604477383,31.77858925711612,32.60891205525836,25.755420153631338
23.69482470250835,34.45484348709264,26.740072132310917,25.91869401805084,32.10004135599805,33.36918248922327,25.78633630305609
23.681273206615987,34.549694468926866,26.835323281322328,25.989880781400313,32.41659941577924,34.18244669122587,25.8182539477587
23.671024426488326,34.63663086533386,26.92858383378618,26.059080075946834,32.72694249614619,35.05050873586897,25.851020312821078
23.66426062854279,34.715795675986215,27.01956077398931,26.126258046012946,33.02973779383475,35.97510634678575,25.88447058647105
23.661120189216273,34.78735185447248,27.107984725080577,26.191432045724763,33.323656644593406,36.957958600169086,25.9184360816675
23.66168731276961,34.85147207480447,27.193608029380094,26.254724630490852,33.60740808539717,38.00078111904481,25.952754486902847
23.665990317598254,34.908332583079755,27.276192695859525,26.31640600131243,33.87977357507782,39.105240507466114,25.987268643913016
23.67401119912388,34.95810128603104,27.355504780590444,26.376920531873985,34.13962049567203,40.27285603391427,26.021816798711136
23.685694120841625,35.00092406773487,27.431322517380945,26.436891220954056,34.38589454026928,41.504876877033134,26.05622921113448
23.70094358103662,35.03691900022964,27.50344482893186,26.49709567301547,34.617605942734706,42.802173921289544,26.090338286073965
23.71962086540175,35.066177673846745,27.57168563799089,26.558425297616903,34.83381835909992,44.16517982005891,26.12399130458087
23.741551802971344,35.08876422492557,27.635859937398152,26.621843971831545,35.03364092096552,45.5938861872588,26.157050961665277
23.766542837656843,35.104707664435544,27.695780450282495,26.68834986441563,35.21622342978527,47.08790711281159,26.189385528095947
23.794390494556538,35.11399284818051,27.751271803231816,26.75893976930958,35.38075718538627,48.646617413873976,26.220863851178926
23.82487840082978,35.116558272503106,27.80218668660998,26.834579199380173,35.52648094313524,50.26932050807538,26.251362926383724
23.857772347040214,35.11230414168125,27.848406406017148,26.916180958336962,35.65268526088865,51.95538266149059,26.280778007865305
23.89282685921968,35.10110534104785,27.8898298823648,27.00458981477693,35.75871043622784,53.70433564353417,26.309021735993394
23.9298022839857,35.08281888045042,27.92637019547715,27.100566647312448,35.84394045978155,55.51595733979128,26.336013627436945
23.968476611720174,35.05728509959425,27.95796626968994,27.204767898519098,35.90779707162934,57.39026831239249,26.36167366245999
24.008642901125988,35.02433759746913,27.984594771986053,27.317724902848358,35.94973577072339,59.32741714868439,26.385927591035127
24.05010202954272,34.9838301365454,28.00626650302843,27.439834828789852,35.969247284905116,61.32755353169339,26.408714259904766
24.09266475117022,34.93566323244606,28.02301233080371,27.57137343243706,35.96587497576464,63.39078095197651,26.42998131803109
24.136162391926447,34.87978939323518,28.03487584823048,27.71252346417439,35.93925479078267,65.51715454791963,26.449671510622164
24.180452066090126,34.81619970990462,28.04191989362073,27.863395528013644,35.889160371270066,67.70665666553144,26.467715355241573
24.22540864363384,34.74491045823933,28.044235041995012,28.024026909419682,35.81552625367078,69.9591406333863,26.484039055769244
24.270911856108054,34.66596075687243,28.041935986453165,28.194369827575215,35.71844679791549,72.27424904046408,26.498577137822423
24.316840495167664,34.57941520869152,28.03514902276338,28.37430370481272,35.59816653288231,74.65134022503355,26.51127462848266
24.363074675002128,34.48536187457966,28.024004260236385,28.563708301520702,35.45506825003041,77.08951105532451,26.52208011580188
24.409496382083585,34.38391294730496,28.00863723730792,28.762578826632197,35.28965783377528,79.58771858548961,26.5309443485561
24.45598171851159,34.275226943107555,27.989190594940453,28.97110013140009,35.102547374295426,82.14485894613043,26.537831503402895
24.502392068726614,34.15954948481136,27.9658062829882,29.189632620312583,34.89443908694894,84.75973446053094,26.542732046500287
24.548576885727783,34.03724012893149,27.938612752174407,29.41864767502629,34.66611615683539,87.43102377308898,26.545662696508934
24.59438795835852,33.90876349722139,27.907722238553877,29.658674457796756,34.41844416368361,90.15734890951853,26.546655157988063
24.639690071495775,33.77465821025122,27.873244739555457,29.910304637611258,34.15237274476055,92.93735898727105,26.545749006335395
24.684357965711282,33.63550792675075,27.835304666404777,30.174275989935,33.868929181296856,95.76971067497709,26.542997959414862
24.72826839280041,33.49192307957397,27.79404312022492,30.451590753799906,33.56921405427015,98.65296137689093,26.538479634173544
24.77130360986528,33.344525527560485,27.749608509320705,30.743574050621753,33.254406128856694,101.58547555064924,26.53229305486121
24.813367256061046,33.1939275725529,27.70215120890655,31.051827902736413,32.92576426844475,104.56539402892204,26.524544154939917
24.85439459886096,33.040709181199915,27.65182837648513,31.37812269304094,32.58461741833963,107.59066331349489,26.515334048838394
24.894344976599303,32.88540675359468,27.598808970134645,31.72428107749414,32.23234937508695,110.6590956812481,26.50475952244296
24.93318578066069,32.72851952920776,27.543269214509586,32.09208488700709,31.870383929489318,113.76841538973864,26.492918614802328
24.970884027545647,32.570521357792344,27.485383453387115,32.4832384211575,31.500171702091677,116.91627500343546,26.47990901589698
25.007408610301823,32.41186202762563,27.42532398575719,32.89942916196515,31.12318135292624,120.10023704425684,26.465819275311123
25.04273256238846,32.25295816192443,27.36327418641187,33.34250997266775,30.740892951772462,123.31770647543719,26.450724867245352
25.07682743904967,32.09418566648287,27.29944151861214,33.81474326914642,30.35478909780328,126.56588436946299,26.4346965569995
25.10965651516476,31.93588375897515,27.234055707666524,34.3189467543145,29.966346328520473,129.84191338730426,26.417811890030457
25.14117933251636,31.778367589633227,27.167356023286793,34.85851819301614,29.577033495156208,133.14322304479418,26.400155342011892
25.171367191990104,31.621935070350858,27.099584636265963,35.4375947293293,29.188318773665987,136.46779765985409,26.381807172966198
25.200213345942185,31.466861281038586,27.03099275285152,36.06144512275198,28.801677305104857,139.81419702354995,26.362835041762395
25.22772647824297,31.31338934895452,26.96184648784289,36.73675052579145,28.418589662913785,143.18147554691677,26.343297374582992
25.253915520875978,31.1617264884381,26.89241899217052,37.471505665433334,28.040530352134155,146.56912600155007,26.323250317098935
25.27878256339771,31.012042593659732,26.822973381938986,38.27470910992442,27.66895129768011,149.97700474614302,26.302745711639137
25.30232872849811,30.864464747728377,26.753751327148812,39.15609034441151,27.305262581103285,153.40520042002058,26.281821790589614
25.324560238190163,30.719067322027385,26.684974463210885,40.12590879999204,26.950810582416104,156.85388201429822,26.260499747559027
25.34548328828671,30.57587224409815,26.61685016251204,41.19473371871693,26.606855893364926,160.32322572461342,26.238792628660583
25.365094079750722,30.434888875739908,26.549568991654674,42.37316369243248,26.274555942128703,163.81354879983232,26.21671627538108
25.383377000547636,30.296195515832885,26.483294763618428,43.67157331996347,25.954958328111992,167.32560264008208,26.194288477243475
25.400311265577756,30.16000729521559,26.418160794338508,45.09997991912445,25.649005519073476,170.8607333970368,26.171518245950832
25.41587365470109,30.02668528801484,26.354279572499777,46.66797134998946,25.35754000296069,174.42076691129134,26.14840117215357
25.43003030841303,29.896708405613644,26.291755231892065,48.38463501107496,25.081298683076,178.0078422963541,26.124930265779607
25.44272517148501,29.770646129575578,26.23068469044685,50.25869170078279,24.82089975340806,181.62437830336384,26.101111117842166
25.45387690148596,29.64913716413458,26.17114952348138,52.29898587091431,24.576834594936535,185.2730743014323,26.0769644658634
25.463385615953392,29.532866699327627,26.113214239647288,54.515005410005465,24.349471330666187,188.95688867759802,26.052517334069798
25.47113877572386,29.42255206744555,26.056939436079883,56.91707877415208,24.139063471709047,192.67905802332078,26.027798807134946
25.477008157762334,29.31894761457305,26.002397789342965,59.51628745728435,23.94575237894204,196.443083127056,26.002848319175794
25.480843697077848,29.222853307958022,25.949675812441694,62.32420295865702,23.7695617617135,200.25258181578351,25.97772546562243
25.482476827719243,29.135104895181144,25.898863809036037,65.35257852041963,23.6103915792388,204.11105645849622,25.952506780241933
25.481736281159673,29.056545449577364,25.85005139063963,68.6132214988199,23.468016701503092,208.0216189869083,25.92727123533882
25.478463084945098,28.987991256294077,25.803334511234667,72.11799299807363,23.34208961447339,211.98669650546876,25.902090465259995
25.472511640620226,28.930202751011063,25.75882079728167,75.87861065847878,23.232144756121272,216.00783406172982,25.87703317604846
25.46374104082226,28.88386364658925,25.716622002524897,79.90615848195213,23.137603703068006,220.08565991208621,25.852173743043462
25.452011574310976,28.849562834762214,25.67684135989627,84.21049639510902,23.057781908784982,224.21989415987466,25.827590256325053
25.437192301569823,28.827775431905586,25.6395733767141,88.79977154119939,22.99189942950799,228.40930159104906,25.80335303604661
25.41916859324774,28.818846543527236,25.604919339045505,93.68019016187958,22.939098087579005,232.65166560421036,25.77951722334165
25.39783880002705,28.822979420853958,25.572998828600486,98.85609438396777,22.89846125541339,236.943861642666,25.756127371258472
25.373106708352246,28.840228367529175,25.54394110316185,104.33011362024104,22.86902685401226,241.28198914219192,25.733226205271947
25.344883822461956,28.870502842266042,25.51786694967468,110.10311203960426,22.84979060326632,245.66149990687495,25.710854311952417
25.31310232801729,28.91358443282787,25.494882175315638,116.17394818850451,22.8397074320622,250.0772869544762,25.68904040104907
25.277724745759937,28.96914361210031,25.475086135562748,122.53924607740804,22.837698347414207,254.52368767748592,25.667796649582694
25.23874039481009,29.036744232667804,25.458578438549782,129.1932785389916,22.84266049453935,258.99438418443236,25.64712871522144
25.196155731672498,29.115841582549848,25.445451581768054,136.12793153713514,22.853474159431816,263.48227559679066,25.62704901875799
25.149992842339387,29.205793899145203,25.43577846948088,143.33269332446923,22.8690065364979,267.97943164633045,25.60757661098204
25.10029811759504,29.30590075361734,25.429612640658966,150.7946438654692,22.88811920962037,272.4771447759765,25.58872568028016
25.04714741553293,29.41545273920532,25.42700429390987,158.4984563939575,22.909682776582045,276.9659951355826,25.570499213643636
24.990638892752383,29.533760284615695,25.42801375334128,166.42646101689138,22.932592609051152,281.43586403471073,25.5528965980674
24.93088304936478,29.660150837817977,25.432706209919584,174.55885710982574,22.955782025386195,285.8759151447007,25.53592501958215
24.868003927393396,29.793948956438392,25.441134650982647,182.8741152605826,22.978236636401267,290.27458095072427,25.51959926441317
24.802150046997614,29.9344539348591,25.45332957339622,191.34943650393635,22.999011134099355,294.61956782929195,25.50393029103281
24.733499661008693,30.080921293597996,25.469302558981642,199.9610724302483,23.017248005574864,298.8979267691295,25.488918112292062
24.6622529839335,30.232554328662086,25.489052182109717,208.6844776305122,23.03219674310349,303.09627437324946,25.47455862038878
24.58862283370724,30.388513314942603,25.512559680196343,217.4943808909118,23.04322707172993,307.2011358020097,25.460854361582143
24.51283820072839,30.547938082769683,25.53977907312174,226.36483626788095,23.04983911644657,311.19924198901333,25.447813714613787
24.435158544742087,30.709963968650484,25.57063581807447,235.26933852360693,23.05168199913458,315.0776748555072,25.435438990191976
24.355880843711233,30.873719119759997,25.605036816413026,244.18107777980597,23.048572873901943,318.82388195020025,25.423718568565285
24.275329043499653,31.038314391440597,25.64287883298114,253.0732632698393,23.04049549824145,322.42561214558305,25.412633046038597
24.193837279046193,31.202845035023678,25.684045195283808,261.9193654883046,23.02757518215477,325.8708418693433,25.402167026272732
24.111744125502955,31.36640934132305,25.728398419754416,270.69322711815744,23.01004734079016,329.14780186894103,25.392311089790052
24.029398370216583,31.52812918063343,25.77578280211499,279.36915174589416,22.98824346108239,332.24517265412396,25.38305259394999
23.947160791664775,31.687156439534718,25.826036469369235,287.92208289639535,22.962602780479898,335.1523550479993,25.37436903235842
23.865392739146067,31.842671357827797,25.878997953705838,296.3278134188834,22.93368700371386,337.8596390155015,25.366233764496425
23.78443954530412,31.993892292709127,25.934499385069675,304.56311648408865,22.90217230597969,340.3582199906178,25.35862659812513
23.704622475459402,32.140099226993115,25.992356614511866,312.6058253383229,22.868822384314583,342.640132651559,25.35153487039501
23.626243213847278,32.28064976321926,26.052371787627,320.4349219918635,22.834463995017472,344.69815264148707,25.344943906177964
23.54959025068351,32.4149728086571,26.114348623961448,328.03059893348967,22.79997649439309,346.5256827982237,25.338830080976415
23.474935472653744,32.54254818122375,26.178102500110025,335.37424492496393,22.76629059652754,348.11666012520453,25.333165754039594
23.40252485631483,32.66288981932079,26.24345284103534,342.4483800326215,22.73439105590277,349.46554850670344,25.327928390027395
23.332577255744596,32.775547924410965,26.310205545781187,349.2366007636454,22.705324563028896,350.567435217625,25.323099800894035
23.265294436893885,32.880129476491,26.37813858437579,355.72359456311574,22.680207707274228,351.41813621997926,25.318654899413858
23.200868476704446,32.97631533107889,26.446996167578067,361.8952394540074,22.660221455889452,352.01420751419164,25.314554692584615
23.13947537463873,33.06386035135722,26.516489795493765,367.73872110448536,22.646585669182834,352.35288566570466,25.310754381895006
23.081261326566597,33.14258747911062,26.586300483432147,373.24260182968015,22.64052323243046,352.4320622773246,25.30721715605293
23.026335058196345,33.212383943255695,26.65608371561723,378.39684607450334,22.64322766873434,352.2503383088328,25.30391626669169
22.97477028371809,33.27319231970549,26.72549268351063,383.1928059819793,22.655835504965488,351.80709739840376,25.300825871283244
22.926610325247733,33.32499208678587,26.794223619682555,387.62315186302624,22.679397473554623,351.10253183637496,25.297918574609024
22.881866997922668,33.367780628547195,26.86205435152705,391.68178898197004,22.71484932686774,350.137627931331,25.295177685956965
22.84051716877324,33.40157103603855,26.928847852225854,395.3638293882781,22.76298700214804,348.91414553929684,25.29260907061758
22.80250699046783,33.426414471295395,26.9945288360438,398.6656283910358,22.824447792520182,347.43459762100053,25.29023673130138
22.767765061601022,33.44242738026725,27.059064971306295,401.5848548909805,22.89969730516318,345.7022267506815,25.28808869049614
22.73621209664702,33.449796655960455,27.122477191873482,404.1205581978947,22.989021674437108,343.7210309217015,25.286192936807204
22.707758515077497,33.448763117108506,27.18487106940227,406.2732140288598,23.092523163650007,341.49588229667614,25.28458963982829
22.682298725222342,33.43960403842769,27.24645357674136,408.0447543693342,23.210118531531844,339.03264368588725,25.283342869522794
22.65971460860004,33.42262600375748,27.307520723039207,409.4385351374385,23.34154380959827,336.33817000486937,25.282535158409463
22.63988619465248,33.39816085893878,27.368444673263657,410.45918933166405,23.486367134300306,333.4202556370923,25.28225111479141
22.622696511085778,33.36655475757249,27.42968507292818,411.11241568698614,23.6440035148371,330.28763957662426,25.28256957929964
22.608024420667014,33.328151608725356,27.491805859945526,411.404815521128,23.813725145803904,326.95004201574085,25.28357142304753
22.595734153442606,33.28327671593486,27.55546755081051,411.34383880311566,23.994668621843626,323.4181666489448,25.285348593389067
22.5856760210363,33.232221557773954,27.62139937913233,410.937782807027,24.18584657703207,319.7037123876617,25.287999245435085
22.57770099927861,33.17523061844474,27.69037365675393,410.1957351059088,24.386169123753543,315.8194311188892,25.291613896583083
22.571674187048494,33.11249383123533,27.76318449276354,409.1274266600918,24.594468995308855,311.77913011847824,25.29626858510329
22.567474236106207,33.04414542114273,27.840619835052735,407.74304392279197,24.809518289995676,307.59752744973076,25.30203024046169
22.56498444497148,32.970270758615825,27.92342772582042,406.05307274671134,25.03003641637735,303.2900140436657,25.30896258933256
22.564088984435788,32.89092969678906,28.01228806293693,404.06825755389616,25.254702058819298,298.8724167760161,25.31712021167483
22.56467717076199,32.80619662093807,28.107795903042813,401.79972205033897,25.482174938719325,294.3607885609989,25.326534936705304
22.566645429440403,32.7161983723429,28.21045116530854,399.2591492047594,25.71111577960517,289.7712036523568,25.337210603173205
22.569889349716078,32.62113345060264,28.320648274983558,396.45883192184345,25.940193133940625,285.1195663255369,25.349132348520808
22.57429321506742,32.52127252911953,28.438672401051942,393.4115441522346,26.16808036301055,280.42150588994934,25.36227650849602
22.579729319161785,32.416946195242296,28.564716268293108,390.1303391950016,26.3934518635931,275.6923886363664,25.376606906315235
22.586066921184457,32.3085259284185,28.698913812389154,386.62837397578585,26.614985574719903,270.94734342966643,25.39206350121799
22.59317768034895,32.196407018921626,28.841367398992677,382.91880321296543,26.831375087293225,266.2011975748004,25.408560193841286
22.600929595464237,32.081000375640414,28.99215389400523,379.01475432663943,27.041345490121177,261.4683412621715,25.425996671327507
22.609177368026597,31.96272953735523,29.151315820917493,374.92935666980003,27.243663343039245,256.76258340227236,25.444270551750172
22.61776195175578,31.84202248043968,29.3188538016955,370.67582306430904,27.437141285724554,252.09704745606072,25.463276025750076
22.626520470444206,31.719294841281865,29.494728206395386,366.2675935260313,27.620643336790526,247.48412576419886,25.482893542698186
22.635294683951074,31.594930900574244,29.678859124328913,361.71844481112174,27.793090255231625,242.93545397784192,25.502986741647618
22.643929456686827,31.469276368194965,29.871114858081288,357.0424658295975,27.953463495781946,238.4618854506374,25.52341322327997
22.652266347544646,31.342662880855407,30.071298355280415,352.25395431712485,28.10081063913114,234.0734960370644,25.544036418931842
22.660142684050186,31.21546578397692,30.2791462180997,347.3673158584205,28.23425150022467,229.7796137006024,25.564723793949668
22.66739892994175,31.088160623363994,30.49434240425949,342.3969661216544,28.352981536274125,225.58885505051896,25.58533542262734
22.673886059349496,30.961345894186707,30.716531825515705,337.35726045638563,28.456273088188745,221.50917613262033,25.605719543962234
22.679464407626536,30.835740655945713,30.945316888692833,332.2624984207559,28.543475196681964,217.54789281470437,25.625722169608448
22.683997343868512,30.712180865094336,31.180239564034853,327.1269625914463,28.61401167379689,213.7116202598508,25.645199332489746
22.687350444755836,30.591613338883445,31.420770727903953,321.96490692841115,28.667383154896914,210.00618169457792,25.664018271930658
22.689398560096304,30.475076493425853,31.666327250690106,316.7904764113122,28.703182461804147,206.43656331503968,25.682050240228083
22.690030254162238,30.363702965255047,31.916310278932382,311.6175776489559,28.721119666618954,203.00692585529941,25.699169190505884
22.689142572754207,30.25881553063125,32.17013336257529,306.45971351039094,28.721038408737215,199.72065130196683,25.715262057224127
22.686634773978124,30.16209821907416,32.42722582592612,301.32981965927155,28.702912335900336,196.58040315746513,25.73023896315508
22.682412292242315,30.075718687630022,32.68702521936204,296.24016410929204,28.666828915635104,193.5881793672817,25.74403057440031
22.676398437901543,30.00237872459666,32.94897197298815,291.2023301067816,28.612974079834146,190.74535139114934,25.756576756653384
22.668541490652483,29.945395807218,33.21251557203883,286.22722530784307,28.54162381357704,188.0526951578942,25.767821594841507
22.658810302987035,29.908800626696078,33.477141402392114,281.32505576576614,28.45313794564659,185.5104414608319,25.777720866785387
22.647183700199253,29.897314548999937,33.742406514042074,276.50527547032385,28.347949121408647,183.1183735781285,25.786251007714444
22.633644881110598,29.9161935875297,34.007956103257,271.7765482009821,28.226549040454604,180.87594174114875,25.793406927980733
22.618186358777837,29.971090461964437,34.27350858646293,267.1467232540935,28.089480486802177,178.7823383890674,25.79919197333759
22.600818666981223,30.06805322268714,34.53882390710885,262.62281150645185,27.937336868857592,176.83650317678624,25.803615180289807
22.58157181278378,30.213586269580325,34.803685900777054,258.2109703083496,27.77076092351183,175.03706211285532,25.80670237735918
22.560488867437492,30.414604294267658,35.06792363555063,253.91651485223753,27.59043578838935,173.38226089115525,25.808508079054178
22.537622716626505,30.678242297718377,35.33145654708191,249.7439458668873,27.397070486071243,171.86995204637108,25.809113297049127
22.51304328488836,31.011636384698853,35.594317339213326,245.69696922606627,27.19138579914299,170.49761503570127,25.808613085318285
22.486846794429958,31.421771052903395,35.8566388756726,241.77852235393252,26.97410609903918,169.262354107648,25.80710904211131
22.45915349188178,31.91538844385229,36.118636032538774,237.99085016925636,26.745960485838626,168.16086660573248,25.804712748006473
22.430093945247254,32.49891816662979,36.380599770161076,234.33561753042366,26.507689852946935,167.18940783254266,25.80154965930257
22.39979707294526,33.1784027038723,36.64288521542547,230.81400834427652,26.260050501312232,166.34376200762586,25.797751778724006
22.368388867541125,33.95942606255402,36.9058796916586,227.42686609594932,26.003810905451285,165.61922257941492,25.793443183437965
22.33599594333228,34.84712368460003,37.169964519921805,224.1749835968288,25.739751165133853,165.0106109549435,25.788733524046926
22.302742800544106,35.84631550780121,37.43549596658716,221.05945352197966,25.46867287287122,164.51234597974758,25.783726141833515
22.268742115002564,36.9616200862754,37.70281989866564,218.08184218376545,25.191410075552604,164.118511003343,25.77852903804282
22.23408818292278,38.19739872546751,37.972307718595616,215.24411031339227,24.908827870358444,163.8228717540116,25.773253751964546
22.19886106067238,39.55756962982482,38.24438243934672,212.54840194130944,24.621810596634255,163.61886634360485,25.768004384339676
22.163135715483715,41.045435276304396,38.519525741950076,209.99683257521292,24.331252115785922,163.4996083424556,25.762872992000304
22.12698468155662,42.66366867750064,38.7982812060448,207.59134419486955,24.038053337112625,163.4579320507965,25.757949341335483
22.09047320319992,44.41448740141957,39.08125033735893,205.33364444221306,23.74311970090249,163.48647938852636,25.753332862080423
22.053656596432397,46.29982204055701,39.36906699543788,203.22519943313733,23.447351320707455,163.57778365307223,25.749131413245994
22.016585432201587,48.321289920481554,39.66235946285129,201.26721355492424,23.15162795784957,163.72434933111774,25.745448619102042
21.979312004039663,50.48002202956718,39.96171703016013,199.46055026486076,22.856795313308158,163.91881430687442,25.742374693580228
21.941888925999407,52.77649359759319,40.26766602627793,197.80560883112216,22.563658327084703,164.15419950395525,25.739989625860012
21.904360925935418,55.21041924103476,40.580659986924836,196.30220683996376,22.27298492706856,164.42408268410009,25.738370041510628
21.866759091269657,57.78068287303702,40.90108375878325,194.94951269724692,21.985515264856744,164.72259762314118,25.737585946431025
21.829103188854972,60.485296493678284,41.229258939968716,193.74604351951604,21.701964566056812,165.04437554331497,25.737688601371968
21.791407701088435,63.321448393452954,41.565454287255584,192.68970409705778,21.423015974933186,165.38454949200275,25.738704524159054
21.753683076520613,66.28563250074767,41.909923711078186,191.77782765142913,21.149311456127688,165.73877147298302,25.740643964461558
21.715931027099334,69.37373131663236,42.26296839185526,191.00723351754235,20.88144616121521,166.10315048978816,25.743513066834915
21.678143047165527,72.58099541492942,42.62499274861796,190.3743368914407,20.619963445286764,166.4741250656297,25.747314346040056
21.640311208608768,75.90201944198891,42.996533934959345,189.8752565318668,20.365349721046485,166.84834975220537,25.752036266693878
21.60244620592136,79.33079222478295,43.37825589015132,189.50584723273076,20.118037294791293,167.2226494138937,25.757646587142464
21.564586488125716,82.86076561488832,43.77091222895378,189.26167258349972,19.878421819395133,167.59403067427922,25.764098257330986
21.526792070069103,86.484878228381,44.17530723886341,189.13797240792036,19.64688501468306,167.95969615166163,25.77133897575199
21.489135400669532,90.1955646844084,44.59228043145478,189.1296619709505,19.42380543212685,168.3170216445971,25.7793109807126
21.451705405524226,93.9847937292867,45.02270888115534,189.23138278334065,19.20955221103659,168.66349219444626,25.78794261423255
21.414623942787777,97.84410379787951,45.467511086130735,189.43759490185752,19.004470604381094,168.99661413919836,25.797145388207646
21.378055942511835,101.76459373833653,45.927651901005746,189.74265792701232,18.80887052782581,169.31384959718366,25.80682319441454
21.342201430583,105.73689784950848,46.40416695710808,190.140851784434,18.623023484832103,169.61264220673155,25.816883690629275
21.307280850832512,109.75120630288278,46.898215528348665,190.62633932352566,18.44716396891405,169.89053433494527,25.827239075794978
21.273531255305247,113.79736480808732,47.4111236408064,191.19309853592426,18.2814881557606,170.14526830868147,25.837798462014245
21.24121275473779,117.86503550801554,47.944378389132204,191.8348494798652,18.12614867392186,170.37480216088747,25.848466391740594
21.210608704994385,121.94383194656547,48.49961245480343,192.5450045601204,17.981249416338684,170.57728389739313,25.85915425466737
21.182012483295836,126.02335136504428,49.07864940172749,193.3166762905309,17.84684241505181,170.75102380715632,25.86979200527295
21.15571327938578,130.09313475291688,49.68360987693767,194.14273998818643,17.72292460839913,170.89445246763398,25.880325550463
21.131994051373383,134.1426395791758,50.31700301463611,195.01589075270087,17.609432331517336,171.0060591379633,25.890704370783443
21.11113754229699,138.16126143083923,50.98173965885707,195.9286569365174,17.50623573496118,171.08432990994314,25.900876822828405
21.09342575843815,142.13838233560526,51.68108973837437,196.873401629935,17.41313900109921,171.12770664059278,25.910800865359743
21.0791281530232,146.06342764845627,52.418638109613035,197.84234122564985,17.32988888028907,171.13458187039058,25.920457423861524
21.068489332970508,149.92592949632643,53.19822830410761,198.8275681932463,17.256185191908155,171.10335488843234,25.92984940124918
21.061728928320477,153.7155838609797,54.02384861281494,199.821075998704,17.191685623690848,171.03254475769387,25.938988292725853
21.059052080203184,157.4223216659227,54.89947063657488,200.81481555456548,17.136005575589945,170.92088196487887,25.947887022846896
21.060654603146364,161.03642855485728,55.82890590659318,201.80077610320185,17.088719297812286,170.7673108551907,25.95656922005054
21.066713285814753,164.5486584952601,56.81571689272579,202.77103414057342,17.049367941384503,170.57093503691763,25.96508184361448
21.07737196438796,167.9502564857521,57.86314619804984,203.71775926650204,17.017475183950854,170.33099752430357,25.973493237324096
21.09273958270993,171.23290201265135,58.974032131904615,204.63322713238654,16.99256296863595,170.04693889630806,25.981878217203043
21.112900534891207,174.38864825767112,60.15074988808571,205.50986323188334,16.974158541070942,169.71846647558732,25.99030677804234
21.13792200600255,177.40991162622143,61.39520711518433,206.3402904248738,16.96179562090308,169.34554573866055,25.99884570356165
21.167848863264066,180.28951745702201,62.70883953902396,207.11735389038535,16.955025389681236,168.9283228955659,26.007563775149997
21.202694184080112,183.02077935961162,64.09255920800105,207.83413354816224,16.95344759988624,168.46705627779363,26.016526960676835
21.2424386062372,185.59760118187933,65.54669988077195,208.48396831887052,16.95675208366225,167.96210924282582,26.02578551449352
21.287039222344436,188.01459750085687,67.07103553854441,209.06049954566492,16.964753016560184,167.41398410482546,26.035367176617566
21.33643516337175,190.26723325320614,68.66488858287617,209.55773603566067,16.977406633115983,166.8233349241888,26.045282939061593
21.39054173695029,192.35197394435352,70.32727874194164,209.97013575533848,16.994810083924737,166.19095534408996,26.05553472512011
21.449242667202277,194.26636732268975,72.05704273340217,210.292672787861,17.017182727662842,165.51779958623027,26.066112320510086
21.512396255235277,196.0089837300087,73.85289128557088,210.5208615388678,17.044837337187683,164.8050353489831,26.076982821736973
21.57985511862063,197.5792821462082,75.7134562399702,210.6507492158936,17.078155247246965,164.05406021591978,26.088087188490277
21.651479881416556,198.9775312863277,77.6373756239087,210.6789110418563,17.117579279171192,163.2664676756148,26.099350536361918
21.727134140251565,200.2048270236784,79.62334387916643,210.60246109998252,17.163623505520818,162.44401446965028,26.110695356057594
21.80667141497944,201.2631509969389,81.67006015044407,210.41906777035558,17.21687982397442,161.5886152329375,26.122043624914898
21.889930560893745,202.15542590638177,83.77612951450908,210.12697653585514,17.278004230296673,160.70234424534138,26.133309279250135
21.976740760202954,202.885575128303,85.93998915551214,209.72504359408947,17.347688967157953,159.78741848512027,26.144395691847794
22.066923699043766,203.45854950883663,88.15988892062255,209.2127641440225,17.42664211379893,158.84615886694084,26.155206227453114
22.160285572692743,203.8802533839709,90.43392861435295,208.59028262721216,17.515586145407582,157.88094419900892,26.165656621694186
22.25660650752822,204.15740136288312,92.76010701683421,207.85837347759463,17.61526219650138,156.89416610916916,26.1756734565799
22.355639335832112,204.29737913053592,95.13633074709034,207.01839439411802,17.726423139587226,155.88819481494482,26.185180633480716
22.457118093833568,204.30811274246454,97.56037221830098,206.07225030152873,17.84982058326565,154.8653699968423,26.194090243387183
22.560764316059046,204.1979409572017,100.02978066251737,205.02237961009502,17.986198198776375,153.82801145453035,26.202307628926157
22.666283998797407,203.97551490922558,102.54176572571032,203.87171580705294,18.13628840122392,152.7784540354022,26.209742127993255
22.773363394272682,203.6497364295802,105.09310849011612,202.6236139936632,18.300802729233634,151.71913721836373,26.21630899653624
22.88167532953066,203.2297404783052,107.68014891249616,201.28180807430167,18.48041710095469,150.65272879295398,26.221921390107507
22.990893891980118,202.7249660840119,110.298839449698,199.85043111503978,18.67575856660816,149.58219566261675,26.22648521244168
23.100702425597188,202.14536005425518,112.94481428076817,198.33403300314902,18.88739150576066,148.51077142625036,26.229905341935883
23.210786995095578,201.50162186173517,115.61344630565692,196.73752745703104,19.115798645735488,147.44185625201405,26.23209399858256
23.320826647163287,200.80528479566914,118.29989456440856,195.06609342874307,19.36135906612582,146.37891670291424,26.232967440102367
23.43049817320167,200.0685738856001,120.99914139068909,193.32509461299747,19.624327204980787,145.32541890717147,26.23243400714207
23.539495883782074,199.3042354820604,123.7060168661232,191.52002333037157,19.904818048769943,144.28477956624636,26.23039049745234
23.647546351971503,198.52549886360285,126.41521935936507,189.65645239858776,20.20280386333537,143.26031849508487,26.22673543545897
23.754405092297038,197.7460402697539,129.12134587154085,187.74004390984726,20.518119194899338,142.25521700994656,26.221386689099734
23.859846794169496,196.97978348676043,131.81894751249322,185.77665026150913,20.85046739826696,141.27247859220574,26.214285652286115
23.96366616083366,196.2406213307315,134.50260816193187,183.7724220232552,21.199428709801527,140.31488066699734,26.20538847237945
24.065688186885936,195.54219273532698,137.16701133663224,181.733830077919,21.56447052488402,139.3849128077719,26.194661062279362
24.165772528571512,194.8976926576093,139.8069633416161,179.66761408581436,21.944957800791382,138.48470693418935,26.182087568302173
24.263803741008292,194.31969218300497,142.41737164704804,177.58071449285225,22.340164586219416,137.61598038851446,26.16768166144396
24.359675416768923,193.82005758977752,144.99320431132156,175.48022335903053,22.74928719499526,136.7800071561318,26.151485685773807
24.453282894377068,193.40997957276824,147.5294810064549,173.37334324770669,23.171454804511697,135.97761474719465,26.133559610617812
24.544528915678153,193.0999606068182,150.02131982765832,171.26731984296018,23.6057343449949,135.20922538255792,26.11397523979455
24.633329594891645,192.89966670155297,152.46399373164422,169.1693495143743,24.051130742542888,134.47496628510035,26.092824002837357
24.719609021471765,192.81770963651,154.85296100165033,167.08650465431103,24.50658509478212,133.77480123155024,26.070227407602406
24.803289148726783,192.86145642439303,157.18390946292794,165.02570242629227,24.970974280018897,133.10860820588047,26.046334279955094
24.88428861290006,193.03694647615507,159.45283356512275,162.9936822853891,25.44311618813441,132.47621214395508,26.021306559080564
24.96253090038841,193.3489437886556,161.65607519691724,160.99694303329832,25.921785510591956,131.8774157994573,25.995311012598684
25.037949033375646,193.80101867818595,163.7902789155014,159.04164375274794,26.40574499480933,131.31201201117625,25.968526205395303
25.110479204508366,194.3955707913546,165.85230359721498,157.13351097037201,26.89378651373285,130.77974984261013,25.9411528364739
25.180051059961762,195.1339066415199,167.83914894523718,155.27777970818374,27.38476331280154,130.28027956093706,25.913411175626244
25.246586669345128,196.01648578590283,169.7479245885448,153.47916407378207,27.877604979236654,129.8131175778044,25.885527312111826
25.310010406499075,197.04319323394017,171.57586742373738,151.74183319245986,28.371325850616277,129.3776371189621,25.85772404000906
25.37025997925353,198.21341962838088,173.32039670459872,150.06937701858774,28.865030165457654,128.97305883624983,25.830224482437856
25.427287496211765,199.52594839276367,174.9791805118933,148.46477671980628,29.357902897023372,128.59842588843014,25.803258185013885
25.4810527793506,200.97881374908556,176.55015999509908,146.93040810890048,29.84918969335237,128.25258136193744,25.77705623938799
25.531523322962215,202.5692288844535,178.03151530134534,145.4680841344785,30.338186392338404,127.93416423088375,25.751837666625725
25.578685356191958,204.29359943656337,179.4216587265684,144.07911935599756,30.824243824204242,127.64160684533799,25.727801233737896
25.622551567986676,206.14771015727996,180.71930787867285,142.76440783972248,31.306771437250056,127.37312100031471,25.70513066136362
25.663154979330045,208.12710224333398,181.92355127732634,141.52450460342632,31.7852287636478,127.12669351602403,25.68400444638307
25.70053769137704,210.2273734978627,183.03384120347627,140.35967304575476,32.259114531807505,126.90012137972205,25.664595871079182
25.73474728552222,212.44419290245347,184.04997559629774,139.26987153225454,32.72796391682137,126.69110223880676,25.647062294661048
25.76584033899824,214.7731595788867,184.97210690573604,138.2547041201044,33.191347187182245,126.4973512957586,25.63153699998013
25.79388233513476,217.2096828520658,185.8007276612911,137.313386571305,33.648860432409336,126.31667422582022,25.618132900977265
25.818938127226787,219.74891328819308,186.53661722184214,136.4447640280151,34.10011242677553,126.14697959544554,25.606949922596776
25.841057032946136,222.38568126587649,187.18079610796192,135.64737525871544,34.544715353309726,125.98628739829334,25.59807198946784
25.86025830138379,225.11440934321348,187.7345013222571,134.9195220151873,34.98227927098691,125.83274992078816,25.591554655146716
25.876523408415025,227.92904443249085,188.19914803268534,134.25932493867626,35.41240840912527,125.68464838354258,25.58741793171289
25.88981725111319,230.82305356694326,188.57625817271432,133.66477744918296,35.834702027870975,125.5403814414252,25.585652732321375
25.900168018692256,233.7894156913004,188.86737270289012,133.13378257122295,36.24876077851902,125.39850442871582,25.586232381479988
25.907785440181378,236.82055147387166,189.07397349908297,132.66416908230772,36.65419285848109,125.25780498955012,25.589114808442
25.91313761989759,239.908263595399,189.19742419577412,132.2537301389251,37.05061530237997,125.11733631026135,25.594234273757593
25.916955703959104,243.04379486185366,189.2389264970215,131.9002807119205,37.43765291987477,124.97638891189528,25.601497318490072
25.920253948571183,246.21801526918216,189.19949673387467,131.60166642190893,37.81493846128164,124.83445034146327,25.6107937691143
25.924454058923338,249.42162751555765,189.0799786849748,131.35570591015502,38.182114203974784,124.69117947383488,25.62201240684615
25.93156030126464,252.6452466502413,188.88109559176883,131.16013057908296,38.53883739002325,124.54638544544157,25.63504351780247
25.94426751136486,255.8793743152412,188.60350767465746,131.0125829783875,38.884792910611914,124.40000652928653,25.649768663604068
25.965972917103954,259.1145104674791,188.24783612657455,130.91065944679602,39.219708282813244,124.2521038188534,25.666055244854146
26.000712504766057,262.34151046881493,187.81467415499682,130.85194125112352,39.543362891307005,124.10288104449943,25.683767138944262
26.053038762552408,265.5519146645857,187.30464619865816,130.8340084178082,39.85559099081533,123.95270691560447,25.702780691589325
26.1279078955927,268.7380272141841,186.71851174640204,130.8544638939625,40.15628046581971,123.80210603155302,25.72298772564775
26.230630520668775,271.8929013895946,186.05722979497835,130.91096141493287,40.44536715808264,123.65172505866992,25.744285722782973
26.36682580826208,275.01039297826316,185.32194759662002,131.0012271094136,40.72282821062274,123.50229919988574,25.766572464629256
26.542320855083116,278.08518797858994,184.513987721779,131.12307518607827,40.98868037830502,123.35461328752298,25.789753074406107
26.763046990182325,281.11272681838085,183.63489401154334,131.27439749964873,41.24298563442465,123.20944069630607,25.813746624046566
27.03497820794692,284.08910837341574,182.6864813241067,131.45313792636352,41.48586190880878,123.06746754219219,25.83847912707595
27.364063051172263,287.0110393451475,181.67081934974934,131.6572971751891,41.71748977570551,122.92922038808015,25.863868521612837
27.75610013140389,289.87582635306086,180.59018249423613,131.88495165738672,41.9381059029805,122.79500720650093,25.889817476202904
28.216582762752278,292.68142213969526,179.44702805889872,132.13422621931386,42.1479900840505,122.6648884582019,25.916219496874405
28.750572404334065,295.4264859514832,178.24399940478696,132.40322580737077,42.34746102062177,122.53870872800861,25.942967130503284
29.362621919928895,298.1103329923003,176.98393049602268,132.69000532181684,42.5368800854432,122.41618502655551,25.969950367806945
30.056732249760447,300.73274869253464,175.66985227857887,132.99263233926317,42.716646180682226,122.2969879163166,25.997048709924407
30.836362270048294,303.29383671919123,174.30499350101212,133.30929706233292,42.88717254571762,122.18077031131317,26.024130811249886
31.704517984634638,305.7940148355024,172.89276407785044,133.63838119782815,43.048856537885854,122.06718191606782,26.05106641876239
32.6638599330366,308.2340189685929,171.43672162465762,133.97845429575617,43.20206277541999,121.95590972969093,26.077737036191582
33.7167441334391,310.6147537364619,169.94051930446446,134.32822731624321,43.347126719932064,121.84670589815893,26.10403181354856
34.865192102242176,312.9370583830541,168.40784211287632,134.686503963639,43.48436366499487,121.73936082664277,26.129833752612775
36.11085409176639,315.2015391537676,166.84235393408508,135.05214130637262,43.61407319234092,121.6336561658519,26.155012618070582
37.45501251499843,317.4084784267953,165.24766276154293,135.4240063560411,43.73655149860762,121.52934216868304,26.17943226654692
38.898582102732604,319.5577445147908,163.62729250348798,135.80093165819417,43.8521166845616,121.42612537357913,26.20296136568585
40.442043260799004,321.6486982180437,161.98465711550762,136.1817098075351,43.96112870271975,121.32365471367851,26.22547261195076
42.085326433154734,323.6801491459877,160.32304940848312,136.5651706682259,44.06399194169753,121.22155079100592,26.24683271514166
43.82770864930499,325.6503644532275,158.64564867314692,136.9503137259174,44.161150164259666,121.11949587390221,26.266899524350794
45.66776736533581,327.55710374305323,156.95552863541297,137.33640384565754,44.25307984006789,121.01731031653733,26.285534253200257
47.60339619144351,329.39769436571595,155.25565998327488,137.72298455284735,44.34027249210436,120.91495086631814,26.30261579334142
49.63183426219548,331.1691840439537,153.54892235099334,138.10982929849544,44.423205657201095,120.81245039020958,26.31804130226571
51.74966625150679,332.86859804990286,151.8381206718492,138.4968583173156,44.5023217262792,120.70983732997752,26.331717054650888
53.95280628270245,334.49325018817643,150.12598811727665,138.88404309957403,44.578028642895354,120.6070551017705,26.343556125900946
56.23649136939171,336.0409326231617,148.41517772806884,139.27131217409132,44.65071154698708,120.5039008731752,26.35348832158319
