HandOpen,HandClose,Wrist Flexion,Wrist Extension,Supination,Pronation,Rest
83.89553078829749,65.99534653812539,42.509106365365554,15.205059709583416,65.54345814237865,22.152748438310326,25.53092455167468
83.9906662333121,65.41278597135235,42.44114312955596,14.825645109528104,65.57945915798594,23.012321948784546,25.524090794469394
84.07200798358198,64.83216807128493,42.358287577850554,14.461959062512909,65.64585242946879,23.869796643457004,25.51536953909221
84.13971729506629,64.25195477982443,42.26071674539606,14.114726343841086,65.74068999621218,24.72236594446655,25.50477214028078
84.19391839248973,63.670704202044114,42.148662827090575,13.784668440418224,65.86194921550853,25.567227733120475,25.492308036778812
84.23469326005349,63.087083776875694,42.022426239164936,13.472506564707329,66.00755251124113,26.40160066698667,25.477997756581164
84.26209675644128,62.49987007319581,41.88237150248802,13.178958187013421,66.17542432814656,27.222747834214466,25.461872572751226
84.27617657701774,61.90794451221481,41.7289147909775,12.904723019762859,66.3635498753341,28.028024318665704,25.44396515537141
84.27697788095337,61.31029200382849,41.56252716925717,12.650465357365892,66.56998433087308,28.81495413224525,25.424307524903703
84.26453655205137,60.70599894125013,41.38375821615712,12.416800927754682,66.79281630527439,29.581295141841167,25.402943121140236
84.23888619861006,60.094248610093814,41.19325585880696,12.204288755590701,67.0301272904675,30.32505254839928,25.379940414313012
84.20008734710281,59.474324654045475,40.99175961959948,12.01342403492944,67.27998478137971,31.044455383690646,25.355392070346873
84.14824685820652,58.845633157108395,40.78007527717137,11.844628331785914,67.54048487678241,31.73793016961825,25.32940190769567
84.08350541956501,58.20773088631068,40.55905772555979,11.698237153787884,67.80981693168485,32.40408357089615,25.302076322571796
84.0060303096542,57.56033517141192,40.32961171020573,11.574489854440204,68.0863002042322,33.04168635764356,25.273528170397864
83.91605546761286,56.90332170930003,40.09269229771828,11.473526710516962,68.36838757024375,33.64965158458781,25.243881662526093
83.8139410932941,56.236755154710984,39.84928878764252,11.395391720377292,68.65468700556647,34.22701282614299,25.213265534858248
83.70019747727756,55.56096897858033,39.60040263594063,11.340034422401343,68.94402750946325,34.7729153710203,25.181799873054313
83.57547699974575,54.87663721645981,39.34704005596927,11.307306233093506,69.23552092047318,35.28662323317625,25.149591944690698
83.4405704353323,54.18478091798096,39.09021857868395,11.296954101062523,69.52856389872386,35.76752790667992,25.11674447403382
83.29640056627021,53.48672103712942,38.83096669523917,11.308618961753627,69.82278709920664,36.21514503451002,25.083362688436527
83.14398484295798,52.78401514750382,38.57031076847146,11.341842042903476,70.1179866916454,36.62910105113234,25.049549265902602
82.98439050687247,52.07840369732179,38.309270291786596,11.396072027029367,70.41406527326328,37.00912114500568,25.01539437246714
82.81876114694647,51.37179099561997,38.048871240661164,11.470665315268,70.71101658596797,37.35502927339961,24.98097595836935
82.64843449330816,50.666265576079205,37.7901544043734,11.56488158399004,71.00896482606353,37.66676023842178,24.946373708282113
82.47503887136799,49.96413009788527,37.53415870078689,11.677882472160789,71.30820338091264,37.94436762541706,24.911681695039903
82.30047658410982,49.26791188569403,37.28189123579697,11.808737173597663,71.6091768404586,38.188014581893896,24.87700538074062
82.12684795958417,48.580346012458705,37.03430845958131,11.95643152667167,71.91242592345041,38.397956344806374,24.842449401064552
81.95639245885309,47.904336191590446,36.79231566159183,12.11987504537937,72.21856079264276,38.57453561815399,24.808113880179263
81.7914403175742,47.242910256462686,36.556768459656624,12.297904910470582,72.52828754772327,38.71820034459869,24.774103592876404
81.63434137499132,46.59918608787997,36.328459526705686,12.489290369971496,72.84243756450259,38.82952700337507,24.740535795085258
81.48737982811258,45.97634169216288,36.10809692511598,12.692739949400918,73.16195351281691,38.90922389970136,24.70753516777473
81.35272204509374,45.37757152336175,35.896294718508955,12.906909856437888,73.48784809092598,38.958111825959854,24.67522157082915
81.23241749761056,44.80603273238259,35.693583722344066,13.130411963748903,73.82115518975819,38.977097705535506,24.643704195917337
81.1284094866789,44.26480922042682,35.500426781180124,13.361824112866612,74.16286811017002,38.967149914485354,24.613087143145297
81.04251836339317,43.75692692436237,35.317223300832886,13.599705467649065,74.51386914168314,38.929275468113666,24.583476504678472
80.97641442621268,43.28543001875852,35.144312419012415,13.84261457107406,74.87486535566194,38.864503680398144,24.55497690335563
80.9315955494371,42.853473182592815,34.981986825274724,14.08912622817524,75.2463372864232,38.77388577474454,24.527680162239452
80.90936012000464,42.46436667522966,34.83050368247226,14.33784486614745,75.62849914852228,38.65850882260783,24.50166103026623
80.91077610756514,42.12155425656146,34.69007500531456,14.587412232919524,76.02126987604636,38.51950535565072,24.476987148324778
80.93665476909932,41.82854394382564,34.5608427005484,14.836509406477312,76.42426155880926,38.35804579508961,24.453730579287665
80.98753493398317,41.58881479996265,34.442855681067435,15.083856981834593,76.83679224680263,38.17532165928844,24.43196578007774
81.0636794462213,41.40570974462808,34.336062577683926,15.32821729979871,77.25791564785996,37.972535161563535,24.41175775815291
81.16507131304171,41.282329819680825,34.24032188185631,15.568398582373682,77.68645249544922,37.750906748969186,24.39315637881746
81.29140686556671,41.221467503103774,34.1554151290441,15.803258117700018,78.12101476451296,37.511699927893666,24.376203657286197
81.44211073878103,41.22559667565823,34.08104847217984,16.031703258315424,78.56001767942385,37.25624355203148,24.360942452242178
81.61638019804342,41.29687914593381,34.01685106729174,16.25269264453326,79.00168264350548,36.98593121792892,24.347412608005442
81.81322391918421,41.43714660238442,33.96239452914979,16.46524056141546,79.4440455888247,36.70220200543041,24.335638684374775
82.03146410965432,41.64786550802238,33.91723579824884,16.668423220689643,79.88498369714608,36.406520316176554,24.325626216235204
82.26971162886286,41.93010131316015,33.880951701899576,16.86138282486679,80.32226502160911,36.10035958918262,24.317372734582634
82.52634606406245,42.28448472659176,33.85314201115277,17.043328231905985,80.75360597125344,35.785186702299406,24.310879407939904
82.79952055659273,42.71118392477934,33.83341375717481,17.213535645412044,81.17670361442742,35.46245677491458,24.306148492919366
83.08718475870869,43.20988391417953,33.82137016499543,17.37135239215278,81.58923222972209,35.13362801066274,24.303171278650083
83.3871062366898,43.77977801353507,33.81661114904423,17.51620175653871,81.98882820669547,34.800179433594515,24.301922984504262
83.69688158018651,44.41957965203343,33.81873431702006,17.64758393993132,82.37308278921559,34.46360635478246,24.302370884929797
84.01395056945442,45.12754321891017,33.82732664085869,17.76507135174034,82.73954666354217,34.125394013835354,24.30448348049252
84.33563397674023,45.90147432214889,33.841954777663545,17.868301611024897,83.08576121473159,33.786986963420034,24.30822736318263
84.65918886331733,46.73873162973881,33.86216776365237,17.9569745809809,83.40932627180673,33.449767832209616,24.31355585882183
84.98184662223854,47.636243080532786,33.88751006097393,18.030856763710943,83.70797088214793,33.11505022278583,24.32040457899307
85.30081664674553,48.590547628966206,33.917528356199085,18.089787780079753,83.97958289330738,32.784080853648895,24.32869920898164
85.6132748917003,49.597840559073724,33.95176327139508,18.133681063413817,84.22220148277131,32.458045839133234,24.338363678953133
85.91635875364503,50.65399717541844,33.989736787073085,18.162518264397605,84.43401593508554,32.138083491464215,24.349317000786733
86.20717833994648,51.75457973364156,34.03095159000861,18.1763435701736,84.6133946483218,31.825300992978008,24.36146349295403
86.48286069952815,52.89485137981683,34.07490358752117,18.175264898952292,84.75892004569486,31.520782671497326,24.374690934206875
86.74062663009015,54.06981826304002,34.12109238029613,18.159462378965205,84.8693961272603,31.225582042091496,24.388881874357867
86.97785549226596,55.27429692567448,34.169019069186554,18.12919509792404,84.94382798019953,30.940700997343505,24.403925336420624
87.192103291041,56.50297417921099,34.21817892801742,18.084799193885495,84.98139040187965,30.667064441543527,24.41971508979638
87.38108939830715,57.7504360351207,34.26806263356179,18.026681532708757,84.98139634043987,30.40549576283928,24.436139025684085
87.54267681308399,59.011177423305696,34.318168678051414,17.955316308967166,84.94327310919388,30.156694854417754,24.453075820757935
87.67486397336802,60.27961330889149,34.36801630412382,17.871244955916755,84.86656046230783,29.921220470397046,24.47040479622527
87.77580680954897,61.550096628041324,34.417149697918404,17.77507352595423,84.75093310241216,29.69947886196608,24.4880163551369
87.843859051509,62.81693718004583,34.46513997293492,17.66746377014197,84.59622055375378,29.491720998703542,24.505809702724243
87.8775922044739,64.07441869007091,34.51160100323835,17.5491211858295,84.40239773267135,29.298056605960568,24.523681849622218
87.87579503746356,65.31682180414874,34.556218405952926,17.420785472320855,84.16955300346552,29.118493585402433,24.54152324146102
87.83749531411067,66.53845922141797,34.59876606234207,17.283224144501013,83.89785756121199,28.95299009228483,24.559226600773606
87.76200842222283,67.73371410232886,34.639094761076656,17.137225804483652,83.58754802385305,28.80149181802815,24.57669678343052
87.64896350335972,68.8970683314255,34.67711202509932,16.983590633570415,83.23892534592343,28.663949627287717,24.59384787725359
87.49828838579562,70.0231214740549,34.712778870353276,16.82311942323785,82.8523862349686,28.540330843620193,24.610592508065835
87.31018807567096,71.10661465644465,34.74612092395456,16.656605507264597,82.42849017181437,28.43062092331158,24.626839602593254
87.08514285805182,72.14246720830656,34.77723109215654,16.48483365187672,81.96801660609233,28.334805720544043,24.64250532637449
86.82391956282993,73.12581486612845,34.806258710772376,16.308583675847366,81.47198618780483,28.25284255536391,24.6575227962295
86.52757247277377,74.05203463610435,34.833404845381054,16.128631478995214,80.94169001024122,28.18463460022705,24.671837068096234
86.19742188996999,74.91675857459843,34.858933320245576,15.94574493342168,80.37874631603552,28.13001255174599,24.685391708906998
85.835037131648,75.71589176879061,34.883183880015636,15.7606792889098,79.78513202481045,28.088720491142578,24.698124041811237
85.44224423778094,76.44564282297509,34.90657525042886,15.574176578475852,79.16315992887768,28.060407140139755,24.70997500856511
85.021123992497,77.10255616942216,34.92960101234266,15.386968011400985,78.5154293755162,28.044631127469433,24.720900223973413
84.57397289731122,77.68352874572884,34.952824993515975,15.199774275160046,77.8447701376365,28.04088325106929,24.7308675791691
84.10325067379323,78.18581125460682,34.97687232128783,15.013300722267847,77.15417948345281,28.04861376763928,24.739846472178165
83.61153301645379,78.60701312270434,35.002405360650044,14.828229673976491,76.44675994595443,28.067250222785578,24.74780596527853
83.10146533473488,78.94512166351399,35.03008781777482,14.64521388867792,75.72567072940193,28.096202544180972,24.754726758342574
82.57571782529978,79.19852125732275,35.06056267539905,14.464872725668515,74.99409526260564,28.134862964158252,24.76061175692066
82.03694109356809,79.36599538520781,35.094467655169026,14.287789097067476,74.2552170785686,28.182608664828887,24.765481068123396
81.48772037256248,79.44671607394521,35.13247558234917,14.1145049652562,73.51221442913157,28.23880406203694,24.76935747381625
80.93053548525508,79.44023971543163,35.17531759108069,13.945516701290043,72.76828801706839,28.302794803783364,24.772259415337967
80.36773218983248,79.34651526922234,35.223769069308965,13.78127449961414,72.02669410613478,28.373894212560298,24.774207818049554
79.80150149028539,79.16588662914099,35.27862241722778,13.622187577210916,71.29074954294309,28.45136887563709,24.775235015137454
79.23386062432358,78.89907504957894,35.34067180910686,13.46863050349261,70.56381084157834,28.534427805429118,24.775382488044887
78.66663722596444,78.54715633467364,35.41069972697699,13.320943995251591,69.84923647681694,28.622216834477086,24.774690729062918
78.10147057284979,78.1115523350385,35.489446750595114,13.179429980793472,69.15033694461225,28.71382087159643,24.773195986650574
77.53984028781777,77.59403105151287,35.57757202841353,13.044347650841685,68.4703184815103,28.808279404196334,24.77093972698684
76.98310850826567,76.9966952290572,35.675626673547995,12.91591555986002,67.81222407740245,28.90461870947425,24.767978549340643
76.43254677129467,76.32195229782384,35.78404883296593,12.794316761998122,67.17888745319996,29.001897307702148,24.76438074000352
75.8893355002745,75.57247805291654,35.90316648006392,12.679700130870968,66.57293359119681,29.099251116415694,24.76021345902246
75.35455120273397,74.75119339142681,36.033190996144164,12.572176266727054,65.99683208808453,29.19591705813862,24.755537400903496
74.82916680613303,73.86125854936134,36.174204006159286,12.471812747203769,65.45295154234161,29.29122612877362,24.75041604623641
74.31407197585101,72.90606486261214,36.32615288562374,12.378633298376867,64.9435688508959,29.38458066394782,24.744925954818978
73.81008870993101,71.88920738708212,36.48885952326978,12.292620763144116,64.47084286983801,29.47543517519417,24.739153088523967
73.31795982111294,70.8144513995714,36.662028648944805,12.213720313000836,64.03677598993288,29.563286503616027,24.73318022317198
72.83831879822739,69.68571734635755,36.84524753682046,12.141840673606595,63.64317160820787,29.647667130694035,24.727083557166033
72.37165944915924,68.50708487622948,37.037992757583794,12.076855235077895,63.29159075450244,29.72813480942268,24.720945415937134
71.91831700188038,67.28278905032727,37.23965609764601,12.01860701211511,62.98331628971466,29.804260187299683,24.714868210995267
71.47846378653158,66.01719069744594,37.44957101226679,11.96691872088727,62.719335653290315,29.875626827043654,24.708973444096227
71.05210880278777,64.71473741432112,37.66701706416231,11.921603219510418,62.50033646787591,29.941863274879463,24.70338998814869
70.63910199082203,63.379944578297426,37.89120681046106,11.882467573917957,62.32669782607522,30.00269945000898,24.698248161315274
70.23917532283025,62.017398334357345,38.12127494984137,11.84931036949709,62.198481751283936,30.05800806263218,24.693685935679625
69.85202794397445,60.63175062256551,38.35628262342243,11.821919798569452,62.11544151020118,30.10781775727274,24.689855581826947
69.47740041706385,59.227687647238376,38.59523222849842,11.80007973948175,62.07704438630496,30.152318742955593,24.686917804063306
69.11509916777767,57.80988784306139,38.837076439380006,11.783581444050812,62.082507365556175,30.191859568620156,24.685026975102062
68.76499885665255,56.38298849207243,39.080715400692206,11.772231465841113,62.13085395192232,30.22691867808406,24.68432209617197
68.42705083874397,54.95155795899052,39.324993764829756,11.765851356861933,62.22097090827402,30.258058714464212,24.684930181431973
68.1012884929496,53.52006274379823,39.56870913702246,11.764273346158818,62.35162753563546,30.2858812637669,24.68697214722282
67.78781707443673,52.09282960166844,39.81062815864617,11.767338628375102,62.521456472675496,30.31098866375204,24.690558729630673
67.48678601816714,50.67401281266051,40.0494975257879,11.774900377079343,62.72892663102754,30.3339531921248,24.69577915657345
67.19834613926582,49.26757518181955,40.284046290257955,11.786827029171246,62.972336271676774,30.355295145540047,24.702697259011487
66.92260122027366,47.877280617066944,40.512992047445636,11.80300070843874,63.24984060610502,30.37547821612912,24.71136159633023
66.65956946586097,46.50668658863798,40.735065821387536,11.823311291344623,63.55950646980103,30.39492939576625,24.721816561886882
66.40918031707989,45.159129920141396,40.94904896057389,11.847651347548348,63.8993618629136,30.414071655045166,24.734099201860687
66.17132530432563,43.837714378780746,41.15379575771345,11.875916755930177,64.26742020974181,30.43334600507833,24.748226198477514
65.94593045672673,42.545310887640525,41.34823072479729,11.908011261270898,64.66169783901131,30.453211329029777,24.764188511820933
65.73298945657388,41.28456516632952,41.531337258755684,11.943848201268882,65.08024191678282,30.47412738959429,24.781960921644732
65.53254688763792,40.057898411941636,41.70215246773611,11.983347717714727,65.52115059874622,30.49653454388418,24.80151409896355
65.34466603048708,38.86750213427984,41.85976602826775,12.026433167933586,65.982564281089,30.520838989501332,24.822814317755178
65.16939677680523,37.71534617330654,42.00332356285365,12.073027080605875,66.46263276683385,30.547399832908052,24.845813362081064
65.00673881071522,36.60320774214188,42.13204012790475,12.123044513725237,66.95947060204547,30.576511553813248,24.87044430120798
64.85660651272377,35.532700557876865,42.24521842860763,12.176384692946534,67.4711096312848,30.608383494260366,24.89663081327865
64.71880749742392,34.505281533573374,42.34226455187765,12.23292371831799,67.99546397964744,30.643122653970423,24.924298882095584
64.59303359511541,33.52224506844765,42.42270050086926,12.29251060434927,68.53032145096837,30.6807254228282,24.95337681995728
64.4788541647204,32.58473366306101,42.486170955495155,12.354967499652503,69.07336404078198,30.721079584871255,24.983786169699965
64.37571347193749,31.693768239526836,42.53244969244012,12.420092672065987,69.62222125198812,30.763970461901803,25.01543724830765
64.28295500044507,30.850269141129036,42.561455640237135,12.487663699839349,70.17454896381182,30.809085980696644,25.048235205454866
64.19988056015005,30.055047388555398,42.573265804516055,12.557439856874392,70.72808814150902,30.856030771112767,25.08208671203332
64.12580376662372,29.308777959355954,42.56811508860805,12.629165450470126,71.2806671956334,30.904364810081876,25.1168958105451
64.0600570976391,28.61198156363863,42.54642409055569,12.702575796946165,71.83017387921608,30.95365604970105,25.15255276269676
64.00196337867268,27.965034089741064,42.508892181360146,12.777403637848954,72.37453818844033,31.00351373885306,25.18893039640566
63.95080558960523,27.368197206272953,42.45660245142857,12.85338161762989,72.9117316374822,31.05358803519169,25.225894106235817
63.90580958772042,26.82164016823552,42.3910552085568,12.930239348316732,73.43976858892277,31.10355047749117,25.26331403083072
63.86613506990187,26.325437863375207,42.314127562212036,13.007698425734562,73.95670130047797,31.153072176610205,25.301065388290063
63.830874070155616,25.87955863236699,42.228018942118055,13.08547102797598,74.46060498019528,31.201805968762752,25.339020224770376
63.79906440692831,25.483852297746544,42.135230873926254,13.163264598019946,74.94955773708259,31.249372838698648,25.37704679547652
63.769712479624395,25.13804205945039,42.03858301871973,13.240788717692496,75.42164145515345,31.295351856186407,25.415023314634173
63.74180955433703,24.841739020358677,41.94122068012781,13.317758377931359,75.87498296188414,31.33927390567634,25.45285261943605
63.7143353297756,24.594486787969608,41.846566122827475,13.393892767623935,76.30780762046714,31.380619919741665,25.490462133605945
63.68624962875088,24.39580008949112,41.75821890915542,13.468913142706382,76.71845985069487,31.418822630546572,25.527792082750693
63.65647624398026,24.24516168002639,41.679861818177294,13.542542971668368,77.10538434188743,31.453268671276355,25.56478745252213
63.62388996708673,24.141990163289112,41.61521687660515,13.614510623550254,77.46709215421772,31.48329897765636,25.601400993096245
63.58731562490408,24.085616519655023,41.568031081416684,13.684552195181581,77.80212878531239,31.50820963913487,25.63759759787375
63.545535012987195,24.07528949862524,41.54205473184382,13.752412240176758,78.10905326477464,31.527262390436235,25.6733480739143
63.49729051076964,24.11019534912519,41.54104533156694,13.81784318229028,78.38643969126117,31.539720449043756,25.708615988133392
63.44128278152637,24.189464463288953,41.568831740182304,13.880606918040025,78.6329003745534,31.544909835024665,25.74335305114204
63.37617313674012,24.31216796052712,41.6293619016538,13.940480479516546,78.8471213612422,31.542273813199508,25.77750982244095
63.30059748934346,24.477336779408372,41.726651928198706,13.997261519662068,79.02793124313081,31.53139045714068,25.81104844235332
63.2131820302238,24.684016974475472,41.864678333931806,14.050768128463512,79.17441460819546,31.51196021821039,25.843940807112375
63.11254874132752,24.93132918227282,42.04728534626176,14.100834826491207,79.28600172319312,31.483784690317513,25.87615475443599
62.99731624720183,25.218484453312787,42.27810586893716,14.14731091689328,79.3624677083109,31.4467447028781,25.90764520328213
62.86611275901184,25.544745279286737,42.56048557862501,14.190062950149088,79.40387390094627,31.400778186189985,25.93835912237955
62.71760494048905,25.909366094561403,42.89745587891867,14.228977377190658,79.41052263097302,31.34585914565818,25.96824439683173
62.55052492861238,26.31155303082053,43.29177972743833,14.263959098841838,79.38294488640886,31.281979108118485,25.997248454365916
62.363679253235695,26.75045112932844,43.74599898034436,14.294926815218277,79.3218999024827,31.20913158670953,26.025307887555098
62.15594470601915,27.22513477638168,44.26240628058226,14.321811117716342,79.2283989766241,31.127301596925545,26.052342977352453
61.92626688647027,27.73458560349373,44.8429764448219,14.344558906652171,79.10378052769794,31.036465457070634,26.078264457939817
61.67366825507484,28.277679760293204,45.489375201702074,14.363140306740203,78.94978379674018,30.93660252161908,26.10298339679911
61.39725809094391,28.853203910717113,46.203082396092036,14.377551925650144,78.76854584455012,30.82771306114598,26.126411803869136
61.09623471836524,29.459875015322854,46.9855019717664,14.387814607526282,78.56254429230856,30.709838923451652,26.148455533459064
60.769884589282285,30.096331961704383,47.83794464534902,14.39396792858389,78.33454547995359,30.58308401886549,26.16901254133208
60.417596229092396,30.761107474646042,48.76153690661519,14.396065227397107,78.08755525489262,30.44762312690421,26.18798327168915
60.03889519512735,31.452610181370368,49.757149462237976,14.394171583176915,77.8247498115942,30.303692678575146,26.205282772130953
59.6334764908188,32.169126707545956,50.82535020066,14.388362734924742,77.54939429988403,30.15157166222457,26.22084059006517
59.20121914043809,32.908827550380465,51.966349174376845,14.37872139270248,77.26475878353622,29.991565589721965,26.23459055388804
58.7422227097922,33.66976177389553,53.1799290581396,14.36533147962859,76.97404492058995,29.824007423587265,26.246465612344636
58.256908749849245,34.44984680885505,54.46538114245801,14.348274577232344,76.6803696216159,29.64927959585864,26.256406238217842
57.74614067459268,35.246867929435915,55.82147323927859,14.327632024655822,76.38682225261847,29.467838968114712,26.2643723005645
57.21126897591256,36.058489251027844,57.24646955771109,14.303490916419332,76.09651750673122,29.280229972335018,26.270343323942477
56.65408487578024,36.88226495460607,58.73819875924382,14.275947616814163,75.81256688161275,29.08709722507951,26.274308570811577
56.07673906441789,37.71564178249512,60.29411975223214,14.245105653909423,75.53798993723139,28.889203571730636,26.276262659270138
55.48166541790214,38.555954998506294,61.91133633902307,14.211072303803995,75.27562629885016,28.687434072429948,26.276215246041517
54.87151001979564,39.4004247394064,63.58658847207364,14.173959845785948,75.02807780745877,28.482773248976702,26.274203875418095
54.249058416123226,40.24615733189818,65.31627542910327,14.133891545519878,74.79767645831978,28.27626699741053,26.27029371957138
53.61716220627229,41.090153329044576,67.09649915502263,14.091005688626378,74.58645669163798,28.06898406741518,26.26456402352583
52.978669883602585,41.92932113785285,68.92308043196076,14.045452381172586,74.39611910915387,27.8619829563738,26.257096515052833
52.33636593403392,42.76049561347111,70.79154736238998,13.99738638310233,74.22799801441585,27.656285274632967,26.247976178839426
51.692922059449,43.58046587735601,72.6971263202216,13.946964267814996,74.08306073912034,27.4528571696439,26.237296821702643
51.05086460183226,44.38601225634841,74.63473925300433,13.894350569592664,73.96195140386463,27.25260336431135,26.22515838914762
50.412556504855274,45.17393960435181,76.59899687662106,13.839728973875149,73.86505083587686,27.056381772596048,26.211656236461266
49.78018599257777,45.941096100781124,78.58419272694752,13.783309136431674,73.79250959787487,26.865051974508784,26.19687418129723
49.15575954085802,46.68438186145066,80.5843057835911,13.725323955987914,73.74424368787409,26.679554456841135,26.180888356747435
48.54110129490037,47.40075892422233,82.59301119082329,13.666021507288407,73.71991187826357,26.500974408623254,26.16377426534651
47.93785273120249,48.08726835381986,84.60369760111995,13.605658555641087,73.71889378979412,26.330545527427546,26.145605624364705
47.3474642580757,48.74105007206528,86.60948981703275,13.544496541830153,73.74028904302777,26.16960498331664,26.126446533593413
46.77118228994027,49.35936080739738,88.60327514101324,13.48279639145035,73.78296346235227,26.019534872995635,26.106350119058458
46.210042498451045,49.93960400925335,90.57773246133601,13.420811095245444,73.84563380870605,25.881707934636392,26.08536993959255
45.66487530672332,50.479398062586206,92.525366462336,13.358779986369486,73.9269318738534,25.757442939804175,26.06357185500626
45.136319289719424,50.9766768528115,94.43855731639516,13.296930059433132,74.02541200818699,25.647970675155737,26.0410315593577
44.62483107762179,51.42976866593353,96.30963209006838,13.235484097952734,74.1395340091108,25.554405694733116,26.017821801480263
44.13068684789197,51.83741031277676,98.130947598449,13.174667844002945,74.26765858423514,25.47771930070048,25.99400549723842
43.65398319300049,52.19871197164721,99.89496967489659,13.114710017291511,74.40804967573231,25.41871439057073,25.96964095550348
43.194645089336255,52.51312136011166,101.59433683756559,13.055837702907958,74.55886614140891,25.378005399512467,25.944788235872593
42.75243753262263,52.780418413401925,103.22190484544893,12.998273312327841,74.7181448222027,25.356009022940647,25.919504265999844
42.32697336368617,53.00072596695884,104.77079122768873,12.942234907458639,74.88378779645763,25.35295099389779,25.893829824223612
41.91771734137729,53.17449925583655,106.23443828001743,12.887936144268803,75.05356123484617,25.368883320287,25.867783399560444
41.52399496994339,53.30248537922419,107.60667645443203,12.835581976402175,75.22510723864765,25.40370044871037,25.84136959593034
41.14501415123355,53.38567409721947,108.88175895868159,12.785360569928235,75.39597428517288,25.45715564346086,25.814590741805667
40.77989544022289,53.425255024669674,110.05436939310428,12.737435935650758,75.56367145129424,25.528888224661248,25.787446427419535
40.427695770644775,53.42258125736609,111.11962576392352,12.691946982320124,75.72573160595407,25.61846133211432,25.75992306763445
40.087418946127585,53.37913572154302,112.07309563279318,12.64901468830574,75.87975433860592,25.72539482675556,25.731989334684588
39.75802511492591,53.29649896108926,112.91082054292062,12.608751585162153,76.02341415514678,25.849176902055202,25.703605687657426
39.43845516305442,53.17632313730349,113.6293456905204,12.571265650123115,76.15444562520615,25.989253419763344,25.674737529472598
39.127666357120596,53.02031496685991,114.22575370501046,12.53665766914672,76.27062776344437,26.1450097408869,25.645357142694323
38.824658677003825,52.83021979628753,114.69769092087674,12.505018057558146,76.36977949795266,26.315757264336323,25.61543480399451
38.528490357037725,52.607801794409234,115.04337065554508,12.47642722539392,76.44976108624155,26.500724286942397,25.584932872180474
38.238309616705436,52.35482776117169,115.26155383252683,12.450956668264284,76.50847230387392,26.699048505390262,25.55381148800768
37.95340734791915,52.07306549440426,115.35152238698834,12.428666439334092,76.54384850569029,26.909775588411765,25.522037831244983
37.67325130384144,51.764301725051844,115.31305859447963,12.409600262961291,76.5538632142752,27.13186759986084,25.489586062259235
37.39747516197439,51.43036817503467,115.1464284889624,12.393783427430467,76.53653998130146,27.36421456568248,25.456428574655263
37.12584499853996,51.07315133154889,114.85236630808161,12.381225030339083,76.48996583640927,27.60563985690063,25.422531417426484
36.85823919239746,50.69458254256796,114.43206759450644,12.371920366685776,76.41230041347585,27.854900277785227,25.387862008119328
36.59464954074436,50.29663701797273,113.88718929387251,12.365849343116373,76.30178493001166,28.110692646433773,25.352400646102026
36.335181532584485,49.881355288102284,113.21984370798134,12.362971558418929,76.1567567180752,28.371680965862627,25.31614123660207
36.08003511756956,49.45085754850134,112.43258839747192,12.363221210756572,75.97566761144377,28.636541213743325,25.279081830160283
35.82947587849364,49.00732307946,111.52842003083636,12.366504961923065,75.75709862150535,28.903996191037642,25.24122136432376
35.58381978208218,48.552947072506925,110.51075967204197,12.372705262993549,75.49976734443415,29.17282011121164,25.20257194550103
35.34343584163415,48.08990486978259,109.3834170147078,12.381687835394748,75.20253370581375,29.441823146892496,25.16317437145836
35.10874607909952,47.620336772985354,108.150546100529,12.393307692938967,74.86440998885912,29.709834665276247,25.123099337568767
34.88020696091308,47.14634120126518,106.81660916303728,12.407410497104479,74.48457367811312,29.97569127697746,25.082435279203253
34.65828018391505,46.66996188750011,105.38634689437781,12.423831854298914,74.06237792395024,30.238227721036953,25.041279445478235
34.443409342761115,46.19317745262016,103.86474688016933,12.442397669767125,73.59735906717945,30.496268797359196,24.999741636792244
34.23601277564103,45.71790554600628,102.25700920401364,12.462924832729188,73.08924851715469,30.748622908598755,24.95795128741208
34.03649272141866,45.24600917054748,100.56851105436624,12.48522041663434,72.53799429261394,30.994078597320836,24.916054400404562
33.84525409536957,44.77928462296312,98.80477417529603,12.509080106334897,71.94378186806274,31.231405972812492,24.874201150121863
33.662724519729885,44.319432341722525,96.97144232960234,12.534288344099739,71.30703570301195,31.459369221587686,24.832536232694128
33.48936224176635,43.868037504684864,95.07426877332009,12.560621791200843,70.62839864018844,31.67675693679993,24.791198941168197
33.325641782068125,43.426594713735454,93.11910422577917,12.587854367242285,69.908709214322,31.882422278084466,24.750326572760645
33.17202446528271,42.99657391729754,91.1118806782417,12.615759437961204,69.14900194025579,32.07531268498194,24.710051151223798
33.02892796126879,42.57947015626772,89.05859409252167,12.64410707538422,68.35053477585754,32.254480735517895,24.670490212148426
32.89671047859408,42.17680134548998,86.96528282707409,12.672659525594938,67.51482161246766,32.419082876863364,24.631741988435984
32.77569823287873,41.79009403724842,84.83799416200358,12.701169510528112,66.64364887413362,32.56837159910165,24.5938907860676
32.66626398015013,41.42089730216319,82.68274404312365,12.729382383424552,65.73907619300542,32.7016861279829,24.5570151754729
32.56890132711522,41.07079753919116,80.50548764981434,12.757039514958208,64.80342695669492,32.81845217311658,24.521187778253143
32.48423494026911,40.74139710668432,78.31210957303628,12.783880338025414,63.839264840787635,32.91819307208267,24.4864671197014
32.41298078460777,40.43427047869547,76.1084199916567,12.809643140103494,62.84935477581749,33.00053737154375,24.452893317005643
32.35591501589352,40.15092566983102,73.90013900269922,12.834067133764172,61.83661849529881,33.06521028490488,24.42049470727704
32.313876772292126,39.892770239328264,71.69287561715687,12.856896626952413,60.80409240641935,33.112014232324746,24.389297338567925
32.28777598995313,39.66107206800991,69.49212620738066,12.877883725427777,59.75488895552145,33.14081050599502,24.35932458095548
32.27857472785604,39.45692532013281,67.30329549921814,12.896786815037496,58.692162824984194,33.151510396624275,24.33058719514129
32.287250752705106,39.28125263758858,65.13170782583661,12.913367392687924,57.61908042683746,33.144077276928286,24.303077310370337
32.31476509508501,39.13485728641096,62.98258395223374,12.927390082344392,56.53879127692166,33.118531592320494,24.276775194860328
32.36203434093033,39.01848420083998,60.86099712925172,12.938627694765968,55.45440780410192,33.07494888154264,24.251660806572687
32.429902003186676,38.93283549132575,58.771834701493816,12.946867878451062,54.36899921770463,33.01344993085971,24.227716314403732
32.51911794380776,38.8785376787403,56.71977411009468,12.951916207173007,53.28558956318288,32.934188301181685,24.20491876706294
32.63033588832256,38.85609506278479,54.709263765400515,12.953594806458558,52.20714669537605,32.83733902209178,24.183235281803558
32.76411755351903,38.86585368500562,52.744497573718526,12.951740334283462,51.13656938141222,32.72309018579142,24.162629049345167
32.92092158524368,38.90797756663338,50.82938480873907,12.946204848636691,50.07668631626472,32.59163813460702,24.143067700302225
33.10107374656561,38.98242703679578,48.967526172492875,12.936858872067866,49.030257919114874,32.443188236477965,24.124520585996006
33.30473504764846,39.08893584373788,47.16220157241829,12.923593339693486,47.999962986822,32.27796791568879,24.10694719678014
33.53188341216447,39.22699834758403,45.41636405774605,12.906318826774898,46.988372244937885,32.0962570058788,24.090292239144464
33.78230880304608,39.39587436817984,43.732632040146584,12.884963909122446,45.99792385812464,31.898430547987246,24.07449491494808
34.05561055290066,39.594599689811304,42.11328195100801,12.859475944672266,45.0309131859723,31.68499867779701,24.059501509410282
34.35119107067569,39.82198705104593,40.56025501426367,12.829824748614032,44.0895006124739,31.456623225526556,24.04526677611141
34.668255054506645,40.076619902534624,39.075184986217096,12.796005565370184,43.17572548957272,31.214103862965356,24.03174479397438
35.005825766396626,40.35685542543809,37.659429182961105,12.758038816858457,42.291508463857035,30.958348271045384,24.01888276926662
35.362771374835475,40.66085227366494,36.314080436632764,12.715969905785924,41.43863929760939,30.690341703000485,24.00662656500168
35.73782056778017,40.98661705425635,35.03996562667952,12.669875130709064,40.61876285891222,30.411119327400492,23.994930830895225
36.12956025824638,41.332040595290195,33.83766190345918,12.619873122910878,39.83337949626567,30.121742330999727,23.98376065083955
36.53642894190886,41.69490919052858,32.70755214821142,12.566131600255941,39.08386208200299,29.82328151506298,23.973083792354796
36.95672146636307,42.072910038335394,31.649896425510693,12.508862133334693,38.37147800912666,29.51680833584231,23.962865034371195
37.38860636412853,42.463651127334764,30.66487546619838,12.448308281582934,37.697417297510604,29.203386862653048,23.95307001205768
37.83014223969293,42.864691516095384,29.752609068534444,12.384737692923736,37.062828424597036,28.884061590538995,23.94367120927918
38.279286658135895,43.27357482776601,28.91318117101591,12.318442551560166,36.46883392271575,28.559843154946552,23.934644490876387
38.73391234977544,43.687868128329,28.14665878990954,12.249743272700925,35.91650936911566,28.231697327748424,23.925957704755216
39.19184104987441,44.105196314567685,27.453072673509627,12.17898756326499,35.40685789072078,27.900539472841043,23.917564803631468
39.650877056365964,44.52325371178086,26.832369750289303,12.106543373318926,34.94081178472631,27.567231275537512,23.909414067843827
40.108821119045714,44.93979282814222,26.284368356535108,12.032791283138613,34.51924960459093,27.23257656901819,23.901462415886915
40.56347273165731,45.35260553482561,25.80873273654019,11.958122086306338,34.1430022612908,26.89731653057136,23.8936800699635
41.01264034363566,45.7595103725103,25.40497630608969,11.882938763744203,33.8128433963778,26.56212624843433,23.88604278713489
41.45416579006883,46.15835057184134,25.07248953788207,11.807656154487871,33.529474257774226,26.22762063377607,23.878525312225108
41.88595263748835,46.546998084925136,24.810561145780145,11.732694661410175,33.293504102585075,25.89438020622642,23.87110582759857
42.30598289791473,46.92336414344657,24.618371848184335,11.658471885086458,33.105418814253134,25.562989527921953,23.863772796609208
42.71231949406318,47.2854280018347,24.49497449196112,11.58539770992929,32.96553959966318,25.23406682490584,23.856521309927853
43.10310910413906,47.63128327144277,24.43927138170576,11.513873233196758,32.87398434838386,24.908278099405596,23.849341195988984
43.47659622787275,47.95917825095236,24.44998516153721,11.444289456617316,32.83064801502564,24.586341493009048,23.842210677379718
43.8311390993118,48.26752916350115,24.52562814150092,11.37702295844074,32.835212897020895,24.269020409007464,23.83510185410813
44.165212298786074,48.55490729029841,24.664479682437115,11.312430124889023,32.88717588879112,23.957105874103465,23.82798749091554
44.47739747132876,48.82001536470746,24.86457382679663,11.250843833900442,32.98586465389138,23.65140024743177,23.820837242999247
44.76637867944414,49.06167017530065,25.12369663596439,11.192574509754486,33.13043679179365,23.352710254839113,23.813608584946873
45.03095227589511,49.278799697374986,25.43939344597416,11.137912703836436,33.31987737701512,23.06184283978529,23.806247942779205
45.270040679812396,49.470448556333146,25.808985227437475,11.087128549726152,33.552998527411695,22.779596307597608,23.798705559187994
45.48269345303182,49.63577983863764,26.229591860886778,11.040467332037759,33.8284325901477,22.506749245082993,23.7909487076529
45.66807507415069,49.77407422221276,26.698155123471743,10.998145090630501,34.1446196574862,22.244051459062174,23.78295976914392
45.82545270226792,49.884748781927634,27.211451573926308,10.960348006893923,34.49980405932709,21.99221766411975,23.77472630640758
45.95419221516458,49.96740777998089,27.766094679764727,10.927234638050617,34.89205664281655,21.751923661722273,23.766240210967673
46.053757223698646,50.02189153491676,28.358536409960987,10.898937071648179,35.319318885784824,21.523800700674478,23.75750994829919
46.12370356990319,50.04828200341694,28.98508531441301,10.875559032520218,35.77943973812408,21.308422783466682,23.748571205583783
46.163673158594534,50.04687390585566,29.641957240919492,10.857172643070447,36.270185597466536,21.10628928658515,23.739482342495155
46.173398263919424,50.018147668288556,30.325347950127885,10.843817690091994,36.789234572587816,20.917808994413605,23.730310202599494
46.15271694836094,49.9627548211955,31.031487805875184,10.835504875087778,37.33417512377423,20.743287948663752,23.721123054947274
46.10158419269214,49.881499283623235,31.756659167891822,10.83221903611017,37.90251673965447,20.582920992162595,23.71199732621006
46.020066906265896,49.775305700379604,32.497199499444115,10.833918118155037,38.49170554890597,20.43678942677357,23.703025977770626
45.90833037321985,49.64518670049684,33.24951382503565,10.84052926228162,39.099133556877966,20.304871528660257,23.694314111240356
45.766633833564235,49.49222003087033,34.01009114566592,10.851947520133011,39.72214416205462,20.187068882293126,23.685964484362984
45.595341626976385,49.317530813161,34.77551111812135,10.868041507238003,40.35804349227047,20.083239133597193,23.678068587355767
45.39493535703189,49.12227469996369,35.54244447300264,10.888663429318786,41.00411440432379,19.993219627276076,23.67071149358542
45.16601084127593,48.90763431763665,36.30765688521314,10.91365561438272,41.657635653414786,19.91683263960863,23.66398015102336
44.909263789996004,48.67483751132678,37.068011975024035,10.94285002959304,42.315924945892434,19.853874834920642,23.657961197427493
44.62548009680304,48.425181186304314,37.8204674880069,10.976065075341388,42.97639901136863,19.804105433834877,23.652730533262478
44.31553739875215,48.16004048755632,38.56207616353553,11.01310497206265,43.636610476297804,19.767252126375123,23.648349357909478
43.98040851200315,47.880857864639545,39.290004926560904,11.053762107064548,44.29424263010616,19.743036942114912,23.644873413933833
43.62115429820827,47.589116064707575,40.00156260170451,11.097819202204432,44.94708274119199,19.731197914561836,23.64236323570697
43.238907369487826,47.28630868576352,40.694212940948944,11.145049554329706,45.59300256267065,19.7314868747481,23.64088081314977
42.834860276126044,46.97392530847493,41.3655668597197,11.195216799305253,46.22996089669968,19.74365103939285,23.64047657899488
42.41026490809453,46.653449822867714,42.01337174570976,11.248076881643069,46.8560207283603,19.767412947796103,23.64118295567737
41.966432833511355,46.32635393687073,42.635521680918444,11.303382346597395,47.46935883357801,19.802453640033992,23.64302164477511
41.50472491922327,45.99408114153478,43.23009071867183,11.360884672929984,48.06825807360721,19.8484020837519,23.6460142942445
41.02653364711268,45.658031948716925,43.79536032283546,11.420331456297971,48.65109406130662,19.904839971340085,23.650183140865703
40.53326931643479,45.31955150708021,44.329819896456016,11.481462568362376,49.21633004371646,19.97132972584046,23.655543187697226
40.02635338711407,44.97991789962268,44.83216617802765,11.544012741001447,49.762519107659514,20.04745298487796,23.66209980227999
39.50721188781835,44.640344356649535,45.301344476577235,11.607721798687974,50.28830418040771,20.13283053582823,23.6698580990263
38.97726406693501,44.30200159930913,45.73662201171373,11.672345267020125,50.79241336590599,20.227112509015708,23.67883229304532
38.43791314112001,43.96604280164303,46.137628981480816,11.737658051026438,51.27365830529417,20.3299546041404,23.689041857408167
37.890548766509276,43.633612475244234,46.50433510870984,11.80345224405199,51.730941238639986,20.440999456685,23.700499410019248
37.336558179455295,43.30583553422898,46.836999460718665,11.86953613096616,52.1632639989573,20.559872303218313,23.713206558024027
36.77733130024396,42.983799150657056,47.1361357364816,11.93573823384337,52.56973120122802,20.686187474810907,23.727163900474984
36.214251691137065,42.66855381087423,47.402489305230155,12.001912406223276,52.949553319937394,20.81955185728871,23.74238279406178
35.64868217492796,42.361140970924694,47.63700233138653,12.067937443335756,53.30205889670127,20.959558931493426,23.7588841207389
35.081961208876265,42.06261426468095,47.840763755108256,12.133709765911334,53.626718633780655,21.105782840835875,23.776686458714284
34.51541524229152,41.77402441375252,48.01496644594432,12.199133546951805,53.923178637145355,21.25777925503172,23.79579989621867
33.95037288533274,41.49637758222766,48.1608949308333,12.264114204624338,54.19128994501375,21.41508530326012,23.81623363690505
33.388163725981286,41.23059784994356,48.27993612707753,12.32855706354557,54.43111764486796,21.577211207411196,23.838005112008634
32.83010471454612,40.97752719440469,48.373577508297956,12.39236674377971,54.64292537177983,21.743630755463304,23.861135800540428
32.27749243627503,40.73797574639559,48.443374998607574,12.455442965027409,54.827141953509965,21.913784594813343,23.885637761197607
31.73160786783233,40.51278277841016,48.4909092081505,12.517674730328695,54.984322301551124,22.087099263523804,23.911507047939853
31.193718738620504,40.302834107767644,48.51775560592529,12.578939129881567,55.11511716437909,22.263007389228267,23.938731134019537
30.66506726087619,40.10903228199103,48.52547373248385,12.639108151460299,55.22025460635933,22.440952792370574,23.96729938591753
30.146853146193685,39.932251979606086,48.51559871229843,12.6980583944252,55.30052182010197,22.62038021216337,23.99720216485502
29.640228902978066,39.77330145524052,48.48962110315428,12.755675129115287,55.35674272426041,22.800720407318636,24.02841985108834
29.14630766802863,39.632894916703464,48.44896205847866,12.81184922915849,55.38976451606553,22.98137801809879,24.060916576401443
28.666167574594358,39.511636275651135,48.39495488749716,12.866472809539358,55.400462422268554,23.161725205018733,24.09464659193829
28.200842368225153,39.410013636806994,48.32883086870121,12.919438899629606,55.38974711836946,23.34110857172129,24.129562452367264
27.751306916981942,39.32840409456388,48.25170317854396,12.97064523173813,55.35855734822131,23.518877281131434,24.16561113903317
27.31847411986356,39.267080989661274,48.164551426586456,13.019997936681493,55.30784771861813,23.69442635875379,24.202721502141884
26.90320551729571,39.226210407748816,48.068216284604894,13.067411844890033,55.23858829810331,23.867240212810035,24.240798808810112
26.50631814314109,39.20584149466795,47.963409885183786,13.112809090564216,55.151770563078195,24.036923422548973,24.27973333796331
26.12857519175046,39.20591001258655,47.85073360734911,13.156120684028021,55.04840888970876,24.203206660567915,24.31941164124268
25.770671236169093,39.22625423738478,47.73068651595781,13.197293043735217,54.92953900479133,24.365925865027904,24.359717198059997
25.433225883019638,39.266620031836794,47.60366165593207,13.23629560178773,54.79621595698428,24.524989867811875,24.400522954054036
25.116781488327025,39.32664613067025,47.4699485810735,13.273123034986689,54.64951127168931,24.680351158974137,24.441687809364378
24.82179358185944,39.40585667147964,47.3297559207428,13.307790607704161,54.49050727185425,24.831984026742617,24.483061963864458
24.54861530353699,39.50370646081209,47.18324158545511,13.340328287120956,54.32028264402022,24.979874234303107,24.52449277767053
24.297489360999332,39.619679498451035,47.03053071520432,13.370779225235285,54.139890547190085,25.124022618962268,24.565821076668012
24.068557596925825,39.75336770742528,46.871720360598275,13.399200869287672,53.95034415179007,25.264451176166848,24.606870960840425
23.86188078020791,39.90447472121017,46.70688330078193,13.425663307981512,53.75261744370608,25.4011969648642,24.647447108423318
23.67744953373104,40.07277713322118,46.536075853936545,13.450244699840608,53.547646027622676,25.534294140438483,24.687346260863045
23.515178689263273,40.2580921148947,46.35934111162579,13.473027911191656,53.3363111425361,25.663754885781664,24.726371428258016
23.37489749380044,40.46025062900932,46.17670230889223,13.494099142014637,53.11941110844402,25.789558477487112,24.76433439123497
23.256353880052313,40.679060919882765,45.98815573532759,13.513545756722964,52.89763473626744,25.911650612841758,24.801048607024214
23.159237527190342,40.9142728705531,45.79367114974399,13.53145160711287,52.67154950484295,26.02994615796696,24.836326601389416
23.083204634275592,41.16556299272517,45.59319388074459,13.547890530681116,52.44161497392461,26.144326965838395,24.869988386668815
23.02788432433326,41.43253999079797,45.38664207499056,13.56292078786635,52.20821610977885,26.254634944989373,24.901871011410982
22.9928709193973,41.71475125934904,45.173905353584935,13.576583630436359,51.97169094311567,26.36066793009956,24.931826940747754
22.977720428922368,42.011675484625314,44.954859841453775,13.588905555995629,51.732338661577074,26.462184201436926,24.959714019737966
22.981952615145705,42.32270981285998,44.72940118261209,13.599899756843717,51.49042177359779,26.558912279757134,24.98539120297823
23.00504597826569,42.647165915842095,44.49747145718906,13.609563923530457,51.246172765351076,26.650556237070198,25.008726787549875
23.04642413094221,42.98426863096601,44.2590592082385,13.6178768918238,50.999797156465355,26.736792831535542,25.02960844137913
23.105445614734972,43.33314372075568,44.01418059265132,13.624799437366585,50.75146695387912,26.81727330538528,25.04794137306046
23.18140599840252,43.69280036408771,43.762860196219826,13.630282252989206,50.50131048131872,26.891657288732272,25.06363792784291
23.273547881924557,44.06212701892871,43.50512193188129,13.63427762723631,50.249407600800474,26.95968745475473,25.07661526065028
23.381067505350288,44.43990778575656,43.240991989850286,13.636746760467734,49.99579339783963,27.021264059393754,25.086808439095716
23.503115429242097,44.82484386367072,42.97050548039149,13.637658915833994,49.74046496734753,27.076472938381453,25.094185328874676
23.63880042622739,45.215560513052104,42.69370743748263,13.636987299991048,49.48338415533378,27.125569804176457,25.09874639096314
23.787199921417365,45.61059882401651,42.410659751110686,13.634708844022157,49.224475640711354,27.16895157164394,25.100511459873772
23.947366585198605,46.0084048649445,42.121478778878405,13.630808928348142,48.96362779232009,27.20713855868297,25.099510463135275
24.118323741956708,46.40732558940986,41.82639630111556,13.625285988810909,48.70070137118384,27.240773033112795,25.095787258436015
24.29905735147277,46.805615117415634,41.52579700785679,13.618151733833216,48.43553761392548,27.27061472216693,25.08940569915954
24.488518815223685,47.20145022741502,41.22020890601959,13.609427491637767,48.16795568132655,27.29751495093513,25.08044344617728
24.685644491644723,47.592948787771945,40.91027627982206,13.5991408387453,47.897744081704026,27.322379491801005,25.068976552908754
24.88938151199587,47.97818878253214,40.59674446185776,13.587327248770318,47.62465725877266,27.346136850092513,25.055070469999155
25.098702870459054,48.35523221436606,40.28044760682349,13.5740368812945,47.34842246190267,27.369710953080393,25.038784988342854
25.312608222236225,48.722149552581,39.96228262700527,13.55934028182794,47.06875682230455,27.39399139541495,25.020182757892304
25.530124383174225,49.07703181731173,39.64317301139945,13.543327245819915,46.78538976796676,27.419804393886988,24.999327980130563
25.750316412486743,49.41798850355193,39.324036072773815,13.526100236052391,46.49808045825596,27.44789421876775,24.976277644898747
25.972299547517213,49.74314245416152,39.005759641605714,13.507768870465421,46.206626082748805,27.47891884575941,24.951079029735975
26.195237794643823,50.050630267470225,38.68918431269513,13.48844902528851,45.910865908080844,27.513451536929807,24.923779267256084
26.418335969119163,50.33860797289589,38.37508825832337,13.468262731798328,45.61068079803135,27.551977554283283,24.894436195816112
26.640843709642226,50.605259219999745,38.06418310587771,13.447334245016005,45.30598535684126,27.594884193656267,24.863117597410998
26.862071610366677,50.848814370044416,37.75712978582492,13.425784676646334,44.996719443196994,27.64244875098729,24.82989190845725
27.081399588584837,51.06760254344209,37.45456283390559,13.403730153714035,44.68284661051734,27.69482864596548,24.794824995336338
27.298268701624348,51.26013487761932,37.15709976686032,13.38128261772575,44.364356446831174,27.752059293092117,24.75798938188862
27.512171744621455,51.42517035084727,36.86532848747112,13.358548433486304,44.0412639394802,27.814069156130763,24.7194756118429
27.722656794292728,51.56172579362083,36.57978551848259,13.33562334306191,43.713605045071944,27.880714219332145,24.679392944747782
27.92933552882029,51.66904888630808,36.30094368664722,13.312587514113835,43.38143625925428,27.951815446698642,24.637860499101556
28.13187981517017,51.74659466893577,36.029224296472336,13.289505505686313,43.04484650351274,28.02717774454657,24.595001707786718
28.330005622339947,51.79402193975807,35.76502815231643,13.266431209273104,42.70397475039933,28.10658579672476,24.55095063474551
28.523457677507334,51.81119439168805,35.50875636068442,13.243412574459287,42.359016795845335,28.18978789927104,24.505861884238907
28.712004868523323,51.798168073142854,35.26080588095603,13.220492559086077,42.01021648790329,28.276479953199892,24.4599091584604
28.895442455804055,51.75517611464041,35.02155725288706,13.197708203124858,41.657851812759944,28.36629495318652,24.413271978818372
29.073588822448897,51.68263297020772,34.79136928400763,13.175091982514605,41.302228085947235,28.458796829799088,24.366125155529634
29.246275241890217,51.58114889532035,34.57057152850332,13.152677167728188,40.94368000037978,28.553475614699533,24.3186404324446
29.413342040297987,51.45152400852458,34.35944617856935,13.130503508505821,40.58257175165207,28.649747260375754,24.270992078367552
29.57464613821116,51.294713802648495,34.158210203007506,13.108617523861698,40.2192882370926,28.746972661667918,24.2233536777586
29.730066365593057,51.1117832938687,33.96701200561731,13.087066615599678,39.85422396409581,28.84450251097733,24.175887250241995
29.87949548177181,50.90386882232791,33.78594045993251,13.065891493170403,39.48777689472798,28.94172364938058,24.12873808728599
30.02282595172205,50.6721654906612,33.61503446022813,13.045121558569639,39.12034722143731,29.03807641825066,24.082043156215192
30.159944158336767,50.41794810228837,33.454294525757604,13.024774560602793,38.75233827460759,29.133048810657897,24.035943117630115
30.29073649246702,50.14260295972655,33.303707813550844,13.004858397811175,38.384154801715574,29.226181946783935,23.99058298817517
30.415095291389054,49.84763624748422,33.16327915979281,12.985372351756219,38.01619573031392,29.31710129789638,23.946102431519453
30.532913587928775,49.53464957410549,33.033044795766465,12.966307707195678,37.64884660971686,29.405545677753917,23.902630888315805
30.644073270195072,49.205297117123024,32.9130599935427,12.947650441074678,37.28247774420097,29.491364405860093,23.8602963563192
30.74844055324103,48.861241271250535,32.80337307297841,12.929386504469147,36.9174442975093,29.574488841249654,23.819237566038755
30.84587470133208,48.50411647021823,32.70400295719967,12.911504794320056,36.554080831649024,29.65489994216979,23.779603935966634
30.936240116707236,48.13550598834447,32.61492763202878,12.893993581814959,36.19269235745265,29.732603132519138,23.741543507119236
31.01940837695431,47.75693340541251,32.53607728407029,12.876833561796424,35.833553139593455,29.807610913687945,23.70519359632931
31.095250143096568,47.369861733980805,32.46732330898463,12.859994775942187,35.476916607884085,29.87992777479144,23.670683585686316
31.163630871423337,46.975687187564986,32.408463535613016,12.843440419617979,35.123024011720496,29.949533744400394,23.63814120529339
31.224422446349024,46.57572681409974,32.359216622484766,12.82713268717272,34.772101201638925,30.016372305306714,23.607688420006596
31.277523268216093,46.17121640565744,32.31924605730547,12.811033816668637,34.42434822191139,30.08035553241559,23.579428365735183
31.322866723151023,45.76332553349986,32.28821254717217,12.79510171132893,34.07993312234448,30.14139027032158,23.553438090310312
31.360414035210017,45.35317047684282,32.26581669777971,12.77928568758914,33.73899557594802,30.199407889975735,23.529774847511938
31.390148555955747,44.94180748307946,32.25180223572023,12.763528099242794,33.40165520725733,30.25437624030316,23.508485775336524
31.412081327572842,44.53021445375393,32.24593518687865,12.747771549265659,33.06801631981849,30.30629126909788,23.489607446479713
31.426256381429518,44.11927858520464,32.247993428289085,12.731964442741875,32.73816906789574,30.355159891360916,23.473157171107243
31.43274378329093,43.70979537984735,32.25777882233308,12.716059397422883,32.41219299205415,30.40098345939261,23.45912911392394
31.431625622357004,43.302471336713225,32.275137247408374,12.700007476480273,32.09016526653097,30.443742979667178,23.44750106543301
31.42298853048374,42.89792154290183,32.299981276092026,12.683755346048034,31.772169389685715,30.48338550813078,23.438242358220904
31.406927888353053,42.49666281551392,32.33232399772828,12.667249073597217,31.458298515535407,30.519819104917133,23.431311621117217
31.383554446963394,42.099112760191076,32.372306179223905,12.650440843580377,31.148656498778855,30.552927095523472,23.426647647163524
31.352991822386155,41.70560499729057,32.42018783843147,12.633291566731154,30.843364883906176,30.582596374607224,23.42416687565098
31.315367116401028,41.316415351124206,32.47630793654839,12.61576845960529,30.542573506029882,30.608737036397187,23.423773380938343
31.27080813911093,40.931779643123576,32.54104005756033,12.597843971713397,30.246465007612276,30.631280072604927,23.42537105268296
31.21945256451431,40.55189486913162,32.614772348547,12.57950069927672,29.955249116985925,30.650161934862695,23.428864489764887
31.16145676681287,40.17691616595713,32.6979181339704,12.560738513280535,29.66914876751997,30.66531070299983,23.43415012907039
31.09699257546108,39.80696004159916,32.79092722288457,12.54157657949509,29.38838478838977,30.676640326116388,23.441112164895166
31.0262381362497,39.44210809072192,32.894267733976356,12.522048580278538,29.113168762257725,30.68404995441075,23.449631535970955
30.949376704976988,39.08240335619667,33.00838969117716,12.502196518137154,28.84370795044976,30.687421913139488,23.459598382882056
30.866606122567248,38.72784525894029,33.13370633320483,12.482069147241779,28.58021428238387,30.68661903908986,23.470913436269104
30.778147882463703,38.37839757055317,33.27060443901934,12.461724335458412,28.32290659933606,30.68149578668117,23.48347871492619
30.684245113718852,38.03401152271147,33.41945419140621,12.44122875888925,28.072007600925655,30.671933786025328,23.497192527790823
30.585153149685837,37.69464624514768,33.580593440488016,12.420652029295658,27.827743406452157,30.657882612951564,23.511958235874207
30.4811370535743,37.36027202617607,33.75429800521258,12.400060032903554,27.590343072786712,30.63937436508513,23.527696366990064
30.372481748993703,37.03086205331038,33.94076187266144,12.379513431622023,27.360030216808422,30.616508795596207,23.5443440729652
30.259501124221703,36.70638450557948,34.14010092682351,12.35907121898945,27.13700914908413,30.58942950149505,23.561842898334483
30.14253147555108,36.386799544728014,34.35237290370567,12.338793598820681,26.921455447593218,30.55830455976499,23.580130492420476
30.021914419119963,36.072058199504085,34.57758564660092,12.318740465585876,26.71351480921882,30.523313006825386,23.599145439594107
29.897986793402055,35.76209673318005,34.815680417120376,12.298967403586412,26.513303419164277,30.484642133358207,23.618836211272928
29.77108483281304,35.45682839014326,35.06650713024493,12.279522848793999,26.32090267173218,30.442501894066446,23.639160317691136
29.641550561177958,35.15614806551574,35.329807485957595,12.26044869242019,26.136352113003316,30.397145276017245,23.660074116082424
29.509726192919278,34.85995706486592,35.60520443127062,12.241783281137678,25.959653008199176,30.348874292001742,23.681526549905268
29.375939513588538,34.56818850906834,35.892191299558355,12.223562395894575,25.790785692704958,30.29802811490423,23.703464339170555
29.240494483298935,34.28081219804443,36.19012171862208,12.205816534526791,25.629725016967427,30.24496505502956,23.72583965844521
29.10367264766798,33.99782298730083,36.498212685427774,12.188568209073102,25.476439476154184,30.190048059667692,23.748608062720407
28.965735912737916,33.719228881723744,36.815569605988195,12.171832153594055,25.33087866838657,30.13363657774562,23.771718626480904
28.826923086290122,33.445044779201254,37.14121840621817,12.155616828160698,25.19296229983251,30.0760863263009,23.795108878691316
28.687447636871287,33.17528605347206,37.474121709302096,12.13992398220532,25.06257907230145,30.0177598289496,23.818710931020394
28.54750584464429,32.90996130494196,37.81318440088559,12.124745025337832,24.93959328217386,29.959042417421287,23.84246027682527
28.407291400533815,32.64907945368577,38.15727598462555,12.110056494467349,24.8238480105532,29.900351261253498,23.866295105748705
28.26700525324882,32.39268166455221,38.50527213800791,12.095819078332205,24.71515913807412,29.842137949217353,23.89014721465855
28.126854752000646,32.1408811401799,38.85608280199549,12.081981747007772,24.613308645143956,29.784893146226423,23.9139380101149
27.987048113687173,31.893883215631714,39.20865010501076,12.068486468668194,24.518048860208797,29.729147108774654,23.937588226281218
27.847797615147655,31.651976582944247,39.561943236615775,12.05526832299619,24.42911668564678,29.67545659233072,23.961031490080963
27.709333486482368,31.415509396432167,39.91497638176834,12.042252002052376,24.346244227736598,29.62438624895101,23.984215069980333
27.57191244950869,31.18487476889886,40.26683363692878,12.029351260923177,24.26915900385968,29.576500310281343,24.00708865185538
27.4358091040543,30.96051616450865,40.61667044417617,12.016476079253463,24.197586209152774,29.532367793811105,24.02959829947
27.301299530935477,30.742934366656456,40.96369146659036,12.003543151191769,24.131264812248283,29.492566571058155,24.05169342289751
27.168655336114153,30.532674806167087,41.30713114089979,11.99048037146747,24.06996570307445,29.457674484841206,24.073334760511976
27.038152133138674,30.330300365825956,41.64625152162725,11.977222948544648,24.013493562858628,29.428260721102536,24.09449139427458
26.910077184104143,30.136372127419282,41.980343181932774,11.963708028783874,23.96167416616547,29.40489389954448,24.115132110844712
26.78472278973005,29.95144774472221,42.30871289759545,11.94987578238914,23.91434205012661,29.388154292085222,24.13522516416888
26.66237099172508,29.776081749079328,42.63066741820046,11.935677365829811,23.87133614338309,29.37862843774546,24.154750178182017
26.543285263572578,29.610812104497853,42.94551318706813,11.921081980546706,23.832497636921595,29.376893105499406,24.1737091726243
26.427714691898935,29.45613983216078,43.252570876724164,11.906076551786809,23.79766146842171,29.383513705431124,24.19212352155969
26.315898532375417,29.31251364426275,43.55118282469947,11.890659778368054,23.766642083856524,29.399058558475957,24.210021496056
26.208059888720346,29.18031870254369,43.8407011557982,11.874836826772485,23.739221717332704,29.424101993211096,24.227433091978753
26.10439591369082,29.059865607506637,44.120469588402486,11.858618429232342,23.71514842417443,29.45920510192144,24.244398877670157
26.005078628978264,28.951381730088418,44.38982265825168,11.8420220966617,23.694145132152414,29.504900791325497,24.260979010721687
25.910266306577885,28.855006309106287,44.6481095027681,11.825070831916113,23.675922279281338,29.561705207650387,24.27724745381057
25.820111221916992,28.770792717586943,44.89471968435035,11.807789007800228,23.66018315915289,29.630134898705947,24.293277176814527
25.734753881353978,28.69873231992019,45.12908773626911,11.790199387207133,23.646621749299836,29.710698539792304,24.30913396857349
25.654311192413868,28.63880274652818,45.35068363269396,11.772324107570705,23.634925293864182,29.80386464655617,24.32488456394718
25.578874809328006,28.591014924022232,45.559010480921415,11.754187664266913,23.624786828567117,29.910029779916087,24.340606015472893
25.508522567979792,28.555439377809922,45.753612069501436,11.735817678266926,23.61591720656297,30.02951173442148,24.356383174618905
25.443327004189474,28.532213845646385,45.93407355710961,11.717242348693452,23.608048776804598,30.16257371952817,24.372298939725127
25.383348885475666,28.5215313504937,46.100008686917654,11.698487951394833,23.600934336379495,30.309452453874112,24.38843230994685
25.328623373932825,28.523608267378425,46.251056399763975,11.679580616822225,23.5943471045959,30.47035985443982,24.404868799253194
25.279153035496442,28.538645799691345,46.386917658043664,11.660551837307098,23.588084901043512,30.64546383199887,24.421709774014605
25.23491024836322,28.5668012529611,46.50742247535341,11.641442038390435,23.58197630585907,30.834870008500545,24.439067322544116
25.19583874210434,28.60817543319747,46.61257234692662,11.622298975334788,23.575881396627725,31.038607142316064,24.45704996576943
25.161846174640345,28.662809824564793,46.702526878603976,11.603173820429612,23.56968328061304,31.25660725478981,24.475755767820683
25.132794037087134,28.73068197216895,46.777562004881325,11.584119626054067,23.56327360219043,31.488681892943728,24.495278924315016
25.108500907441872,28.81169359085629,46.838038401084944,11.565193644249197,23.556542729974698,31.734507033938748,24.515718025714882
25.088764845137568,28.90565641572668,46.88438707781267,11.546459766406052,23.549393569850828,31.993625349018256,24.537173483175213
25.073387763956436,29.0122845493658,46.9170950962895,11.527986405005095,23.54178508754919,32.265458419837124,24.5597375037836
25.062181761155593,29.131193307967507,46.93668114794004,11.509840686191053,23.533785149352656,32.54931279573388,24.58349008125609
25.05495965440338,29.261896607179857,46.94367422063258,11.49208433674989,23.525615808596424,32.844380930274674,24.608505931517104
25.051527423820634,29.403801299430636,46.93861436324163,11.474775091156678,23.51769264162377,33.1497606774217,24.634860491079774
25.051687560959728,29.55620508286196,46.92206981836296,11.45797203760942,23.51065354163711,33.46450054280857,24.662622586211647
25.055243823209025,29.718301702874367,46.89464265886571,11.441738934140913,23.5053621394551,33.78763774802843,24.691839068399695
25.06199609128558,29.88919296655446,46.8569508120485,11.426141604408992,23.50288542704331,34.11820069256614,24.722527674784843
25.071729961292185,30.067909888335677,46.80960315062942,11.411242573983559,23.504461960228753,34.455188727401215,24.754683797359707
25.084214972997195,30.253442507962347,46.75318317336662,11.397099236373176,23.511467299420005,34.79755631835044,24.78828808239553
25.099215356320727,30.444765503045137,46.68823729456811,11.383767235681047,23.525369888460077,35.14421240301467,24.823301594072962
25.116500526715395,30.640848054506062,46.61526036524281,11.37130452480236,23.547680701946263,35.49402778703779,24.85965364764548
25.135843414008914,30.84065276159602,46.53468587236067,11.359771429445326,23.579912266177637,35.84583701206845,24.89723826447001
25.15701201079279,31.04313570585364,46.44689710615492,11.34922771632336,23.62355248966763,36.19843401042742,24.93592494252848
25.17976854727149,31.247262930368837,46.352257445920216,11.339731868306226,23.680040312769677,36.55057924224965,24.975571066238118
25.20388060361109,31.452057776383494,46.251131485498334,11.331344607421547,23.750732301286714,36.90102712765053,25.01602245639274
25.229131750208897,31.656665346405497,46.14387731329224,11.324131618704692,23.836866942223544,37.24855377185283,25.05710601124307
25.25531915001806,31.86039245853812,46.03082175240998,11.318160420470138,23.93953765552397,37.591963347645056,25.098628912399892
25.282241911768356,32.06270128480817,45.91224057632115,11.313493997389628,24.059675672974468,37.93007778395857,25.140389186854755
25.309692669039055,32.263175852718504,45.78835564371164,11.310187592542404,24.198037886615023,38.26172983732157,25.182185348527053
25.337457508741675,32.461494771395806,45.65934648802874,11.308290711623625,24.35519492435606,38.58577384547484,25.223812942574607
25.36531772316832,32.657427710050925,45.52536365695309,11.3078502342633,24.531521825515764,38.90111183011208,25.26505318446016
25.393045319433195,32.85084297584378,45.38653704331431,11.30890977069093,24.727208245846548,39.20672001517418,25.305669049033686
25.420394890476597,33.04170090166429,45.242984601307754,11.311506102110895,24.942299077530848,39.501664482703156,25.345414443056207
25.44710365717186,33.23003161508708,45.094823667574715,11.315668723917202,25.176742649682243,39.78510505952501,25.384044436045983
25.472905381470355,33.41591527402655,44.94217486439772,11.321425859163952,25.430414833032636,40.056291095611954,25.421313864711074
25.497547242525748,33.59946759267875,44.78515134841983,11.328812122817606,25.7031194625919,40.314557412263184,25.456970006719338
25.520794882720274,33.780818535460874,44.62384320564608,11.337870482054438,25.99458668889875,40.55932676718347,25.490755726168203
25.5424258052962,33.96008268975202,44.458313216295494,11.348647483958715,26.30447610804663,40.790110628838754,25.522426943983426
25.562223805177332,34.13733571484471,44.28860633632498,11.361186181035796,26.632373257003053,41.00650064180999,25.551768486719997
25.57998206172135,34.3126127284769,44.11475885367468,11.375521502126983,26.977774754838148,41.20815638040374,25.578593688190075
25.595508642477906,34.48592602245767,43.93679602789484,11.391680144590667,27.340070645649703,41.39479092352428,25.602733696570002
25.608624936358,34.657281339982234,43.754723502849316,11.409681863559564,27.718529917772912,41.56615081877955,25.6240334513151
25.61915888208076,34.82668552070737,43.56852505201846,11.429537281899501,28.11228849064281,41.721995878267904,25.64236034172705
25.626945172038415,34.99415643694436,43.378170297575274,11.451243044360293,28.520339201928564,41.86208543775021,25.657613837200206
25.631837236265614,35.15973379577652,43.18362287043679,11.474779508009453,28.94152542582742,41.98616975794509,25.669723526982747
25.63371737696602,35.323478247481255,42.9848404038532,11.50011232101333,29.374542579621952,42.093985406988445,25.678638927749763
25.632491381804723,35.48545512437261,42.781774371760484,11.527193508221135,29.817951261260532,42.18525712926324,25.68432492093347
25.62807325685751,35.6457086330844,42.57438497336276,11.55595863200102,30.2701963277641,42.25970528396095,25.686768890750347
25.620375298529247,35.80423822132646,42.36266734445689,11.58632190462625,30.72962024681506,42.31705474858978,25.685988461879838
25.60931042443234,35.96098816112236,42.14666633643022,11.618173533507443,31.194467926911845,42.35704190146178,25.682026427048203
25.594799734609424,36.11584884817156,41.926471765434414,11.651382350415428,31.66288996775166,42.379416946933425,25.67493691025099
25.576773374411335,36.268658367304944,41.70221521840092,11.685802462767171,32.1329497551837,42.38394470998401,25.66477909717293
25.555164288065757,36.41919863088189,41.474086272211814,11.721277810412921,32.60263496550218,42.37041324429846,25.651625097445645
25.529908602501884,36.56718994055169,41.24235349803731,11.757640888325097,33.06987452881435,42.33865014779556,25.635569572052827
25.500960348662304,36.71228918188852,41.007364396812164,11.794709187462562,33.53256450101661,42.28853388892084,25.616727201741607
25.468307315045756,36.854097330701364,40.7695233059291,11.832285005195954,33.988601817848846,42.219996490192095,25.595221337273873
25.43197207581346,36.99218194838815,40.52926802675429,11.870160199416881,34.43591571176613,42.133027324861324,25.571178368137506
25.392001542677193,37.126107635979885,40.28705809194187,11.90812247522138,34.87248656558014,42.02767973503678,25.54473375452428
25.348460171874528,37.25545432242003,40.043367286744086,11.945958626978928,35.29635597365307,41.9040723305847,25.516039197653537
25.301433971055683,37.37981623264815,39.79867040338968,11.983453623931945,35.70564327894968,41.76238261338725,25.48525881216593
25.251037266411178,37.49879458895898,39.5534303804343,12.020388768627274,36.09857495216442,41.60283602040395,25.452557592355195
25.197410332932634,37.611991841526894,39.30810046305791,12.056543341753907,36.473515904822705,41.42569340877726,25.41809705518067
25.140707414184263,37.7190030773211,39.06314371449162,12.09170002207003,36.82898848259298,41.23124179107116,25.38204493650624
25.081087111829135,37.819404231410886,38.81905263165196,12.125649505908406,37.16367501206106,41.019791788097734,25.344586692534843
25.01871745938062,37.912744986193445,38.57634921753991,12.15819141385123,37.476417874557164,40.7916778773098,25.305923623102203
24.953792193685793,37.998558672153884,38.335566476534936,12.189134316728722,37.76624032161703,40.547255748233965,25.2662602223111
24.886539458255452,38.0763959223759,38.097228717204665,12.218299778903361,38.03238586249405,40.28690083857488,25.225796083460132
24.81721330006432,38.14586519803073,37.861839613947716,12.2455304130855,38.274342801832375,40.011017443924246,25.184729648787528
24.74608071479463,38.20665202664681,37.62987113047846,12.270695769510102,38.49183257089349,39.72005787743894,25.143263700210905
24.673421915312314,38.25851355458652,37.401748487237256,12.293691997875975,38.68477363984771,39.41454252008435,25.101599977869647
24.599542577117177,38.301264902085705,37.17784154152984,12.31443776391296,38.853244095826355,39.095073786643646,25.05992569379288
24.524779218566884,38.33476349331698,36.958473914040425,12.332870953233451,38.997461105965336,38.76234043648786,25.018406135132317
24.44948868296062,38.358888872174866,36.74394023924948,12.348949985002577,39.11778047499426,38.4171134054988,24.977190507536672
24.374034814891388,38.37352311350826,36.53450985394754,12.36265979135723,39.214697705250764,38.06023968631615,24.936420773713795
24.29878592117674,38.37854250643457,36.330413951603504,12.374016055196453,39.28883575932847,37.69263786178502,24.896229244242743
24.22411807894672,38.37382226057994,36.13183777582402,12.383062368137297,39.340928403288565,37.315291437655596,24.85672649734656
24.15041121985885,38.359242024992504,35.938937270175295,12.389864338197226,39.37180795659984,36.92923511416342,24.8179946370336
24.078037338758925,38.33468182940352,35.7518710727002,12.39450859737836,39.382391587864355,36.535537208023825,24.780093989077102
24.007353036859065,38.30001354556219,35.57082021211942,12.39710715307472,39.373663035169145,36.13528742844005,24.743073489277485
23.93870331553246,38.25510132207263,35.39598965948748,12.397799764028004,39.346655423864554,35.729592560013124,24.70697159110562
23.872428117070434,38.19981585322405,35.22761192094026,12.39674988887391,39.30244088971144,35.31957252234834,24.67180902426691
23.80885879714527,38.13404994117653,35.06595732628014,12.394137596312394,39.24213195666747,34.90635079326895,24.637585744440493
23.748305085016664,38.05772020482037,34.91133167043258,12.39015470040145,39.16689145326399,34.491045904026,24.604288147376295
23.69104738272466,37.970758657805916,34.764053503552205,12.385002320423975,39.077933017103504,34.074777318999736,24.571897234976063
23.637344404578517,37.873111730761615,34.624429671794935,12.378886655715633,38.97650284953942,33.65868411446605,24.54038645452344
23.587446438883592,37.76475268893963,34.492753278986896,12.372011201190475,38.86385670577451,33.2439358261913,24.509712918830925
23.541597524310053,37.64569255578232,34.36932498290337,12.364568765619282,38.74124404879054,32.83172254859352,24.47981544852776
23.500026910123832,37.51597618799187,34.25447018139296,12.356737672883659,38.60989288329343,32.42323402412277,24.450624599770926
23.462945327569454,37.37567033485747,34.148531236377735,12.348682672063003,38.47098700642299,32.01964076337178,24.422074317336357
23.430551216774436,37.22485780543482,34.05184538258089,12.340555892297951,38.32563924644729,31.622077400531325,24.39410292756228
23.403033868098046,37.06363996072569,33.96472852531419,12.332493629210292,38.17487088110179,31.231623422786633,24.36664581812992
23.38056329530223,36.89213862960538,33.88746846940447,12.324610611979516,38.01960451883672,30.84928130230073,24.339633381991565
23.363274482719383,36.71049086920213,33.8203163681687,12.316996262296199,37.8606692517104,30.47595754168915,24.313000610179692
23.35126183659201,36.518839591147945,33.76346891173431,12.309715918762382,37.69880916924239,30.1124550264198,24.286697893498367
23.344587648874274,36.31732896477838,33.717049956533096,12.302816385472225,37.5346872182461,29.759480498666566,24.26068974297232
23.343290637829103,36.106108674350914,33.68110739163377,12.296331273072639,37.368886477432085,29.4176582125745,24.23494406682253
23.347383319543237,35.88533895898243,33.65562554645696,12.290282297492533,37.20191640252477,29.08753775048368,24.20942814319314
23.356844938882936,35.65518685154719,33.64053347258317,12.284677404110267,37.034222669687146,28.769599283270143,24.184119739886192
23.371622442028286,35.41581610951021,33.63569717945085,12.279509192304042,36.86619225113308,28.464266845999802,24.159020907993018
23.39164019254702,35.167380846779444,33.640910624019945,12.274755119572411,36.698154422488315,28.17192456352292,24.1341575753266
23.41680624966875,34.91002975619793,33.65590446892701,12.270377412477934,36.53038552010959,27.89292052528912,24.109566584543547
23.44700640772364,34.64391931066945,33.68036654876002,12.266321134552822,36.36311590741865,27.627555112235914,24.08528624019076
23.48209284865463,34.36922578828586,33.71395127320573,12.262512701508689,36.19652972695441,27.37606391416734,24.061358953793707
23.521881365840596,34.0861489248524,33.75627067503241,12.258862195719855,36.0307566483893,27.138605930940475,24.037836804025247
23.566160007903985,33.794914324363376,33.80688369198632,12.255269302503697,35.865865545227756,26.915264215153268,24.01477731671919
23.614696094605833,33.49578303551795,33.86530051369805,12.251628185675271,35.70186682656993,26.7060609200298,23.99223106119931
23.667232604716794,33.18906350948041,33.93099704707133,12.24782736026712,35.538721177092846,26.510979282973697,23.970234031303715
23.723484247645548,32.87512305822093,34.003423221740135,12.243746444135963,35.37634963550717,26.329981293811283,23.948811661585058
23.783145027944567,32.55440552322992,34.08201063233542,12.239255038558827,35.21463962290684,26.16301449768658,23.927985914505875
23.845900483333903,32.22745643343588,34.16620308913868,12.234216361054242,35.053443404207265,26.010006567081184,23.907773785685965
23.91143027276686,31.8949484068514,34.25550423108012,12.228492673870786,34.89257342612291,25.870852305992408,23.888178973210998
23.979399884548222,31.557695431233853,34.349503232936826,12.221947621197591,34.73180363446871,25.74540218713362,23.869189637371047
24.049453524741754,31.216646252165106,34.44786084253475,12.214444788840485,34.570878812608825,25.633467684711484,23.850788496054072
24.121219367952865,30.87286091285717,34.55027811788413,12.205846597847536,34.40952370892685,25.53486881063256,23.83296374203322
24.19432456277492,30.52748625145858,34.65647526137923,12.196017558985773,34.24744536606938,25.44952103209878,23.81570648781515
24.26840481429417,30.18173909945505,34.76618488314428,12.184830354674801,34.08433787893267,25.377504996203303,23.798997936839616
24.34309922374656,29.83689011656933,34.879144975223994,12.172168837556915,33.91990721166645,25.319082055377635,23.78280167805641
24.418037398724316,29.49423938822089,34.99508081797623,12.1579256106615,33.753913692767256,25.274683598859276,23.767068712259377
24.49283147861855,29.155091605399164,35.11368321439647,12.141997933017054,33.586205650706695,25.24491457222566,23.75174710823871
24.567077088903527,28.820751722426106,35.23459973585923,12.124286393770836,33.41672793275205,25.230590333416192,23.736784575887
24.640355781675222,28.492544377737115,35.35744397843799,12.104697224902617,33.24551643621988,25.23279122936976,23.72212386217314
24.71223204878653,28.171828312903365,35.481806545055676,12.083145510517237,33.07269516147584,25.252885622275365,23.7077019905426
24.782250195533923,27.859982254807644,35.60725131058147,12.059555817128347,32.8984773023936,25.292498203544284,23.69346023782313
24.84994175765468,27.55837457861655,35.73330453096677,12.033859619897344,32.72316178869891,25.353449151580055,23.679356193650978
24.914843183559356,27.268339309657076,35.85945691390996,12.005993000130797,32.54712079278522,25.437691798510144,23.66536496887666
24.976510222003174,26.991160543959236,35.98518062152213,11.975898529988868,32.3707797208865,25.547260913998226,23.6514708324491
25.03451894101942,26.728053994185323,36.10994073607945,11.943529860239085,32.194592708823876,25.684233497511794,23.637662683099805
25.088459066817634,26.48014112203284,36.233188499468106,11.908853685470149,32.0190187655054,25.850686655248317,23.623940576569563
25.137933498117206,26.24842301134685,36.354347152041804,11.871848169239101,31.84450480544749,26.048639127510828,23.61032410573297
25.182568964849814,26.03376554218898,36.47280734080203,11.832503506463896,31.671477038918912,26.279995099127056,23.596849937976543
25.222026784654872,25.83690105601947,36.58793928183834,11.790829757052538,31.500336363636503,26.546523250521997,23.5835605287335
25.256001575652753,25.65843962512367,36.69911369080628,11.746868961281287,31.33145562566347,26.849873242704582,23.570498281347287
25.28421163455242,25.498878170309556,36.80571490372389,11.700702508957677,31.165179550987304,27.191608538416432,23.557712510005032
25.306395264832215,25.358600438825405,36.9071421255243,11.652448772249365,31.00182267648025,27.573266974334608,23.54526872874499
25.32231919344615,25.237870295250207,37.002809508757394,11.602254280254895,30.84166042557273,27.996463916997783,23.533246521558954
25.331788562884007,25.136828174435752,37.09214867373325,11.550285295696854,30.684920194277403,28.462971667905357,23.521728384398255
25.334646224784347,25.05549476057332,37.1746065549907,11.49672376888397,30.53178482811989,28.974697910236824,23.51079398103832
25.33076612883404,24.993774116956402,37.249640027795074,11.441765423728079,30.382407268439692,29.533597587337766,23.500526498298385
25.320056740851275,24.951449527546227,37.31672778230769,11.385615805892735,30.236919455176725,30.14160536280385,23.491020630782025
25.30247742553994,24.928176167030376,37.37541825605352,11.328484179230061,30.09542624637576,30.800622531578593,23.48237887627342
25.278050581229955,24.923478631478666,37.42539307744842,11.270578200427844,29.957995634791263,31.512537680796235,23.474698345909452
25.24685635389463,24.936754526617495,37.46649749918564,11.212101619085516,29.824660771067766,32.2792329878167,23.468062795675454
25.209019800476035,24.967278757578985,37.49872436352747,11.153254213378025,29.69543337771479,33.10254675698861,23.46254746374122
25.164708989607938,25.01420522080442,37.522186672262215,11.094230569758635,29.57031310758491,33.98423115918933,23.458226696174076
25.11414580038645,25.07657137706227,37.537106123291125,11.03521645029881,29.449283419102944,34.9259678249539,23.455171391261988
25.057612476618928,25.153318380110537,37.54380623244341,10.976385830441739,29.332301682199166,35.92946171101264,23.453438182002976
24.99544274968184,25.243328142535844,37.54269120028215,10.917901790864306,29.219295339501727,36.99657464902913,23.453063182720573
24.928006146529402,25.345455249972296,37.53421532260359,10.859920407487333,29.110165953488465,38.12940382092753,23.45406703679142
24.85569914893676,25.458534811962053,37.518860731971046,10.802593499367003,29.004793149336678,39.33024281387174,23.456463155129484
24.778944360319162,25.581374388574158,37.49712906035071,10.746067415075228,28.90303179678704,40.601469785228986,23.460257453504802
24.698187110184886,25.712752632450165,37.46953496502432,10.69047982553753,28.80470673474024,41.94545045162186,23.46544021751881
24.613882408901485,25.851445437886735,37.436590839406556,10.635959417096656,28.709614556853474,43.36452203625294,23.47198199334912
24.52647856757091,25.99627925461837,37.398792035800376,10.582630260785253,28.617532923747078,44.86104681258276,23.479841250807738
24.436410563767474,26.146179877846087,37.35662104494152,10.530616533492898,28.528227350727427,46.437438172025466,23.488975708558907
24.34410743260694,26.30018898624642,37.31056720047078,10.480042697353571,28.441448391037763,48.096132979334236,23.499343587508324
24.250002026078793,26.457452482666383,37.261134850124414,10.431029286131075,28.35692430677835,49.83957574391305,23.510894863991084
24.154529649657512,26.61720341263782,37.2088270452611,10.38368775237386,28.274361458363053,51.670198723717625,23.523565764473076
24.058117356235787,26.77877074483567,37.154122522976195,10.33811708134871,28.1934567049739,53.5903312341565,23.537284277562787
23.961177711012375,26.941625389971545,37.09746861689916,10.294402186773706,28.113910065864566,55.602064676207995,23.551977936362587
23.864113759319995,27.105424777996962,37.039290694546864,10.252612446708845,28.035425599804217,57.7071762688587,23.56757154141269
23.767324106942894,27.27001600882544,36.979997593916224,10.212799039803953,27.957704827761138,59.90715490209743,23.58397699293614
23.671196484153118,27.43540737068585,36.91996908284673,10.174991096813281,27.880444084796324,62.20324587827779,23.601088524917632
23.576096895791952,27.601733055803656,36.8595370131504,10.139192871603779,27.8033377162734,64.59646762549832,23.618789900530793
23.482369042118137,27.7692166048882,36.79898295805978,10.105384122067942,27.726079775402535,67.08766856263185,23.636964216607986
23.390344710903488,27.93813548886201,36.738557236119384,10.073522047499926,27.6483596092482,69.67760669724383,23.655493755755614
23.30035129229347,28.108796659024378,36.67849774294272,10.043541373945876,27.569855940607255,72.36693412239606,23.674251455416737
23.212706107262385,28.281524419078313,36.61902934179462,10.015353224070836,27.490238111904027,75.15607469463413,23.693095721614174
23.127702645567197,28.45664676168228,36.56035092451511,9.988847375300354,27.409176289425226,78.045089319498,23.711873637030443
23.045603319435372,28.63447323565659,36.50262741709323,9.963899840589365,27.326351365834437,81.03361224156569,23.730425160931397
22.966645941344687,28.815275781349488,36.445991002285375,9.940381968006024,27.241455508788796,84.12089799209411,23.748579687123943
22.89105358357107,28.999280076888418,36.390542292610355,9.918166835180603,27.154188317727122,87.30591931444617,23.76614753110939
22.819034977857452,29.18665902608782,36.33634659983842,9.897132781747821,27.064265713393908,90.58738785705195,23.782917884790283
22.750779628545843,29.37751977034885,36.283435509311666,9.877166435480891,26.971448254900807,93.96368210059047,23.798669021395924
22.68646129634178,29.571885176769985,36.23182172176145,9.858166753808536,26.875568789784264,97.4327693320715,23.813181432563727
22.626250827081904,29.769677876714493,36.18151581059641,9.840048186346433,26.776537198948404,100.99213574463305,23.826241083802504
22.570323102998046,29.97072005077227,36.13252854090839,9.82273980045557,26.674326691344806,104.6386890111244,23.83763346973153
22.51884850020211,30.17475362798296,36.084859468660916,9.806181385142432,26.568959569557478,108.36866306984625,23.847140295872396
22.471978889209623,30.381463478276594,36.03848674271246,9.790321074443133,26.460499805149873,112.17758738158547,23.85454541660264
22.42984365623302,30.590488358018806,35.993367840945574,9.775116952606643,26.349047468723853,116.06032962698582,23.85964322008666
22.392556830708884,30.801436481154195,35.949445314558304,9.760540380641082,26.234728912517728,120.0111632792744,23.862239654692285
22.360222192294472,31.013926962335827,35.90664543601912,9.746576592959713,26.117683361661207,124.0238081549688,23.862147230184085
22.332927301376678,31.227637684132453,35.8648678537931,9.733221145486013,25.998051400908487,128.09142940629445,23.85918507548888
22.31073321082537,31.44232094620673,35.823977738375085,9.720475602293561,25.87596913578758,132.2066385525678,23.853189891083595
22.293673989992293,31.657781235339723,35.78381273339962,9.708347272923007,25.751566143628562,136.3615838142716,23.844028410210136
22.281768618912956,31.873850046294805,35.74420054572729,9.696854417651265,25.624961685949895,140.54815216705654,23.831598389790702
22.275030457301177,32.090407042053855,35.70497002991153,9.686032287814173,25.496257143150565,144.75818062380546,23.81581951961392
22.27346224911226,32.30745618598005,35.665955145352434,9.675933897480268,25.365527957304447,148.98357674829018,23.7966277546719
22.2770429408808,32.52519297147894,35.627011161769275,9.66662537634429,25.2328175126255,153.21633963770125,23.773981056744905
22.28572120950069,32.74400529258822,35.58804433690908,9.658180620720074,25.098133285286792,157.44851660602316,23.747868637789754
22.299422733840014,32.964426682405865,35.549028854497465,9.65067843319346,24.961448069339188,161.67216383434587,23.718310546355273
22.31806167218319,33.18708395729922,35.50999606800807,9.644201193602402,24.822710642459164,165.87938602319224,23.68534758965509
22.34154116624677,33.41265085376968,35.47101061341186,9.63883181774758,24.681867084940414,170.06245173802776,23.64903530392942
22.369744894448292,33.641802302628946,35.43215582264962,9.634647880140015,24.53888648788213,174.21390703168487,23.609450659080093
22.40253760196816,33.87516758139481,35.39353481485824,9.631716778656982,24.39377770983347,178.32662420634742,23.566702106084872
22.43977987125185,34.11328896876758,35.35527323623945,9.630097663620589,24.246590226933748,182.39378700498054,23.520928734652305
22.481339635925465,34.35659666972205,35.31750932511535,9.629849669052593,24.097407084654364,186.40886708935378,23.47228930428028
22.527088101386866,34.605401904952394,35.28037744780316,9.631037960849337,23.94634083035246,190.36565176604077,23.42095428143449
22.576891675005978,34.85989450716777,35.244002436749746,9.633731793154112,23.79353408045274,194.2583035242462,23.367108440079075
22.630615545304448,35.12013326497031,35.20850704548292,9.637998505761695,23.639160437084183,198.08138358044192,23.31095605785032
22.688135487470706,35.38603634814062,35.174015487213524,9.64390081194076,23.483424819964707,201.82990529515058,23.25271646855984
22.74934140655877,35.65738417475817,35.14064166117247,9.65149966325558,23.32656394853534,205.4995309468232,23.19261085408735
22.814127564388205,35.9338305091646,35.1084728173191,9.660857821698388,23.168844591921793,209.08679605130538,23.130852672737987
22.882384835445237,36.21490791378051,35.07756673640895,9.672038389289753,23.010563096817926,212.5891628170697,23.0676492135722
22.954008432737382,36.50002743054782,35.04796259027774,9.685098703617035,22.852053228510673,216.00490596183656,23.003207328259215
23.028911076322498,36.78848792918396,35.01968654648992,9.700084489605294,22.69369504773357,219.33294234827787,22.93773149845204
23.107022481812947,37.07950063661746,34.992744198796046,9.717027448338458,22.53591100485122,222.57268520086703,22.871414054711792
23.188274158032744,37.37221247867992,34.967117969791474,9.73594462418079,22.379150389374857,225.7239683373275,22.80442932429062
23.2725856180846,37.66571501148206,34.94278393602599,9.756836135858721,22.223874793506102,228.78701335685088,22.73693868255677
23.359862157812028,37.95904654179827,34.919733783105045,9.77968136038953,22.070551668060514,231.76238555105292,22.66909846337419
23.44999658229944,38.25119728016784,34.897979554211815,9.804437194273625,21.9196509153651,234.65097328500923,22.601059096257632
23.542863718436635,38.541117652003756,34.8775401878101,9.831041585409501,21.77163574107708,237.45405451167693,22.532956017952127
23.638310517255018,38.82773021101611,34.858428180965,9.85942105365021,21.62694694171194,240.17338458110856,22.464904197635622
23.73615265211164,39.109945034957136,34.840649323485714,9.889496066408041,21.485987942652876,242.8111611188544,22.397004524454726
23.836179497630923,39.38667138959292,34.82420715394885,9.92118024488792,21.349117913235382,245.36984905543596,22.329355710077504
23.938158044835372,39.65682104779346,34.80909765602813,9.95437740272495,21.21665311639718,247.85199167476492,22.262059647083362
24.041828332631077,39.91930885037283,34.79529528279127,9.988983650121549,21.088869570406132,250.26012979415643,22.19521861533531
24.14689532802352,40.17305484675078,34.78274530946195,10.024895093882213,20.96600256681234,252.596872579084,22.128933324949244
24.25303042227865,40.41698354035561,34.77137559732635,10.062013606937489,20.848245287088663,254.86502910006828,22.06330762875135
24.35988688779018,40.65002218984734,34.761120757394174,10.100245501595444,20.7357502619803,257.06763385643666,21.998453575511647
24.467115113860373,40.87111534111283,34.75193420011769,10.139496464553586,20.62863694776492,259.20785385992997,21.93448756759791
24.574363194664507,41.07926049752809,34.74377896481407,10.179668679930705,20.52700404845819,261.288896878532,21.8715195894698
24.68126773774109,41.27353859996492,34.73661681756894,10.220661691909458,20.430938058331407,263.31393717571365,21.80964645198421
24.78745096300638,41.45311707783065,34.730413187762,10.26237346793687,20.340514645931098,265.28599497178413,21.74895534742643
24.89253168206201,41.61723664084586,34.72514857507655,10.304698634692201,20.255799859631097,267.20777676100926,21.689531293470093
24.996139983057702,41.765200570584604,34.720816472241125,10.347525529608728,20.176856446505894,269.08155330802026,21.631457327941504
25.097920738967755,41.89636865624713,34.71740773605951,10.39073438091238,20.10375205959666,270.909119753713,21.574807022940373
25.197530098404535,42.0101562272846,34.7149032679906,10.434196455608827,20.036561671091086,272.691802018581,21.519641023375378
25.294646482661463,42.106049250143094,34.71328755813627,10.477773893002041,19.975361813833988,274.4304825677429,21.466015603834574
25.389001602042438,42.18363506017403,34.712564793958286,10.521320522914914,19.92022460938615,276.12565987233546,21.4139953295943
25.480406087939937,42.242624238293075,34.712754011031215,10.564683217803589,19.87121754577302,277.7775275666075,21.36365596700035
25.568747182614814,42.28284580928625,34.71386815934753,10.607703129496574,19.828402940441734,279.38603356534264,21.31507639004795
25.65396711034327,42.3042244378774,34.715901000199125,10.650217635167582,19.791830657794932,280.9508921683184,21.268331796030004
25.7360452371398,42.3067605829561,34.718831613005094,10.692064462651011,19.76152749086933,282.47158104077346,21.223497584652872
25.814993350709187,42.29053717450795,34.722630756048495,10.733086579364274,19.737488904676628,283.94740215801966,21.1806576674819
25.890853036172437,42.255759911034815,34.72725293623595,10.77313396355792,19.719673833575374,285.3776292941606,21.139904182309234
25.963682596895275,42.202800852029334,34.732624153635946,10.812060904477345,19.708001019857754,286.76169324653785,21.101327612803903
26.033538910521717,42.13220880554371,34.73865100386063,10.849721194359258,19.70234631384453,288.0993460709153,21.06500953921548
26.10047131647423,42.04468464622191,34.745254782353456,10.885963996122282,19.702540585428807,289.3907603792404,21.031025791616056
26.16453261307193,41.941045328529796,34.752400051150495,10.920631297769487,19.708368766835797,290.63653917018837,20.999452351402113
26.22579068562268,41.822199474228384,34.7600938974843,10.953556047482438,19.719571786834635,291.83763035299813,20.970362556227172
26.284324858045096,41.689138264767905,34.768367602765345,10.984560355766975,19.735850479687173,292.9951591115177,20.943816309605168
26.340213485271086,41.54292424686056,34.777263614101,11.013455566014875,19.756867028722144,294.11020945164944,20.919852716134383
26.393530592179676,41.38466471831898,34.786834506798726,11.040046036053546,19.78224171987034,295.18360021629996,20.89849554403482
26.444355236991612,41.215477932328824,34.797142939152224,11.064134679872602,19.811551806581086,296.2157049273562,20.879767039489995
26.49277849510191,41.03646888830194,34.808251847092855,11.085526880491868,19.844348692370186,297.2063408145794,20.863694635525334
26.538896314759953,40.84872174908553,34.82021090859254,11.104032063719584,19.88019818527582,298.15470737499277,20.850304694789973
26.582794620187844,40.65329944966872,34.83305131870127,11.119464694475827,19.918718549642414,299.05933637659166,20.839615256520272
26.624540142002388,40.451236308335865,34.846787053270134,11.131647360424521,19.95959031346864,299.91804592717426,20.831639070384274
26.664182468327557,40.243524783606276,34.86141100194723,11.14041631647146,20.002546446908152,300.7279329274306,20.82639185960163
26.70176009101794,40.03110785239747,34.87688213612453,11.145625683698594,20.047368711741214,301.4854350486797,20.82389359768862
26.737299194416384,39.814877078703724,34.89311172340935,11.147147215753233,20.093897726439064,302.18644750763855,20.824160805284475
26.770804664053067,39.59566969866901,34.90996043882684,11.14486806561728,20.14204193505418,302.8264524274859,20.827199644402057
26.802254950059616,39.3742747266367,34.92725043718313,11.138692636069743,20.191771506055098,303.4006291029545,20.83300724066772
26.831608592174813,39.151465279263896,34.94478012779672,11.128551100290773,20.243100651745895,303.9039579905999,20.841575643402575
26.858813943064188,38.928043978350416,34.96232698302932,11.114408722323589,20.296070105564308,304.3313969669571,20.852888126174587
26.88380943177468,38.70486362515205,34.979644760536566,11.096268454214643,20.350733801770296,304.6781617203226,20.866908365294712
26.906515848619627,38.482810040476636,34.99647574313463,11.074166878208533,20.40714555281645,304.93996530930286,20.883573903477554
26.926832705482724,38.26277253602996,35.01257990762449,11.04816868068806,20.46534312049132,305.1130585856546,20.902802325655077
26.944646137983717,38.04563469124081,35.02775571703779,11.018363109637708,20.525332899911383,305.19412097077685,20.924504065692375
26.959843127435654,37.8322936045754,35.04183593894622,10.98486195115118,20.587079609935053,305.1801560290423,20.948587003792905
26.97231953112917,37.62368261983707,35.05467558146769,10.947796319015424,20.650502332562766,305.06845887505136,20.974949008939113
26.981979122574742,37.42076810552249,35.0661561987663,10.907311291505229,20.715475317057752,304.85662696493483,21.003470943531124
26.988737085079773,37.22452097535273,35.07620264013713,10.863560899527917,20.781830411612102,304.5425772559109,21.034021156308032
26.99253694843691,37.0358840292562,35.084787410681955,10.816706049523578,20.849358397153807,304.12455454006096,21.066466308915814
26.993367334604194,36.85574593215358,35.09191369585492,10.766914460559178,20.917808914452664,303.6011254584362,21.100675136080202
26.991260603262887,36.684918252859745,35.0975942420881,10.714359526956413,20.98689079009762,302.97120282034047,21.13651177228736
26.98627778704858,36.52411302297152,35.10184116776767,10.659217365830623,21.056273552465623,302.23414444016566,21.173829356853666
26.978500984917716,36.37392458199097,35.10466122525602,10.6016645937704,21.12558873201095,301.38985228088484,21.212473743474337
26.96804237453826,36.23481805272829,35.106046401215366,10.541878627148831,21.194432509948143,300.4387861720517,21.252292694835802
26.955053593766923,36.107120979949926,35.10596509698473,10.4800390821183,21.262376379312148,299.381919197843,21.293138157379442
26.939717746553345,35.99101566717509,35.10436655720196,10.416327872637167,21.328988934999167,298.22067702989136,21.334858518741818
26.92222936402528,35.88653737497773,35.101195783008,10.350927829357333,21.39386068961545,296.95686342350535,21.377291367399938
26.902780173173323,35.79358249627715,35.09640144641915,10.284021617598626,21.456618453116526,295.59260458893726,21.42026709721529
26.881557843216445,35.711920003817525,35.08992834147218,10.215791589063453,21.516924282361398,294.1303875534545,21.4636190103792
26.85874762814698,35.64119751988726,35.08170534736372,10.146418902959029,21.574469279637338,292.57318992535056,21.507186769805127
26.834525106188025,35.58094424890339,35.071646209986284,10.076080166601235,21.628980335453853,290.9245649019158,21.550809625407727
26.809042737823784,35.53058700543519,35.059665121948605,10.004941975691567,21.680243375626205,289.1886094046139,21.594320087572225
26.78242233512604,35.48949558065568,35.0456886727697,9.933155468318818,21.728121465552693,287.3699028847237,21.63754932775953
26.754760099787212,35.45704346113865,35.02965013128138,9.860852894818361,21.7725496362784,285.4734643129589,21.68034030025704
26.726138467953792,35.43264453377966,35.01147387828803,9.78815200050897,21.81351425307524,283.50468448425505,21.722552981379554
26.696632616222416,35.415749610386214,34.991066173853525,9.715191345897324,21.851031864398205,281.4692444961657,21.764056844018548
26.666307897780992,35.4058234674266,34.96831927192087,9.642223628449901,21.885132579580052,279.3730642305697,21.804723604392418
26.635218864988865,35.402327922025506,34.9431210962455,9.569740020743787,21.91584756477701,277.2222600743934,21.844431694026785
26.603420035111384,35.40472112335261,34.91535832912053,9.498547847861463,21.94320026164444,275.02308370525486,21.883076427596585
26.570980357470678,35.41246591589862,34.88491475447356,9.429785518186481,21.96720257276248,272.781883094238,21.920572305604015
26.53798472153685,35.42503058099483,34.85167646060741,9.364955658740524,21.98785978566412,270.5051188012894,21.95684572806016
26.504522812163398,35.441876321648145,34.81554322754832,9.30603386935118,22.00518471363216,268.19937409723616,21.991829615197684
26.470683125755397,35.46244839482565,34.77643229563678,9.25562683850927,22.01921083962505,265.8712939603558,22.025468204348748
26.436560100337076,35.4861939675263,34.734269610457716,9.217117369744694,22.029993289559542,263.5275027954458,22.05772599436435
26.402260438612675,35.5126028281085,34.68898237135001,9.194718058951025,22.037598885662913,261.174584382291,22.088589471679082
26.36789645974279,35.54123580256045,34.64050739894938,9.193389317838587,22.042095034828343,258.8190958112201,22.118060185466472
26.333574389298466,35.57172036633567,34.58880846455869,9.218685813939045,22.043546933989266,256.46752676560124,22.146149399333993
26.299391318996214,35.60373534133911,34.533881916491715,9.276671928946564,22.04202405088998,254.1262086418776,22.17288453658524
26.26544119639072,35.63701412033278,34.47574680205899,9.373965377053194,22.037606066138093,251.80125207509218,22.19832335439606
26.23181778829921,35.671362899898625,34.41444089871874,9.517786352513255,22.030383248257642,249.498532827839,22.22255951634466
26.198607267729727,35.7066662601369,34.35003677593017,9.715900315337485,22.020458355824168,247.22368314499025,22.245712881721406
26.165878427115324,35.742867077142655,34.28266006701842,9.976541141071838,22.0079531182033,244.98207378687965,22.267917615927843
26.133683733947468,35.77993350536356,34.212487768100694,10.308406791896536,21.993012085130747,242.77880356102511,22.289323603520586
26.102071801358818,35.81782964808464,34.13973183097103,10.720634506653434,21.975800169621063,240.6186833004646,22.3101077192939
26.07109690429774,35.85649572879,34.064626299311385,11.222634657744788,21.956498308950344,238.50619402202858,22.330476390907638
26.04081507669833,35.895833561309544,33.98742362592236,11.82380675258954,21.93529980968673,236.4454408751898,22.350652170512348
26.011274602600384,35.93569814271903,33.908391480855585,12.533240789993188,21.91240553696025,234.4401322950395,22.37085870598285
25.98251605021463,35.97591881301768,33.82780092334926,13.359475669963441,21.88801728458145,232.49359454352518,22.391319689160646
25.954583075699254,36.01636516971349,33.74590786203375,14.310326675372048,21.862330042909253,230.60881387754557,22.412267729244565
25.92752909173905,36.05701795294471,33.662939937217374,15.392756697207762,21.835522966292466,228.78848025795466,22.43394585087734
25.901409600421026,36.09799426395184,33.579100403080254,16.6128030766497,21.807751483977125,227.03502437449262,22.456595615962073
25.876267698377454,36.13953788143034,33.4945848830518,17.97563138563839,21.779150116277318,225.3506525963424,22.480444279911637
25.852127817643552,36.18201116310908,33.4095915453103,19.48572194343869,21.749851165899795,223.73735627895,22.505702224260425
25.829002409091323,36.22588498881211,33.32431502249903,21.147047624139017,21.720005059788324,222.19687895760106,22.53256558162203
25.806899739846315,36.27170900861334,33.23893678140106,22.963090299110046,21.6897844554709,220.7306907801933,22.561212364756745
25.78582109405079,36.32007490564281,33.15362603972671,24.936697967263342,21.659374316128865,219.34006070127174,22.59179121099585
25.765752361932698,36.37159241244451,33.06854684281215,27.06989504534396,21.62896368615937,218.0262316025037,22.624413938310262
25.74666272252273,36.426888704116024,32.983857721685276,29.363728134903944,21.598749410830525,216.790579370224,22.659161801791647
25.728512405810676,36.48666282455872,32.89970232547753,31.818195738506052,21.568947486967712,215.63466004035593,22.696100273737244
25.71125826073177,36.5518001558451,32.816204777955974,34.432323900513865,21.539798494015116,214.56015074314598,22.735285502229736
25.694848640292395,36.62346209794653,32.73347886810494,37.20435973654153,21.51156102019579,213.56875999294238,22.776756425385017
25.6792142748027,36.703083695874206,32.651639842534685,40.13191528799062,21.484499845388946,212.66219086703708,22.820526301350498
25.66426823895222,36.79231516964409,32.57080267197294,43.21196593486013,21.458875723876396,211.84213974365863,22.866588015853022
25.649916610973776,36.892956568398795,32.49106700604069,46.4407817627529,21.434935702092805,211.11025599790602,22.914928933058746
25.636066712884418,37.00690208407742,32.41250034703193,49.813865841466274,21.412901480134362,210.4680772390671,22.965537976831065
25.622622944728835,37.136104557201634,32.335129039470786,53.32589478625029,21.3929591116564,209.91700407010987,23.018397579398044
25.609477721054056,37.282578588812534,32.258938551319446,56.97068455194777,21.375254749263558,209.45831230230763,23.07347236603165
25.59651415625264,37.44849216843402,32.18387785902994,60.741236892551676,21.359894489277227,209.09316980077762,23.130708663578776
25.58362385214072,37.63634130331741,32.10987120418907,64.62986355675615,21.346942460209505,208.8226695119314,23.190042735710552
25.570721930365906,37.849063122809405,32.03684813298956,68.62835373284213,21.33641498392699,208.64786165112596,23.251404092953184
25.55774463506436,38.08999309307631,31.964782492756726,72.72816702796389,21.328276019746824,208.56970685881038,23.314708101614354
25.544637472301122,38.36276663683415,31.89371267397241,76.9205880138619,21.322446653002416,208.58897096854048,23.379847997317892
25.531349638486034,38.6712652852368,31.823731897026722,81.19677281625658,21.318834718027627,208.7061860570015,23.446700118627252
25.51783773957569,39.019559873820114,31.754962690990315,85.5477154879588,21.317367474226543,208.92168754972693,23.51514039749022
25.504068221185204,39.41179495202706,31.687535812655774,89.96419728291902,21.3180045077157,209.23561566670557,23.58505350100847
25.490011926849217,39.85206477048409,31.621581680302516,94.43675407242362,21.320730843847095,209.64784442983196,23.65632484333617
25.475640989400542,40.34434496892342,31.557224995166955,98.95568348488582,21.3255463222658,210.15789096077492,23.728829052930248
25.460939320966425,40.89246504495876,31.494571234509305,103.51109513737468,21.332460080757066,210.76483260133872,23.80243296010279
25.44591804217511,41.500068396107345,31.433689749658896,108.09302591570375,21.341486452982835,211.46722506253556,23.87701120438489
25.430618120739293,42.170534251914184,31.374608916649326,112.69164152371225,21.352635995983746,212.2630264421617,23.952455342043265
25.41509829483327,42.90687691883066,31.317326530700672,117.29743995514035,21.36590162553696,213.14955867532234,24.02866650796076
25.399423636003355,43.71165548976269,31.261818815598136,121.90135138822421,21.381246577805967,214.12353062224275,24.105543851282548
25.38366822903082,44.58691626316345,31.208035848337897,126.4947424661812,21.39860263850397,215.18108188502316,24.182985436613517
25.367926602328538,45.534170223812055,31.155897109212866,131.0693630855223,21.4178789842598,216.31778529243542,24.260899576386695
25.35231595977005,46.55438810605027,31.10531282911232,135.6172659963896,21.43897007778041,217.52862910109818,24.339209033814974
25.33696542209996,47.647993208973524,31.05623102022081,140.1307714793842,21.46175346505399,218.8080408945196,24.417840522480393
25.322009189084245,48.81484911750422,31.00867384972788,144.60249400712334,21.48608074911272,220.1499522535433,24.496711734926713
25.307593568580575,50.05424176207829,30.962736288309813,149.02534284123803,21.511768336672528,221.54789196658072,24.575731084057605
25.293884346209836,51.36487850939955,30.918562708822865,153.39245915156508,21.53859051443119,222.99512656686358,24.6548089196294
25.28105938303274,52.74499248607058,30.876334001995467,157.69717849019594,21.56627474367612,224.4848096135011,24.73386342622593
25.26929197807222,54.19259923266139,30.836275094687885,161.93309988852027,21.5944985084549,226.01006948333975,24.812811919545855
25.258740932270207,55.70577841211451,30.798662001938403,166.09425820860076,21.622891889382597,227.56402742985213,24.891558916354782
25.249551817538325,57.28281951178265,30.763808405050412,170.17533808141707,21.65105687703569,229.13976086689175,24.96999628727708
25.24185911801008,58.922225966583866,30.73203922633171,174.17180948066058,21.678603833324043,230.7302306732197,25.04801355614549
25.235779576265163,60.62264540431243,30.70367244742556,178.07993890444365,21.70518302319257,232.32823109421727,25.125502631568136
25.23139876768809,62.38276033826098,30.67901920688876,181.89680808592226,21.730494607365383,233.92641186395971,25.20235033360523
25.22876027152691,64.20116517820618,30.65839325353121,185.62041047019505,21.754289362620252,235.51736908902458,25.278429769469174
25.2278646441917,66.07624700200192,30.642118504292657,189.24968511823755,21.776375987846478,237.09376852339653,25.353602992575833
25.22867564460274,68.0060720822831,30.63053570081301,192.7843821574531,21.796628994862296,238.64844065529277,25.427732027778635
25.231123780048293,69.98831515695225,30.624008171684007,196.2248507225434,21.814984415787237,240.17441156890197,25.500683538728953
25.23510222734088,72.02033023956677,30.622917376621658,199.57188475746972,21.83142395783704,241.66489922375712,25.57232051063018
25.2404607117792,74.09939467358785,30.627642572937255,202.82663582765585,21.845956736062206,243.11331065901174,25.642491890474233
25.24700641101046,76.22295645044912,30.63853274707483,205.9905010250415,21.858604879646006,244.5132564938099,25.711034575957772
25.254513066179175,78.38869405144642,30.65588818423657,209.0649464447656,21.86939403438283,245.85858208068765,25.777786549519583
25.262728687348822,80.59441364364454,30.679958662933124,212.05133089125587,21.87834626965927,247.14336965084206,25.84259507232416
25.271375515972615,82.83791304974079,30.710944461366275,214.9508136269638,21.885473592030273,248.3618806653478,25.905310682313658
25.280150748216396,85.11689462934903,30.748986418452095,217.76440759397337,21.890773031067738,249.508482333623,25.965776894780785
25.288737922093297,87.42903174634232,30.794150411051053,220.49315219419466,21.894225010495855,250.5776281028283,26.023830674203776
25.296822498703563,89.7722456666788,30.846420352792958,223.13823582621393,21.895796345455533,251.5639198373756,26.079313598022257
25.304097874524224,92.14500209553566,30.905704044094634,225.70095907889512,21.895446437456346,252.46220319435906,26.132078419477534
25.310261046089423,94.54637216739303,30.971841637102646,228.182630983085,21.893131241604664,253.26762762512055,26.18198228041451
25.315009663987563,96.97586265190128,31.044604519930857,230.58448858053634,21.888801021168526,253.9756705600165,26.228876600856495
25.31804894897784,99.43319684033817,31.12368594409482,232.9076167741769,21.882396196472193,254.58215336298557,26.27260839490724
25.31910369411299,101.91817393327342,31.2086980371166,235.15284785957772,21.873853774078594,255.0832435366798,26.313032930944523
25.31792295881085,104.43063119866427,31.29918798673637,237.32066894439382,21.86313015047758,255.475443239898,26.350022697991157
25.314273693105648,106.97044920251336,31.394666416064272,239.41115700041172,21.850225342609004,255.75559906169744,26.383463305617518
25.307934910180037,109.53750500528074,31.494624951006855,241.42393004859971,21.83518894990814,255.92096900649668,26.41324542081154
25.298707296825437,112.13153528444556,31.598533728714546,243.35812016962524,21.818107932734303,255.96931860223208,26.4392674233411
25.28643631629906,114.7519770339895,31.705835754863198,245.21239524232516,21.799090963074715,255.89895719082867,26.46144838213148
25.27102786197395,117.39791729229819,31.815956301910834,246.9850184027131,21.77826038407145,255.7086871009668,26.47973566873553
25.252443413224768,120.06820759085197,31.928322017173393,248.6739157522007,21.755753075898774,255.39773598460977,26.494098828142
25.230686208984142,122.76162848084898,32.042370983786775,250.27676013135743,21.731723680411584,254.96573544192583,26.504520311258734
25.205796131682146,125.47696416693243,32.15755116767664,251.79108021262232,21.706342493958807,254.41276480788426,26.51099747264268
25.17785459292452,128.2129764847892,32.27332255530881,253.21436264311123,21.679788753035588,253.73944488375344,26.513554793632895
25.146985805548606,130.96832908178945,32.38916728135388,254.54411063636812,21.652245813835552,252.94702607361089,26.512250666336826
25.11334731887471,133.7414942795891,32.50459323383008,255.77784963013994,21.62389822329275,252.0374286920484,26.507169564508793
25.077120177484673,136.53066413634738,32.61912265627067,256.9130876530065,21.594925099895292,251.01323736306804,26.498409575021725
25.038508662695495,139.3336826281932,32.732277651925465,257.94726118759314,21.565491434039217,249.87765959719988,26.486081374897484
24.997742682212127,142.14800705398045,32.84358144432181,258.8777185067024,21.535747601304866,248.63445744308657,26.470319121507938
24.955071413632258,144.97071793658932,32.95257709454951,259.7017697894594,21.505840062152153,247.28786609976976,26.451285950483037
24.910751925327563,147.79864370238494,33.058842259850366,260.4168025798497,21.47592070851984,245.84250909406543,26.429163298485093
24.865051750021202,150.628602485274,33.16198433223452,261.0204550917803,21.44614531561671,244.30331353082894,26.404135585472094
24.818275630800404,153.45758275291357,33.26162830349265,261.5107922194012,21.416668533682092,242.67544161743254,26.376388024717226
24.770795618327178,156.28272587793467,33.357417319843016,261.8863882445594,21.38764412587585,240.96427445609544,26.346117207729392
24.72305511645125,159.10120394234994,33.4490245270036,262.1463070070833,21.35922636375616,239.1754514945494,26.313536203677497
24.675547031085372,161.91012452476053,33.53615725193667,262.29006480487226,21.33156543221207,237.31489871925157,26.278864373225183
24.628788834292795,164.70647256672078,33.61854522553852,262.3176131848012,21.304798838794575,235.3887851890575,26.242313946460758
24.583309044865896,167.48704918671638,33.695925866545906,262.2293016206337,21.27904825168398,233.40342342423784,26.20408854901707
24.53964093182442,170.2484173246781,33.768042192579344,262.02579973357206,21.254427061422845,231.36516491523236,26.164391371197375
24.498313398639613,172.9869156882194,33.83465216485715,261.70800873230456,21.23105087539896,229.2803430659602,26.12342778790524
24.459839440947174,175.69876407121814,33.89553447079706,261.27699699298955,21.20903856803131,227.1552848891716,26.081396220103485
24.424711216673533,178.3801982058346,33.950482084193354,260.7339701720883,21.188502888817,224.99633491134787,26.03847876974662
24.39340506576667,181.02757163619813,33.99929192172271,260.08026032103226,21.169543276452536,222.8098323093743,25.9948453838206
24.366388596436494,183.63746448720377,34.04176545063966,259.317315848405,21.152256581559453,220.60208076953933,25.950668312548736
24.34411821742839,186.20686794875925,34.07772229057116,258.4466926627483,21.136765588540698,218.37937471559178,25.906129538594417
24.32702525349455,188.73340105573354,34.10701076721735,257.47004729160045,21.123242290968115,216.1480609231488,25.861413385564994
24.31550233909359,191.21545012893426,34.12950304673122,256.3891298853817,21.111906505616282,213.91459142609438,25.816696088299025
24.30990072753299,193.65216116944714,34.14508127981491,255.20581830381468,21.103006488118552,211.68557594053775,25.77214728411228
24.310534822257807,196.04328523444332,34.153627487570084,253.92223531348378,21.096798160108058,209.46783192903368,25.72794201602251
24.317681850166192,198.38896421134598,34.155023732615504,252.54088559012973,21.093529782616486,207.26840029473144,25.68426687208805
24.331574217525347,200.68960892900407,34.149158796520204,251.0647160831411,21.09343202292226,205.09451998569872,25.64131159843197
24.352398924375834,202.94597200753358,34.1359301698515,249.49709488307872,21.09671152652049,202.95356111491125,25.59925657703094
24.38031428910927,205.15931795849258,34.11523934064193,247.84174778818542,21.103547615990593,200.852899225228,25.558270285048536
24.415469551988647,207.33145757369394,34.08699388614209,246.10267819934154,21.114103394722278,198.79973992129035,25.51851643859362
24.458007794156238,209.46456595260952,34.0511230664278,244.284099617777,21.12855977907079,196.80094160248913,25.48015713253901
24.508054371668507,211.56092316364595,34.00759182292374,242.39040230224992,21.14714986295763,194.86287549090903,25.443344259221732
24.565705115328186,213.62274975405222,33.95639762669158,240.42615227143116,21.17016362662781,192.99132520233897,25.40820869444774
24.631019853512985,215.65224226675295,33.89755647240205,238.39610013931804,21.197925032638704,191.1914253532528,25.374860324528502
24.704016096452772,217.65176964910435,33.83109662941878,236.30515523018136,21.23076237628609,189.46768026411837,25.343397071448347
24.784657458341425,219.62401130419715,33.757066947225944,234.1583013098904,21.26898771955334,187.82408033434714,25.313909059811383
24.872842381751024,221.5718808266517,33.67554685316888,231.96049491007128,21.31289304125165,186.26421730581004,25.286472521930296
24.96840840620629,223.49831823046782,33.58664425606368,229.71660365561215,21.36275631239861,184.79128577653344,25.261143705607427
25.071155879086525,225.4060974491847,33.490484671500155,227.4313961408528,21.41884040143862,183.40798600999543,25.237964009860768
25.180871176806928,227.29770616500045,33.387204865416365,225.10955071209722,21.481378434661014,182.11641395998438,25.21697298438816
25.297329231044905,229.1752793478119,33.276955294445074,222.75564087598687,21.550553529779318,180.91799898601403,25.198213840076345
25.420278327526653,231.04054078956273,33.15990140885881,220.37408858137385,21.62648084376136,179.81349927060836,25.18172448562979
25.549424013018015,232.89474030592334,33.03621789568252,217.96911459805366,21.709195012633227,178.80301283564677,25.16752530908822
25.684426425829166,234.73861799123853,32.90608686166474,215.5447099517698,21.79864582062048,177.88596128171645,25.155617803945308
25.824911801736736,236.57240040937805,32.769711027065185,213.10463341342327,21.894705356074116,177.06104942972726,25.14599290033753
25.970482802440937,238.39578005034795,32.6273329475502,210.65243148582755,21.99718300961665,176.32623049899516,25.13863475957568
26.120716368006672,240.20786250757283,32.47924035114278,208.19147620856748,22.105835982023407,175.67871153254828,25.133512819924995
26.27515702031293,242.0071233598369,32.32575417073328,205.72503514215344,22.220368423452165,175.1150157311176,25.130572400341215
26.433316372870202,243.7913918662516,32.167216294906645,203.25637335697442,22.340426386783683,174.63107037569895,25.12973826461922
26.594675739318276,245.5578557803906,32.00398837367991,200.788835566965,22.46559805908208,174.22228031012358,25.130929939017708
26.75868410493331,247.3030894528591,31.836453542350434,198.32586919382405,22.595419186746323,173.88358660055763,25.134071734829405
26.924752545123805,249.02308681051227,31.66500895466222,195.87099989456004,22.72937730273144,173.60951786523583,25.13908770910307
27.092252273529013,250.7132751605288,31.490050786598335,193.42778567899228,22.866910777924833,173.3942303369167,25.145891871754383
27.260520495351773,252.3685104482977,31.311965534571993,190.9997698824903,23.00740469090295,173.23154147491695,25.15438864395327
27.428870425313708,253.9830767772316,31.131133911838184,188.59043566223755,23.150189403791817,173.11495804395142,25.164483987199432
27.596597136561027,255.55072350617635,30.947941156993302,186.20316029305823,23.294544980095466,173.03770125557395,25.176093129653147
27.762977112056745,257.06473975542724,30.76280197621219,183.84118970133753,23.43970739941504,172.99276862048183,25.189135218026003
27.927269892256902,258.51802647245415,30.576214652738702,181.50764294817336,23.58487593803804,172.97305805487863,25.20352186174878
28.08872862977364,259.9031669546034,30.38881986148079,179.2055111410104,23.72923430047432,172.97149465738366,25.219153362648743
28.246613568224262,261.2125494442642,30.20142512326061,176.93761729360568,23.871990356862323,172.9810956527993,25.235925766150498
28.40019821766067,262.4385537586861,30.014995411886943,174.70655969835434,24.012413570445542,172.99499743308047,25.25373701472177
28.548766773059263,263.5737425504774,29.830632601837287,172.51468871919778,24.149849662535598,173.00649018606214,25.272481973573793
28.691609600783686,264.61099922254726,29.649560863671855,170.3641272504444,24.28371462423939,173.00906633357326,25.292041992426817
