HandOpen,HandClose,Wrist Flexion,Wrist Extension,Supination,Pronation,Rest
123.29177352376502,59.411085716280056,49.30742472596744,26.906792933363597,97.8172004581233,17.24600778909648,23.477873341738743
123.84468278218998,58.281306675261106,49.1958211386357,26.758627476079166,98.39325813927685,17.36131287259888,23.52156547878849
124.39671806407218,57.174137864945735,49.09474559333915,26.63046499026123,98.92774139849493,17.51091909913414,23.56676141523905
124.9471560198241,56.09199716490365,49.00415533180865,26.520792160190023,99.4187222549678,17.695738795494258,23.613471590041478
125.49523653685284,55.037251465493114,48.923959212055266,26.42810158761228,99.86444155308179,17.91638093188766,23.661674158021157
126.04015684325257,54.01217303608782,48.85400487400892,26.350896032418298,100.26328515571237,18.173149285634146,23.711320494375723
126.58109970099945,53.01891552097066,48.79408214852457,26.28771116781949,100.61379615702504,18.466037941692118,23.762342419092835
127.1172689315974,52.059518440787244,48.743924026158716,26.237150745222486,100.91473108119472,18.794725967055477,23.81465097393674
127.64789375744309,51.13591620522019,48.70319526412132,26.197909839387755,101.16510845358138,19.15857617649624,23.868130114264005
128.17219504345525,50.249924796537755,48.67147769217141,26.168776928964505,101.36420269434488,19.556638290092238,23.922637362272713
128.68936590601743,49.403208870450186,48.64826158592401,26.148627269855663,101.5115050693892,19.987655305943687,23.97801503595632
129.1986065580136,48.597248422911576,48.632943619118734,26.13641721216509,101.60669253062696,20.45007302455981,24.034100589666416
129.69917398678834,47.83332327138484,48.62483440666299,26.131180826284734,101.64960679236353,20.942052349095338,24.0907240100064
130.190390438627,47.11253873990743,48.62318238405513,26.13203045309151,101.64023077398897,21.461484004829906,24.147696471155935
130.67160551537972,46.43589313586659,48.62721650124961,26.138158361695453,101.57866672668237,22.006007099579772,24.20480630271912
131.1421496680929,45.80433483680087,48.636203952161544,26.14883543242446,101.4651313298864,22.573032607777677,24.261830235050027
131.6013231208534,45.21876572135637,48.64950368396471,26.163417390285392,101.29997220929292,23.159769175085042,24.31854908074773
132.04842061199406,44.6800176443601,48.666587671273135,26.1813671655376,101.08368974359819,23.76324770636431,24.37475254742565
132.4827504518525,44.18884631888953,48.687028221536146,26.202272856431847,100.81695046241796,24.380345644800915,24.43023347039626
132.903627647956,43.74593776398981,48.71047785966474,26.225841217182012,100.50059357349656,25.007816001233532,24.484785161503456
133.3103565849115,43.35190107616718,48.73665697718057,26.251882943478535,100.13562413383026,25.642322715329204,24.538209477995302
133.7022196247877,43.007261421471455,48.765337824312255,26.280312126028537,99.72318348368952,26.280475777537486,24.590326320070286
134.07847446881473,42.712481375852875,48.796316148879036,26.31115052844898,99.2645077262215,26.918859366729656,24.640972066387413
134.43834958798024,42.467985528739405,48.82938542940416,26.34451543515806,98.76089887233842,27.554053553187114,24.689989407489776
134.78102322065644,42.27414302983245,48.864328588224694,26.38059365630475,98.21373124564228,28.182653764680648,24.73722266074409
135.105582954373,42.131214376900815,48.90091791268614,26.41962329465551,97.62448616803321,28.801291732441626,24.782525769459653
135.41099038494042,42.03930388811124,48.93890572695854,26.461891713839815,96.99477416393114,29.40665927677522,24.825772925827174
135.6961099038755,41.99833850626333,48.97800622924575,26.50773613628289,96.32632839718374,29.995531768525677,24.866857999759645
135.959817212317,42.008058211302526,49.01788742038736,26.55753669314163,95.6209943307793,30.56478785135586,24.905684422354142
136.20109546491534,42.06800123472004,49.05818433569809,26.61170716164139,94.88072389444751,31.11142890714122,24.942159774455632
136.41904996132973,42.17749917261775,49.09851661658275,26.67068811828057,94.10755647947047,31.63260406312144,24.97620256920807
136.61290109577814,42.33570024184857,49.13848755082517,26.73493902073104,93.30358679791618,32.12563681383176,25.007751411925085
136.78201118038442,42.541597416885104,49.17766723351615,26.80492288149234,92.47095035614683,32.58804227494182,25.036762924278584
136.92589690128145,42.79402746702103,49.21558018486027,26.88108216742346,91.61185917649539,33.01753274709644,25.063200251202165
137.04417840460295,43.091642799180924,49.25170921784281,26.963816771155066,90.72867013348902,33.41202085577922,25.08702721541425
137.13649754813468,43.43288160719142,49.28550769500781,27.053478712571795,89.82391860156106,33.76962840273293,25.108215985850517
137.20247582339056,43.81596086483059,49.31640439358426,27.150381702650616,88.9002840532263,34.08869878506719,25.126757102468705
137.24174756133087,44.23890096341544,49.34380163002806,27.254806173924884,87.96052295400499,34.36780424380364,25.142657555731546
137.25403558642532,44.699571397332534,49.36709179610087,27.366988765382523,87.00741564541704,34.605743594902705,25.155929949218265
137.239222315585,45.1957461258791,49.38570733612956,27.487107871048543,86.04373872855405,34.801535452328956,25.16658770518558
137.19740297970938,45.72515422883944,49.39917273034984,27.615277792484182,85.072243489492,34.95441557723407,25.174652325918125
137.1288965477521,46.28550007758641,49.40711676624612,27.75154534146275,84.09562304893436,35.06384152848563,25.180161691780775
137.03419557697845,46.87444497046553,49.40925059832383,27.895878826656038,83.11647342860485,35.12949812671194,25.18316672180025
136.91391160165955,47.489573346663505,49.40534893462508,28.04815313831779,82.13725996478523,35.151294753309664,25.183719666735247
136.76878228485268,48.1283744008256,49.395252734703206,28.20814203781996,81.16029346867384,35.12935406581017,25.181869994689528
136.59970879103636,48.78825384699619,49.3788782521108,28.375522537884205,80.18772255599069,35.06399993129053,25.177676293527004
136.407746565561,49.4665609232318,49.35621369186344,28.549885126287766,79.22154791931854,34.95575028577039,25.17122221961658
136.1940470996685,50.16060707281584,49.32731413791441,28.73073947964149,78.26364579356037,34.80531204369058,25.162619595549202
135.95980067383607,50.867680755704704,49.29231403478318,28.917512305630478,77.31577621812339,34.61357147514953,25.151999036083932
135.70618857244935,51.585071689570626,49.25144285011729,29.10954365182019,76.3795680971474,34.38157909473233,25.139502857171507
135.43432749269593,52.31008973428854,49.20501411121361,29.306091355072557,75.45650082091909,34.110536103904806,25.12528916105163
135.1452176982968,53.040064537297766,49.15338929144663,29.506345557898275,74.5479192334256,33.80178892446999,25.10953858287411
134.83971056331413,53.77235840373203,49.09694747650812,29.709443977338555,73.65509348164376,33.45682780696573,25.0924501982768
134.51849064097473,54.504438250802124,49.036083541000444,29.91447908026048,72.77927801293406,33.07727952576755,25.074227414270982
134.1820761714315,55.233983908109565,48.97122363588511,30.120499155376297,71.9217228781694,32.66489112588901,25.05506783862736
133.83084360096672,55.95894886876983,48.90282740369219,30.326512461417867,71.08364787602683,32.22151094446566,25.035165239005533
133.46504609942352,56.677535319699565,48.83136573559774,30.53149836528827,70.26621292681097,31.74907516204504,25.01471415540588
133.0847958596234,57.388122894751916,48.757290040574915,30.734417970904705,69.47049835492628,31.24960098048528,24.993904134640903
132.6900323532958,58.08920102948005,48.68100949485865,30.934217171124814,68.6974958019806,30.725178408170844,24.972906545969632
132.2805217309823,58.779338587868985,48.602878088895274,31.129827182354685,67.94810990966373,30.177955221077156,24.95186899291352
131.8558987811578,59.45721637395379,48.52318819252397,31.320172285529427,67.22316324873604,29.610120547744426,24.93092402951035
131.41573329050226,60.12171166306586,48.44217421477844,31.50418661514365,66.52338827901828,29.023895352624933,24.910200875912725
130.95960858751496,60.771974497986285,48.360033963780936,31.68083197885061,65.849401476516,28.42152927940532,24.889825563181013
130.48719048717206,61.407441628019335,48.276962607395184,31.849106743168427,65.2016707669049,27.805294774191026,24.869910278347895
129.9982493324835,62.02779009589623,48.19317437197763,32.008045519504535,64.58048687228016,27.17747248560718,24.850545468289614
129.49264029426513,62.63286572356964,48.108893783151764,32.15672110305762,63.985949225169165,26.540331876906723,24.831803154376587
128.97028494363522,63.222618225185755,48.024330446348635,32.294255529778425,63.417989925293355,25.896115375419534,24.81374393863098
128.43116442539068,63.79706256020907,47.93966779184594,32.419830652365974,62.87645188496621,25.24702982835832,24.796415942917577
127.87530701245461,64.35626328470379,47.855079679702584,32.53268755561334,62.36118631185222,24.59524063875613,24.779847196219116
127.30277532119337,64.90031828376428,47.77075739542233,32.63212010142924,61.8721030084974,23.942861381346365,24.764043525575513
126.71367010058498,65.42932656679298,47.68691889376741,32.71747488146586,61.40915586772055,23.291938259833078,24.74899763146272
126.1081397298842,65.9433464916177,47.60379915450759,32.788159087528065,60.97230829600405,22.64443495127421,24.734699696243077
125.4863673608336,66.44236214943972,47.52164557007241,32.84364655103293,60.561512761026876,22.002224269412725,24.721136603507038
124.84853135714877,66.92627240823556,47.44072642870415,32.88347605061669,60.17669315897728,21.367090971418786,24.708281746638946
124.19475834221714,67.39489740429175,47.36133311189691,32.90724682093465,59.8177145224811,20.74074294403768,24.696090079980646
123.52508534277072,67.84798099415038,47.28376219627129,32.9146195366303,59.4843488164759,20.12482050200176,24.68450608559452
122.83944409337799,68.28518280465882,47.20828728086823,32.905327660799024,59.17624894541342,19.520897340833425,24.67347470504256
122.13767521197026,68.70607627341808,47.13513364424824,32.879194688719025,58.89293100651085,18.93047790542958,24.662941366789664
121.41955822633159,69.11016324660271,47.064456118409794,32.836143630769534,58.63376117589269,18.354997023898303,24.652842169503092
120.68483175417039,69.49689382066421,46.99631789372064,32.77619475427963,58.39794787137263,17.795818421000572,24.643097997452063
119.93319033384665,69.86567139057459,46.9306754379835,32.69946505786459,58.18454437467155,17.254227342545622,24.633620361935854
119.16426937552745,70.2158417059659,46.86737664723529,32.60617610657988,57.992465957332364,16.73142136620703,24.624320223414742
118.37765232194357,70.5466904339349,46.80617374341602,32.4966573369287,57.82051993401816,16.22850737156317,24.61510718125007
117.57291714170292,70.85746230429321,46.74674362270507,32.37133519826692,57.66743938073494,15.746504844612208,24.605880011798526
116.7496885379605,71.14738002313378,46.688702780073584,32.23071758587061,57.53190677004662,15.286346477039608,24.596520755623146
115.90765230826158,71.41564121479102,46.63161545641109,32.07538557504596,57.412568644491735,14.848870224036832,24.586899410622856
115.04653189076885,71.66140420517165,46.57500687643258,31.905989272499422,57.308053894819096,14.434808240156588,24.57688180065928
114.16605963864406,71.88378765938978,46.5183826306436,31.723237399658558,57.21699552798415,14.044782060399383,24.566329077266207
113.26598127752368,72.08188840185808,46.46124410241727,31.527878616450433,57.13806467606783,13.679305747339892,24.55508946776387
112.34612066379795,72.25479691975428,46.40309581447197,31.32068206069901,57.07003983050763,13.338789197661285,24.54299401789908
111.40647843615163,72.40159574327589,46.34344647393431,31.10242648525069,57.01189442080497,13.023535371025448,24.529863141923002
110.44729004125196,72.52135045174697,46.2818127242159,30.87389981987243,56.96284819564974,12.733734724889255,24.515516344909003
109.46901641446317,72.61311169109946,46.21773384831545,30.63590003875521,56.92235418745322,12.469466092231917,24.4997739469883
108.47232008322831,72.67593231343464,46.15078512430671,30.38922959614329,56.89003946432221,12.230712373793505,24.48245212303643
107.45806515999178,72.70888537790681,46.08057398600649,30.13468833554863,56.86563341949366,12.017386767472939,24.463363283175074
106.42731736112631,72.71107147579747,46.00673222108343,29.873075000260013,56.84890805672507,11.829350805527755,24.442328126358568
105.38131658488265,72.68162739746165,45.92893551866244,29.60519624839373,56.8396465589992,11.666413783919806,24.41919023426561
104.32142640955263,72.61975931011492,45.8469521200875,29.331869273886355,56.83764077356504,11.528322747543427,24.39381987073802
103.2490738768875,72.52479667353033,45.760679194322854,29.053910593473734,56.84269189563431,11.41475407742958,24.366107122630734
102.16569165363285,72.39622913474089,45.67014011635488,28.772119942549455,56.85459276541129,11.325307692645913,24.33595714348743
101.07267773730726,72.2337042419848,45.575463421272204,28.4872716911956,56.87310266789884,11.259500731562776,24.303295037794346
99.97137912544015,72.03700635924783,45.47686547167267,28.200115932382626,56.89793816744291,11.216761152076339,24.268072416329172
98.86308586647829,71.80604202590179,45.374632439208085,27.911380401753103,56.92878374342454,11.196427035878045,24.230264885616144
97.7490169220459,71.54083181981007,45.26909519811832,27.62176532173111,56.9653005717128,11.197755813269707,24.189862973564352
96.63029652246104,71.24149729000781,45.160606812350494,27.331934190290916,57.007116889247534,11.219937866623484,24.14686867595316
95.50793435189595,70.90824238987071,45.04954307913856,27.04251091303001,57.05380910303057,11.262104756826057,24.10130340777809
94.38281756058167,70.54134273163466,44.93633212137693,26.754092194420707,57.10488794185687,11.323330429053938,24.0532177881372
93.25570969663454,70.14115001550122,44.82148893639388,26.467270670432217,57.159791095679395,11.402634335745727,24.002690125160626
92.12725622304885,69.70809813274849,44.705627124622815,26.1826499885787,57.21787570223309,11.498999283445015,23.949814321999085
90.99800921782015,69.24269731414842,44.5894421742473,25.900843800370303,57.27840608990569,11.611405101850083,23.89468977057798
89.86846844387591,68.74552842865174,44.47367875325815,25.622472024427605,57.34053895449408,11.738858543273345,23.837421567689944
88.73910962719322,68.21725881291236,44.359100342101776,25.348163167843726,57.40331945396925,11.880401159652012,23.778125351492353
87.61038203229168,67.65867338832771,44.246468713546975,25.078553658537466,57.46571554671734,12.03510054631589,23.71692552012338
86.4826888876637,67.07069102288554,44.13652407208257,24.814276048262272,57.5266945497383,12.202041570065711,23.653946850862805
85.35637450472257,66.4543539102596,44.02996080264877,24.555941703006916,57.58529234385325,12.380324249458557,23.58931197891421
84.23173324638209,65.81080551952695,43.92741213859146,24.304129179639762,57.64063428710358,12.569062918984056,23.523151550837937
83.10903647447961,65.14127341648359,43.82945514390222,24.059381924595012,57.69192846453537,12.76738078590033,23.45561626754765
81.98855501579169,64.44706233489863,43.73662274182075,23.8222075402684,57.738461062876624,12.974402605844196,23.38687668971782
80.87056063451298,63.729552771986626,43.64940086188872,23.59307023536263,57.77958904457355,13.189254917271588,23.31711222022238
79.75531520443229,62.9901926230766,43.56821068034682,23.372379224944932,57.814730839562706,13.41107734112718,23.246503211691238
78.64308414109149,62.23047937783961,43.49339449573587,23.160483274779185,57.84339032991019,13.639033790038711,23.175235231957743
77.534220252144,61.4519490430123,43.42521463880291,22.957675816386523,57.86522454893215,13.872311901594914,23.103508151998874
76.42930083931205,60.65618148611574,43.36385539682199,22.76420362910211,57.880096817341006,14.110114636785237,23.03153625852799
75.3292320007099,59.84480639146754,43.30941823418947,22.580269647714893,57.888071206159125,14.351654989450575,22.959538038033433
74.23530369927752,59.01949244155968,43.261919561669686,22.406029875287377,57.88938944993714,14.596157139590586,22.887727447504748
73.14925242391506,58.181925878432835,43.22130438333532,22.241593157931803,57.88447881786966,14.84285853231921,22.81631575441745
72.07330585739949,57.33379437261178,43.18747232305945,22.087028481298066,57.873966610532165,15.091006601403224,22.745518848361012
71.01014007094824,56.476779643445276,43.16030142140187,21.942371945060035,57.8586581402254,15.339850797048541,22.675558178437978
69.96277779695576,55.61255012167868,43.139660097366836,21.807623901881588,57.83948684058939,15.588636234775333,22.606653749006572
68.93450826886246,54.74274682507366,43.125415472357545,21.682738695580902,57.81746766261406,15.83660342178306,22.53901995559306
67.92885230836843,53.86896553916626,43.11745007975043,21.56761644081314,57.793656839514234,16.082992580939866,22.472871252688
66.94954666477783,52.992745357111396,43.11567291660064,21.46210141115625,57.76910801252462,16.327047894077683,22.408429640654838
66.00052077304105,52.11557235792069,43.120004400091034,21.365983609547627,57.744839942975716,16.56801879167387,22.34592170766441
65.08584540463285,51.2388944828914,43.130344077931476,21.27899769136247,57.72184660170138,16.805159515785157,22.28556569680303
64.20964486928642,50.36413077803532,43.1465447678311,21.200820083670266,57.70114272003821,17.037730696177412,22.227560951309155
63.37598633733512,49.49266799072032,43.16840532209896,21.131073688962292,57.68379136831216,17.265003788174724,22.172087892520018
62.588765607662594,48.625861361869106,43.19567702657627,21.069344987317784,57.67088053741133,17.48626400065541,22.11931200255218
61.85160217498687,47.76505409112031,43.22806780643591,21.01520301334057,57.66347076725785,17.700808577162196,22.06938045392681
61.16775093126902,46.91159931965704,43.26523650375231,20.968206829960618,57.66254822721349,17.90794418183922,22.022411864673764
60.540031967270835,46.06686000846547,43.30678937370466,20.927901881009255,57.66899463304997,18.106991072129322,21.978490803826453
59.97077686729491,45.23219679269783,43.35229287266412,20.89381656731903,57.683567459762806,18.297296138890108,21.937674018569155
59.46179132054726,44.408985153651976,43.40129469710106,20.865468033728767,57.70688048785226,18.478245779871372,21.900000726068882
59.01433651527151,43.59867316594481,43.45333185953679,20.84237377215714,57.739380500356084,18.649269868934734,21.86549441232282
58.629131708297315,42.802828790543856,43.50792143935634,20.82405762670279,57.78132345192732,18.80984134989682,21.834155787624102
58.30637617582881,42.02313060296455,43.564553375007215,20.810047071865714,57.83275651870315,18.959482130637358,21.805959097057443
58.04578101446723,41.26132192878005,43.62270283232524,20.799870740042294,57.89350820399213,19.097776287447346,21.780859924910477
57.84659700362307,40.51917394854939,43.68185254176364,20.793063115274787,57.96318408966359,19.224379886168244,21.75880697882989
57.7076332934489,39.79846884258333,43.74150054912871,20.78917202318692,58.0411713219374,19.33901955382928,21.739744464717507
57.62727323217787,39.100980671810035,43.80115024422048,20.78776069066029,58.12666069464663,19.441484817115168,21.72360390381259
57.60349240376604,38.42843842810698,43.86030628961002,20.78840249502333,58.218688626377435,19.53162437443876,21.71029764771608
57.63387607112056,37.78248517159344,43.91849251020118,20.79067363807539,58.31619170857537,19.609348438023197,21.69972366325989
57.715635370793635,37.16466151168938,43.975279664554684,20.794151310918657,58.41806621193825,19.674629300801925,21.69177592634717
57.845632575242675,36.57641955917658,44.03030856372207,20.798419230904774,58.52322591436079,19.72749402610647,21.68634716666497
58.020423124417306,36.01913632696238,44.08331297309732,20.80307287886479,58.63064129715389,19.768014444064026,21.683322077136193
58.23630291873275,35.494101939685116,44.134140342166695,20.807717769946183,58.739342913858074,19.79630645658637,21.68257411039323
58.48934363536845,35.00249982912426,44.1827502375258,20.811965054793824,58.84839543762165,19.81254204903793,21.683975020340064
58.77541410169679,34.545400275225994,44.229185285273,20.81543355912026,58.95686327754709,19.816960430505834,21.687407869661122
59.090196241780916,34.12375728986261,44.27353703080632,20.81775948475342,59.063780130628295,19.80986478733625,21.69276922260135
59.42920426114782,33.73839115529394,44.31592661750866,20.818604334786137,59.168139562662134,19.79160931072399,21.699960701763963
59.78782259734556,33.389958979548254,44.35649489306366,20.817653925879426,59.26894929435254,19.762590368926926,21.708882030699883
60.16138061719548,33.078930339685975,44.395385203823494,20.814614193757052,59.3653570870972,19.72324684959544,21.719433133856956
60.54525051689444,32.80558256231971,44.432715384306626,20.80921284069151,59.45676241804464,19.6740621009449,21.73151926124272
60.93492165862493,32.5700124200341,44.46855283051452,20.8012058449608,59.542843910526365,19.615558824270718,21.745049417968744
61.32602638167825,32.37214412536009,44.502911001576415,20.790380492909502,59.623549573504064,19.548287571467927,21.759929087038408
61.71433498337215,32.21172227921674,44.535769621339256,20.77654994657596,59.6991054281324,19.472816815951543,21.776057230900772
62.0957435318396,32.0883000238985,44.56709697646834,20.759543555970087,59.77001173109714,19.38973202772841,21.793333480662145
62.4662657049243,32.00123425685984,44.596853913897455,20.73920401653628,59.8369898425003,19.29964153269826,21.81166863867667
62.82203650602804,31.949685692653958,44.62498270913883,20.715395977711065,59.90089965519579,19.203177199185948,21.830986452390498
63.159329034410874,31.93261647583465,44.65139694335822,20.688015568396708,59.9626612381562,19.100984075694072,21.851216191508605
63.47457865189364,31.948785943157837,44.67598419856357,20.65698964374103,60.02319841843887,18.99370765837905,21.87228881328499
63.764425462164056,31.996753597565913,44.69861919920565,20.622267848129475,60.0834067913387,18.88198890372961,21.89414492204076
64.02579066135462,32.07489670014871,44.71917105173076,20.583819089777194,60.14413167973813,18.766464955542794,21.916745568090356
64.25595936436659,32.18143660965548,44.737496348501416,20.54163761644518,60.206154630045546,18.647766110400543,21.940072018744758
64.452619991356,32.31445888515466,44.753431981929516,20.495750294407227,60.27021381496727,18.526507586173526,21.964114482320188
64.61384944274961,32.47192219547409,44.76680046973379,20.44621441743793,60.33705350756357,18.403287070286833,21.988862432563394
64.73807008970005,32.651667077734615,44.777419328968726,20.39310792987385,60.407448295503215,18.278695143490218,22.01430561747946
64.82400482864698,32.85143747983048,44.7850995256447,20.336523086446444,60.48217207003772,18.15332801941832,22.04044024902604
64.87064384276195,33.06891483587388,44.78963424476926,20.276568968718284,60.561941152709565,18.027787971765992,22.06726820322946
64.87722251380666,33.30175081127136,44.790796913970645,20.213375477947864,60.64737121119005,17.90267150844144,22.094787547085208
64.8431992872448,33.54758712512973,44.78835929943093,20.147089366757527,60.73895819796581,17.778555455409656,22.122985772245645
64.76822721238845,33.80406727966223,44.78211159320868,20.0778643650856,60.83706689387319,17.65598875539647,22.151844845056228
64.65212716491868,34.06885509937606,44.77186223573275,20.00585531522698,60.94191083378212,17.535490708179662,22.181350941489118
64.49487306734002,34.33966194737354,44.75742471590498,19.93122176871625,61.05352761413079,17.41754963569032,22.211494155301093
64.29658622002094,34.61426500807789,44.73861767360722,19.854136116004195,61.171766363074234,17.302616515800757,22.24225826601057
64.05752742498267,34.890505925356706,44.71528655203333,19.7747865863289,61.296306281442085,17.19109640488468,22.273616663046568
63.77808379972165,35.166281712299664,44.68732307007859,19.693372058605732,61.42671325781138,17.083345414944773,22.305542175947313
63.458758680975706,35.439544436974344,44.654658566147155,19.610095137233035,61.56250758565734,16.97967515604156,22.33801792495699
63.10017345235033,35.70831135354923,44.61723705202424,19.525161233917633,61.70319871051972,16.88035753869085,22.371035127836375
62.703078265677334,35.97067364734696,44.57499086695528,19.43878323276389,61.8482737987736,16.785624534006526,22.404581511729713
62.26835587685321,36.22479604793839,44.52783461343606,19.351184384828613,61.997166876057335,16.695668591192483,22.438634452760603
61.79700813506044,36.46891441652547,44.47567360718304,19.262596166389184,62.149245096027414,16.610655660196457,22.473165147112844
61.29013315250081,36.70134160991194,44.41840874394125,19.173255025141756,62.30382286971896,16.530752206711448,22.508144407926615
60.748908419866545,36.920479583831,44.35593173701511,19.0834023224436,62.460184621125755,16.456148120869052,22.543538181977297
60.174585193184456,37.12482633553785,44.28812762535443,18.993287951359722,62.61761423322497,16.387058227577995,22.5792957131306
59.56849166413503,37.312974014774916,44.21489455394855,18.90317280811764,62.775445014121516,16.323707349016033,22.61534452679309
58.932057196868115,37.48361052405776,44.13616266836829,18.813323898647152,62.933104498773105,16.266315317500933,22.651598947700787
58.266875088313,37.63553770638589,44.05189256358854,18.724004046552395,63.09011760455474,16.21508978859678,22.687971540249574
57.57477712556624,37.76769794268644,43.96205948590056,18.635466036269225,63.246074440974546,16.17022270640329,22.72437374023447
56.85786236533713,37.879186600073346,43.86664377844205,18.547955623386475,63.40058658778137,16.13188345604953,22.760708337409213
56.11846425301145,37.96924433950809,43.76563755636994,18.461715767401426,63.55324774180173,16.100208366652456,22.79686885662055
55.359088516853674,38.03724627951046,43.65905610557243,18.37698338600716,63.70361898112764,16.07529300051736,22.832751496447603
54.582352953773466,38.082701677935184,43.54693896813035,18.293981278912486,63.85125271150161,16.05719243996826,22.868266408819043
53.79094099030187,38.105257761601216,43.4293473050736,18.212916410824917,63.995733294191616,16.045926508139676,22.90333455660981
52.98756741598124,38.10469457134848,43.30637069745283,18.13398964670439,64.13669250649036,16.041481510858077,22.93787488179483
52.17494572849867,38.08091109618446,43.17813486310078,18.05740680230195,64.27378588226007,16.043805080747596,22.97179760985782
51.35575118525807,38.033917162571115,43.0447938346312,17.98337810046847,64.40664932586029,16.05280093958558,23.005010140139632
50.53258744744154,37.96384021148418,42.90650834764306,17.912108160141536,64.53486454674153,16.06833469862345,23.03742485201982
49.70796823208716,37.87093640415559,42.76342445521356,17.84378980424458,64.6579601445431,16.090251039694973,23.06895655809205
48.884313023030394,37.7555892237609,42.61566003678896,17.778607999980732,64.77545037576952,16.118387310543497,23.099513046124134
48.063942014589735,37.61829410456223,42.46329626463252,17.716746174197077,64.88687125788582,16.152573131385886,23.128992751672538
47.24906159545931,37.45964250048778,42.30637412408586,17.658385140484256,64.99177717324861,16.192622529614276,23.15729520921345
46.441753364449404,37.28031405976312,42.14491303198554,17.603696279569604,65.08971640526391,16.238327990005203,23.18433281327637
45.643982508951225,37.08106962504755,41.97896179255888,17.552839762414482,65.18024016787845,16.28945728691258,23.21003016343392
44.857616183229084,36.862736671040686,41.808652520295546,17.505972876974425,65.26296426659047,16.345749835339824,23.23431341594735
44.08442780764658,36.62619401801574,41.6342186945907,17.46325859198943,65.3376296392871,16.40691126591037,23.257105074556684
43.32608183293953,36.372369277831545,41.45597537854421,17.42486399187087,65.40410433027905,16.472608861067293,23.278332931256426
42.58411559783659,36.10224868470475,41.27428424802254,17.390954654382494,65.46234183952573,16.54247351465047,23.29794254053456
41.85993219642671,35.81688241297472,41.08952235737134,17.36169528317533,65.51235136708961,16.61611000993294,23.315897718835114
41.15480063758574,35.51737410164185,40.902064097267484,17.337253527615058,65.5542028771929,16.69310798818148,23.332170704946872
40.46985120357294,35.204862727648816,40.71227328547705,17.317797928608638,65.58803727638947,16.77304546502195,23.34673718255379
39.80606368086244,34.880513777929586,40.52049446453743,17.303487847772598,65.61405560012966,16.855486772811712,23.3595826669578
39.16425997516831,34.54553000704673,40.327050349489156,17.294459878383403,65.63251555627474,16.939983332455014,23.370709108189033
38.54511233395072,34.20117234676485,40.13227683142269,17.290818007326532,65.64376207911408,17.026082301193803,23.38013043676576
37.94916224451892,33.84876722492754,39.93659824799118,17.29263299805926,65.64825425396369,17.11333826582081,23.387861726274387
37.376832646844235,33.48969333391242,39.740587069159155,17.299947849807886,65.6465471024592,17.201318016806553,23.393914981801252
36.82842685042572,33.12536813103129,39.544975082833496,17.312780155968586,65.63924418102184,17.289596076259787,23.398306370203233
36.30412727792454,32.75724806666009,39.35066789601028,17.331117446706212,65.62695191144556,17.37774859134344,23.401065073159103
35.804003805831584,32.38682745410145,39.158807518114386,17.354909221477676,65.610243569924,17.465352788189005,23.402231921604027
35.32802149705878,32.01561882233121,38.970831989841514,17.384060660608693,65.58963020166074,17.551990855603982,23.401849973859637
34.87603683399102,31.6451241122542,38.78846210037395,17.418429765036347,65.56553492280379,17.63725183819891,23.399959514159967
34.44778785680448,31.27681754388736,38.61362208995211,17.457825505512737,65.53827324230708,17.720728228684106,23.39660351797935
34.042888022210626,30.912142882533892,38.448343869895226,17.502004858472095,65.50804715339486,17.802012236893304,23.391834924131516
33.66082578238753,30.552508937880805,38.29468542757953,17.55067243568686,65.47495068967945,17.880703521415867,23.385714004561834
33.30096641142613,30.199273931556824,38.154670002827494,17.60348988389965,65.43897430001155,17.95643210052719,23.378297691993023
32.96255347956281,29.853728228739715,38.03023824573231,17.66009531134388,65.39999869166233,18.028880362195295,23.36963458560609
32.6447140898818,29.51708688694137,37.92320235431462,17.720120974722743,65.35778140603209,18.097787658226572,23.359772673256867
32.346479151338976,29.190489832442143,37.83520027218658,17.783198554991717,65.3119505813774,18.16294150187686,23.34876903459942
32.066822319155236,28.874998945161416,37.76765533849039,17.848957607828886,65.26202448184067,18.224168778511565,23.336687981201205
31.80470042830889,28.571585803122492,37.7217502110254,17.91703107509869,65.20747931857994,18.281331558769605,23.32359059713717
31.55907659867686,28.281112887700864,37.69842813055397,17.987069175052834,65.14786547180947,18.33432224717081,23.30953017505333
31.32893408408785,28.004318799009887,37.6984256124786,18.05874836879478,65.08291516430691,18.383053649311808,23.294559725331084
31.113305061846653,27.741822398874927,37.72231873192388,18.131766927340482,65.01257782005702,18.427446951956334,23.278740673479145
30.911316073645374,27.494147966961297,37.77055868494868,18.20583382820294,64.93698795806212,18.467424305659478,23.26213977223868
30.722225173919544,27.26174911878516,37.843483032731335,18.280662695239155,64.85641995440056,18.50291071686723,23.24481739215762
30.54543391837899,27.04501143259938,37.94129981888581,18.35597430084339,64.77126319253823,18.533842558803194,23.226822392314695
30.380475752353703,26.844241896782847,38.064067141756034,18.431500600100648,64.6820056313121,18.5601729324055,23.20820099052219
30.22698724349862,26.65966423036452,38.211725559956584,18.506982497730213,64.58920492229761,18.581868527863048,23.18900877768097
30.084673846464405,26.49142307509016,38.384206155525696,18.582163760978915,64.49344735487854,18.598903657868235,23.169311534346697
29.953287179187075,26.339585404458017,38.581537872620316,18.656791650209435,64.39530418845061,18.611259395703193,23.149176746057385
29.832625586415908,26.20413375200996,38.80388127279281,18.730627628535412,64.29529611081689,18.61892729770933,23.128670264063373
29.722552017545205,26.084960953200547,39.05153813299491,18.803456759048615,64.1938781342114,18.62191043118494,23.10786507354855
29.623005467958148,25.981875105752078,39.32500741007346,18.87508501814685,64.09144325622842,18.62021852202495,23.086851516184595
29.533989004808785,25.894607860897864,39.62505299187092,18.945328542700004,63.98833032255225,18.61386217758968,23.06573509296343
29.45554044535382,25.822814404733293,39.95273035645435,19.01400650264344,63.88483738784521,18.602851875570824,23.044623880271235
29.387701540977503,25.766067153160208,40.309383012896284,19.080942886186946,63.78125478184679,18.58720126992085,23.023620276712194
29.33050015302287,25.723857657730456,40.69663505007635,19.14597065714292,63.677905802051505,18.566929628829268,23.00282496090632
29.28395540209942,25.695614209687776,41.11642610592876,19.208929380947097,63.575159819613546,18.54205959259364,22.982344378185427
29.24809768022319,25.680723357611576,41.571108265434304,19.269659189754606,63.47341174218783,18.512611964509873,22.962289862480578
29.222978074900425,25.67853899865911,42.06349789116495,19.328003516538605,63.3730614159235,18.478603187620983,22.942769667139597
29.208654196607046,25.688379189696242,42.59679202574075,19.383823812181603,63.27451159620122,18.440049397614974,22.923886043358117
29.205166056487364,25.709525100418436,43.17441904228583,19.437012529281283,63.17816186708701,18.396974689279517,22.90574407050651
29.212522269891604,25.741231675905194,43.799907456700176,19.4874922486533,63.08437945549903,18.349417116708715,22.88846232868238
29.23070132158376,25.78274189462599,44.47677000091965,19.53520551618501,62.99346391865274,18.297429203491575,22.872171056063795
29.259658492179078,25.833289665832876,45.20842480174026,19.58010809262973,62.90562905037485,18.241076791132613,22.85699943107071
29.299334319866606,25.892091410659457,45.99823004734068,19.622171731334724,62.82100195677846,18.180442357513023,22.843067873984417
29.349666742638536,25.95834160085974,46.8496050831677,19.661389793993578,62.73963056404098,18.115632445340925,22.830493925121942
29.410600742043624,26.0312223527464,47.766076788634294,19.69777517964682,62.66149781964629,18.04678124423745,22.81940056564293
29.4820868267386,26.10991948839159,48.751166912019144,19.73135023956492,62.586533861425394,17.974046199193495,22.80991202272593
29.564069476335412,26.193632377180936,49.80819720336982,19.762137092913363,62.514614594011704,17.89760338772821,22.802139294630763
29.65647856426136,26.28158219359739,50.94010937522583,19.790153995251263,62.44555819576553,17.817651427700195,22.796171091320712
29.75923799295538,26.373033896227728,52.14933652023192,19.815415499836472,62.37913414545177,17.734419266690377,22.792078309706888
29.872284158473303,26.467326548735738,53.43772628182847,19.837930844914048,62.315072078917325,17.648166670862572,22.789921908523443
29.99557069837606,26.56388764702742,54.8065036898736,19.85769930672794,62.253063634909346,17.559175726985373,22.789750970890488
30.12905462669499,26.66222675180655,56.25625570408463,19.8747080464722,62.192776059204604,17.467740543345084,22.791592940179104
30.272685385164827,26.76193095330438,57.78691136742487,19.888938814500097,62.13387722746925,17.374161597739317,22.795448900318
30.426415285263555,26.862674834469622,59.39770723182691,19.90038041643971,62.076045455973066,17.27874531450127,22.801300393585315
30.590222333447066,26.96422914224204,61.08715756579285,19.909035906169752,62.01895725011579,17.181802890048886,22.809118919086988
30.76412146324143,27.06645082596737,62.853049032781556,19.914920189359158,61.96226865623725,17.083642960138338,22.818866089562302
30.948156173594793,27.169260126001063,64.69246968362465,19.918055111988885,61.90559623567904,16.98456139522932,22.830486715244277
31.142384572685753,27.272618404050604,66.6018651934061,19.918470563829906,61.84849421234203,16.884837194688387,22.843907899911827
31.346870554662445,27.3765088298842,68.57709195968981,19.91621127397469,61.79043103250592,16.78473858174745,22.85904944132047
31.561672268948485,27.480925949591775,70.61346313781003,19.911339991582853,61.730774922947056,16.684532440309315,22.87583461638373
31.786821817511704,27.585895683197684,72.70580955151777,19.903931142702643,61.668796262928815,16.584486824246138,22.89418890309725
32.022304812296895,27.69152624835979,74.84854329489713,19.894060605760345,61.60368242453643,16.484865725244056,22.91403064101153
32.26804632287232,27.798051089168975,77.03571804643246,19.881800757612165,61.534549117422486,16.385925054333274,22.93526950309647
32.523903302911826,27.905834172018345,79.26111925698889,19.867222484174164,61.46044054415588,16.28791685630472,22.957818960296173
32.78966237947927,28.015344042574043,81.51837126380445,19.850397560243902,61.38032718120522,16.191098263348767,22.981609109835954
33.06503564252888,28.12711327802168,83.8009993306157,19.831395195365364,61.29311140540594,16.095736015499465,23.006584800030858
33.34965009544366,28.241703169387,86.10243656755405,19.810275642975395,61.19764104068297,16.002103197897206,23.032693129399295
33.64304088991947,28.359702347800667,88.41601644125005,19.787090334897055,61.09272653539796,15.910473454750125,23.059877116517683
33.944656413796054,28.481767959551455,90.7349677280944,19.761891001380537,60.977164954147455,15.821119459882901,23.088083322451475
34.25386563037754,28.608670660276925,93.05241386054298,19.73473783718269,60.8497774282762,15.734316228588298,23.11727192098981
34.5699546470895,28.741299114278377,95.36140701491615,19.705698069586727,60.7094536973359,15.650342618871429,23.14741381819702
34.89211454149298,28.880632274338996,97.65500778316641,19.674838741290923,60.555185914228595,15.569475083654888,23.178476433037403
35.21943526834175,29.02771414168809,99.92635881997974,19.642223969566736,60.38608056806185,15.491975877535777,23.210413885690304
35.55091845742895,29.18363385775645,102.16872364461602,19.607921187540878,60.20135361239135,15.418083584939257,23.24317072033666
35.88550445163636,29.349492536542837,104.37552802635068,19.57200918311242,60.00032530040316,15.348011546317371,23.276690256293627
36.222092859781476,29.526359401541487,106.54041315270752,19.534578376966056,59.78242495110218,15.281952367176649,23.31091411721873
36.559545629121665,29.715240133478986,108.65725638356774,19.49572528835489,59.54719647708245,15.220081500953555,23.345773626915655
36.8966848226582,29.917067275060145,110.72014357403246,19.455551009797507,59.29429188921998,15.162555417890298,23.381184888322473
37.232297851923086,30.132695710331674,112.72332397187374,19.414166084733488,59.023464084645596,15.109507565353697,23.417052796713243
37.565144326727115,30.36288305203991,114.66118160936297,19.371693875742846,58.73459076087713,15.061048569914973,23.453275249547815
37.8939544451573,30.608255426459014,116.52823720190983,19.328266125200205,58.42773224244013,15.017270861076595,23.489737979444445
38.21742412143472,30.86927194939188,118.31917018423529,19.28401288778011,58.10318961953856,14.978251418253537,23.52630360735971
38.534224151823096,31.14619989417873,120.02883768580381,19.239053463065748,57.761585636463565,14.944048886497052,23.562807036529755
38.843031182809405,31.43910991602264,121.65228142613523,19.193493187928038,57.40404011701785,14.914698193317971,23.599062367690685
39.142565817541936,31.747889015807186,123.18474054927468,19.147424268117987,57.03239290597337,14.890209064188058,23.63487235549373
39.431617872628905,32.07225535664963,124.62170513840093,19.100924353325368,56.64931152566431,14.870570205859869,23.670028962594557
39.709056075718564,32.41177126522119,125.9590138647871,19.054051144869643,56.258216239883396,14.855752645399784,23.704306390934377
39.97383582445696,32.76586363013886,127.19293500965064,19.00683956803154,55.86310236672815,14.845706111557844,23.737458958179648
40.22501208443398,33.133843771482596,128.32018079634025,18.959309367980172,55.46835273579184,14.840351450447619,23.769230714382704
40.46174454967868,33.51491178106673,129.33788275329542,18.911481090027088,55.078578566906266,14.839577553255058,23.79936745108118
40.68328712526859,33.90815123932462,130.243569985283,18.863387783703057,54.69849204677488,14.843247065534257,23.82761800525597
40.888977333583654,34.3125279753499,131.03515010634234,18.815074599619212,54.332797274775984,14.851205807140586,23.8537265432084
41.07823824959367,34.72689258814365,131.71088826105213,18.76659364152909,53.98608943585802,14.863287357436677,23.877429822371283
41.25058312473826,35.14997939691223,132.26939448547148,18.71800531516628,53.66276918280146,14.879310652653096,23.898467112624644
41.40560946974856,35.58040132295048,132.7096213965135,18.66938534789238,53.366977480396706,14.899076817849588,23.916593241557205
41.54298376943322,36.01664958580313,133.0308747163903,18.620827355918873,53.10253812711794,14.922372494556157,23.931581227164596
41.66242960930911,36.45711282481201,133.23283882399346,18.572437106272325,52.87289678232193,14.94897802513065,23.943215952725357
41.76373108010676,36.90011772758235,133.31559160255136,18.524326447834188,52.6810641745055,14.978671481166538,23.951292555135062
41.84674610830683,37.34396739624297,133.27958693564213,18.476616002095582,52.52957760786276,15.01122477148361,23.95562667368566
41.91141026125686,37.786956974000034,133.12563013489327,18.42944426061631,52.42048308527319,15.04639702623314,23.956066871430036
41.957726146337805,38.2273748493156,132.85487640737134,18.38297211006065,52.355329726668074,15.083932126264925,23.952495720770905
41.98575783341829,38.66350690673538,132.46883698117577,18.337377150648273,52.3351758576905,15.123562122133508,23.94482104866241
41.99564363094297,39.09364881779896,131.9693635298012,18.29284273897837,52.36061079763045,15.165011089744306,23.93297119923779
41.9876109469614,39.51611837893686,131.35861669957737,18.24955102890621,52.43178113560206,15.207993202146906,23.91690122263477
41.96197124032627,39.92925851794638,130.63904056541827,18.207684264942834,52.54840887221511,15.252206680590543,23.896600399559095
41.91909967159375,40.331432549704566,129.8133407014932,18.167428175395248,52.70981089581871,15.297331695597583,23.872089046524522
41.859421510993485,40.721020425122916,128.8844514739916,18.128968342591442,52.91494562657567,15.343036570186898,23.84340700602852
41.78341398957919,41.09642160654536,127.8554945643793,18.092479139394264,53.162501018969174,15.388986612685143,23.810607449387746
41.691610096930205,41.456064306799924,126.72974300709697,18.058113434864246,53.45099406695777,15.434847103983943,23.773763909622723
41.584589616029355,41.79841560926881,125.5105975915871,18.026001926218044,53.77882750072361,15.48027985179507,23.73298173441713
41.46296187133218,42.12198837350772,124.20156829082846,17.99626387359036,54.14428768410225,15.524939314028346,23.688399368012757
41.32735564861348,42.42534948353808,122.80625248554355,17.969020183688063,54.54551477423318,15.568476855640553,23.640178293091502
41.17841971327612,42.707134069865624,121.32831592929301,17.94439666044988,54.98047698793313,15.610563494125339,23.58849402159509
41.016821642719925,42.966058802117395,119.77149074434111,17.92251537061677,55.44695489425221,15.650928395452421,23.53353863996373
40.84323538542142,43.20092510026722,118.13959110477515,17.903481877428526,55.94252728259588,15.689387954660742,23.47553108808653
40.65832252690003,43.41061539344903,116.43652622701931,17.887373811502616,56.46455603999352,15.725847496417256,23.414721480740276
40.46272025794703,43.59409444499265,114.6662931173799,17.874230224121124,57.010178140179484,15.760287140013904,23.351384626489004
40.25704194044996,43.750421800644425,112.83295406983893,17.86404126976696,57.57631544401283,15.792748720980882,23.28581401408029
40.04188104910955,43.87876668556596,110.94061465150415,17.85674218659633,58.15970287104155,15.823324689356006,23.218326812968996
39.81780670382557,43.978412387443775,108.9934119149386,17.852218804542282,58.75691961772949,15.852143755179062,23.14927245349369
39.585353784732035,44.04875177407696,106.99551059280128,17.850325936904785,59.36440853675542,15.87935463612333,23.07902944154722
39.34502263208963,44.08929074426389,104.95109568952537,17.850907058599578,59.978488513951476,15.905115289796578,23.00799095805999
39.09729444567012,44.09966788930693,102.86435709301699,17.85380305680252,60.5953773088265,15.929591266290489,22.936556150549464
38.84264758392094,44.07967338547052,100.73947754395836,17.858851914278844,61.211231324370566,15.952956510475968,22.865135134838127
38.58155818575377,44.0292470232238,98.58063113331613,17.86588845148496,61.82218896675251,15.97538774197367,22.79415450693534
38.31448973512286,43.948461815533385,96.39198147632871,17.874746837046548,62.42440375851802,15.99705328036681,22.724049735658326
38.041888948403006,43.83752145140894,94.1776738255293,17.885261393545736,63.01407284715476,16.018105798252282,22.65525020594655
37.76419339549074,43.69679264599051,91.94184402924556,17.897262214148817,63.5874719258805,16.038684647313872,22.58817340943628
37.4818378615746,43.52685600269149,89.68866893330917,17.910568665379156,64.14098997260405,16.058921496983412,22.52323319355853
37.195248592254124,43.32853170700954,87.42243539580949,17.924988880259754,64.67115108082969,16.078939509898003,22.460847001365615
36.90483099849665,43.1028644485101,85.14757205208099,17.94032944675055,65.17462457233077,16.098845638851714,22.401427651402336
36.61096051192398,42.85109658913405,82.86862472427524,17.956407430016476,65.64823552170222,16.11872463684287,22.345366289812347
36.313979173978474,42.57465470737785,80.59021072728052,17.973052844344195,66.08898840919097,16.13864109074132,22.29302333869496
36.014196178946975,42.27513960807074,78.3169888409041,17.990101520498538,66.49410345237602,16.158645143128847,22.24473183258392
35.71188908800679,41.95430068874123,76.05364356967016,18.007390415391953,66.86104589043119,16.17877328474478,22.200801071656663
35.407302752538925,41.61399588473356,73.80485958328397,18.024764613848667,67.1875334287894,16.199043229363433,22.161510326618274
35.10064803986385,41.25615242952874,71.5752771548515,18.04209049363266,67.47153491786828,16.219449486482116,22.127098482093665
34.79210897758295,40.88273777502887,69.36944463792648,18.05926148312254,67.71128028717384,16.239965835189604,22.09776276410707
34.48186248091824,40.49573636834111,67.19178713347092,18.076194261454024,67.90527646425092,16.26055408554668,22.073668861448233
34.17009919522077,40.09712287190585,65.0465902067603,18.092828574229674,68.05231414932919,16.281171466265114,22.05495935794953
33.85703063839827,39.68883141197819,62.93798326236297,18.109138234850974,68.15147354682075,16.30177053943142,22.04174901026328
33.54288513851448,39.27273063811815,60.86992439110231,18.125141137513157,68.20214283698488,16.322295191702903,22.034113188188737
33.227908748392984,38.85061182357502,58.846202914708385,18.140894428227146,68.2040353335771,16.342682305500922,22.032085597223038
32.91237721179332,38.42418648245692,56.87045076022967,18.156479771284502,68.15718180542338,16.36287169943257,22.03566947629397
32.59660518218929,37.99508518244854,54.94613414745782,18.1719934907548,68.06190438464829,16.382814651084228,22.044847572867305
32.28094038923153,37.56485385757213,53.07651974245713,18.187546531671337,67.91880282385198,16.402472166216793,22.059577696190594
31.96575098895412,37.134953724563466,51.26463483136603,18.203265511212596,67.7287635020697,16.421806662919302,22.079780803589717
31.651421480579714,36.70677540438914,49.51324087942186,18.219285820275868,67.49296891553374,16.440777500736893,22.105338677800674
31.338357681168553,36.28166263627266,47.824827818021305,18.235739294499318,67.21289067065898,16.459344605713216,22.13610574241903
31.026987454806516,35.86092362168981,46.20162021164449,18.25274647179051,66.89027149627971,16.477473359408894,22.171921270555753
30.71775061115481,35.44582081501157,44.64557663982027,18.27041801747339,66.52710450125014,16.49513311859173,22.212608991766583
30.41108864047869,35.03755927193362,43.158375858942975,18.288858196598444,66.12560738304138,16.512290967802212,22.257968745064346
30.107446927965245,34.637300291835665,41.74140099878132,18.308161429851857,65.68818238069493,16.5289068423072,22.30777495178656
29.807283971311787,34.246197202402335,40.39573523795921,18.328403274424748,65.21736436148005,16.544932709912878,22.36178721162836
29.51107040920179,33.86541806373285,39.12217554257587,18.349633938218716,64.71579146522,16.560313331885972,22.419761284720806
29.219276602635663,33.49613745181116,37.921257735840854,18.371878876169692,64.18624468861117,16.574984520494844,22.48144788624243
28.93236961659403,33.139523255082636,36.79327581511718,18.3951430152505,63.63174112195593,16.588868993012415,22.546583060275182
28.650831032656164,32.79674110331947,35.738290330596065,18.41941125468389,63.055590811358314,16.60187482444888,22.61488419727378
28.375176101539957,32.46895869735856,34.756133296288624,18.444643504196616,62.46136628907884,16.61389945348884,22.686057255426405
28.105950975599562,32.1573266352254,33.846409030249966,18.47077093307068,61.85282707540332,16.624835051940277,22.759804355488257
27.843712581756854,31.86294130865935,33.00848929720347,18.49770075306995,61.233846063309784,16.634569237271876,22.835820325517858
27.58901237946625,31.58680777831138,32.24151507878958,18.525329261914237,60.60833943034796,16.642980630184862,22.913784100612812
27.342393166656933,31.329811195931942,31.54441424076852,18.553554640571637,59.980197234150275,16.649933686336276,22.993360997137223
27.10438844912387,31.092697421808406,30.915923416773502,18.58228052312322,59.35322732140965,16.65527738332492,23.074219667080758
26.875511847839803,30.87606295653846,30.35459677227622,18.611411022922812,58.731116588469696,16.658847914859344,23.156048147838117
26.656239643659728,30.68035548630311,29.858802220325412,18.64084848926507,58.11739705693654,16.66047070454362,23.238554258361887
26.447001719595832,30.505885238330837,29.426722036501047,18.670500846651823,57.51541312076704,16.659959007670967,23.321454964439095
26.248187663783195,30.352842502898007,29.056368383281868,18.700289174632676,56.92830419993619,16.657113567422275,23.404470470682913
26.060154460511114,30.22130942183549,28.745603501157515,18.730144102644726,56.359009561663896,16.651730470563244,23.487329592971626
25.88322073344011,30.11125967662976,28.492149343320886,18.75999530099937,55.810279178175584,16.643616515250695,23.569776120683695
25.71765379335413,30.022561675614554,28.293592690506003,18.789766765583398,55.28466719293208,16.63260122644752,23.65156449829579
25.563670708323585,29.9550045380693,28.147411461552284,18.819381255975824,54.78450355258621,16.61853764740129,23.732449034798215
25.421461930454782,29.908335116860567,28.05103061648586,18.848765225196612,54.311863756639475,16.601296512240985,23.81218157241964
25.2912170776426,29.88227389571996,28.001875880955904,18.87784675270482,53.8685532181856,16.58076336705893,23.890523287533387
25.173128170278655,29.876500122129716,27.99739163466849,18.90654983724641,53.45610024023671,16.556842470898886,23.967257525371565
25.067371819801608,29.890627171127292,28.035029963526377,18.934794086339043,53.07575406681812,16.529463031793394,24.042188886629223
24.9740898562451,29.924192923024798,28.11224080679567,18.96250220711502,52.728503175456844,16.498580987940144,24.11513218137031
24.893384482763818,29.976669015573044,28.226476925056097,18.98960669034171,52.415112953464984,16.464175066435036,24.185906846572518
24.82532810735001,30.04746971266688,28.37520188119513,19.016047181599724,52.136152442152934,16.42624228229124,24.254342829600187
24.769971729452,30.135944946243548,28.55588700717079,19.04176056687482,51.8919949258413,16.384798458139976,24.320287057546505
24.727340097007296,30.24136647499369,28.76600384387309,19.06667260736151,51.68280870973466,16.33988281243732,24.383599295403823
24.6974211807283,30.36292989453697,29.003028672863408,19.09069831440376,51.508553785454374,16.291559534023538,24.444140903497267
24.680161382763476,30.499784674697626,29.264460433871943,19.11374987207578,51.36898464997745,16.2399129164554,24.501768973201685
24.675463654777722,30.65107414773666,29.547835770547124,19.13574327497648,51.263652216917016,16.18504285049976,24.5563416024249
24.683179405222308,30.815953421672575,29.850728921580778,19.156598519836123,51.19189894685235,16.127070550527833,24.607725677256568
24.703095268517227,30.993580307290685,30.170742272941506,19.1762377816857,51.15284782033481,16.066152907054732,24.655796541886513
24.734926007723185,31.18309984003838,30.505503594630387,19.194588070481608,51.14538999222104,16.00249152884469,24.70043254306377
24.778322242367576,31.383632829567905,30.85267682977211,19.211587359120582,51.16817688395338,15.936328705115614,24.74151591667952
24.83288709829515,31.594263629187992,31.209974595693268,19.227186387337095,51.21962811793239,15.867938532777199,24.77894249121615
24.89818541690409,31.814025533225745,31.575158359676244,19.241343510260904,51.29797311165089,15.797625445597287,24.81262825240154
24.97373987727288,32.041891227043074,31.946029538641874,19.254021943970663,51.40132357776691,15.725730658404485,24.842502520845894
25.05902590729762,32.27678022551571,32.32042734054111,19.265200246769453,51.527740485945934,15.652634747922347,24.868494110517886
25.153475104726216,32.517585147856146,32.69624248097754,19.274891771553204,51.67527322075786,15.578748854305136,24.89052676880113
25.25648141138894,32.76319699148185,33.07143633120645,19.283155890252704,51.841984490597405,15.504501441409657,24.908530811189884
25.367400416718993,33.012511043501334,33.44404846367772,19.290093586557923,52.02596659544863,15.430332055263964,24.922458150347264
25.48554326774042,33.26442206920853,33.81219459429258,19.295838578270196,52.22533901685268,15.356693445232105,24.932284240838136
25.610177053870856,33.517826177689365,34.174071884353246,19.300556820080736,52.438233556464695,15.284051638557603,24.93799888425247
25.740539341041277,33.77162801271059,34.52797461109634,19.304452269410373,52.66278696304958,15.212876051849415,24.939601902925634
25.87585714813179,34.02474001734759,34.87230337195611,19.307765291931247,52.897146907284714,15.14362514481408,24.937111382894905
26.01535422439881,34.27607081834012,35.20555662514753,19.310758542988307,53.139475673707004,15.076738566049542,24.93057415669375
26.15824638265978,34.5245136582861,35.5263163266722,19.31370205145505,53.38793993637179,15.012637986156177,24.920065713102197
26.30373790265321,34.76894691923093,35.83325307886569,19.31686967662669,53.64069863772137,14.951728372347587,24.9056813136477
26.45102730929607,35.00824660304716,36.125162775992926,19.320543133491245,53.895904918222755,14.894393914424057,24.88753049235326
26.599319112369287,35.24129743734025,36.40101143074183,19.325010054426688,54.15171888566827,14.840994400076454,24.86574089405113
26.74783224092039,35.466994989784595,36.6599532522925,19.330551380525186,54.40631743262306,14.79187042117752,24.840462332437063
26.89580672855539,35.684248976271576,36.90131856136402,19.33742676466421,54.65789476364826,14.747354476446628,24.81185942217615
27.04252455904454,35.891996860859585,37.12459136795935,19.345867424587976,54.90465945539229,14.70777638941501,24.78009648878446
27.18734519281652,36.089218729417894,37.32938771752065,19.35607590167672,55.14483841672454,14.673457613117883,24.745330385729794
27.329728553246206,36.27494427823003,37.515439677267736,19.36822512026984,55.37668782434994,14.644699402323964,24.707717882476015
27.469228194835015,36.44826433620973,37.68259087892393,19.382452722121542,55.598499453827586,14.621772561243347,24.667424924717928
27.605469518698392,36.6083620995688,37.83080092827047,19.39885479266748,55.808598040386926,14.604912198405865,24.624623435383743
27.738133983747954,36.75455022045654,37.96014833163425,19.417486012014912,56.005338317312464,14.59431438622617,24.57948002498137
27.866952239536136,36.88628469525177,38.07082270028219,19.43836644130802,56.1871087975935,14.590130405214015,24.532152921169796
27.991696097322407,37.00314902474013,38.16310308715578,19.461485922795443,56.352339411902214,14.592460107140703,24.482802837600936
28.11216384662841,37.10482782454628,38.237330581269916,19.486801749023712,56.49950488437778,14.601350682020625,24.431604185324304
28.228166345308296,37.191093736226286,38.29389288362009,19.514239309264,56.627121219075356,14.616803291682922,24.378742129250874
28.339526576755542,37.26181644998862,38.33323268879228,19.543703175569348,56.73374289018439,14.638780364325422,24.324399888279974
28.446093585532147,37.31697693062672,38.35586755925858,19.575089089189564,56.817968139789336,14.667204945355019,24.26875332173906
28.547753394018265,37.35666711529293,38.362394771032754,19.608284974219064,56.87844866238946,14.701953214297717,24.211980222241916
28.644422609712745,37.381084142270765,38.35347842836378,19.643162856215096,56.91389472927167,14.742847974354778,24.154271822694128
28.73603395247261,37.390538242054106,38.32984755952927,19.6795705652679,56.92307570020122,14.7896583941926,24.095831668906698
28.8225342511242,37.3854656860927,38.292318001267546,19.717328859486194,56.90482638152487,14.842104515666193,24.036864586985946
28.903898190607283,37.36642328472951,38.241808274853824,19.75623346685524,56.85806629676699,14.899861165732997,23.97756966727852
28.980137584588707,37.33406209705619,38.17932238379432,19.796056673758574,56.78182587380262,14.962559612786588,23.918143417364547
29.051291498617733,37.28909698150746,38.105912297506336,19.83654489662021,56.67526773056623,15.029792556211648,23.858784383406615
29.1174063119696,37.23228606822211,38.02264799553069,19.87741630767837,56.53769780629858,15.101127757511392,23.799688318932
29.178521052229293,37.16442390524344,37.93060702120607,19.91836752384312,56.36857060822115,15.176124459508836,23.74103626365937
29.234663398949085,37.08633905335997,37.83087278753489,19.959090990605578,56.16749323502277,15.254340441130973,23.68298856444304
29.285851910147137,36.99888243201163,37.72452282050108,19.99929078190385,55.93422509006952,15.335327126340147,23.62569144746077
29.332096262816318,36.90290638018159,37.61260666877939,20.038685589114024,55.66866867194483,15.41862168996393,23.569286278441414
29.37339493522151,36.799244202414044,37.49613241750243,20.077002552474045,55.370855423081714,15.503745957833123,23.513908125801805
29.409742905308825,36.688692773346375,37.37607102915686,20.113972802592343,55.0409382396802,15.590213885023898,23.459674944810278
29.441156458268836,36.57199498781066,37.25336378665288,20.149333764635948,54.67919633915168,15.677539702128914,23.40668095626788
29.467697410412526,36.449826090389294,37.12891426332031,20.182833696956493,54.28604282340853,15.765239036252757,23.355001709196493
29.489475121013843,36.32279808533267,37.00356551624038,20.2142313400683,53.86202279534358,15.85282497543277,23.304702106362637
29.50663096552035,36.191486311564034,36.878078794349676,20.243289958883736,53.407801625188405,15.939806328084794,23.255835612772678
29.519326469020353,36.056455372386644,36.753128272280435,20.269771797294457,52.92415174933436,16.02569260411701,23.208436834627406
29.52774381795952,35.91826132360568,36.629310648253345,20.29343893823053,52.41195002026392,16.11000387108699,23.162520344799546
29.532087774147996,35.77743700853988,36.50715674237362,20.31405911740692,51.872188995708065,16.192278465847515,23.118091549161782
29.53257702889686,35.63448353496336,36.38714713776914,20.331409255193748,51.30598693195826,16.272074352276235,23.07515866401511
29.529427751860503,35.48987708352367,36.26974467449557,20.34527462897521,50.71458486748989,16.348968111307972,23.03373238647898
29.522841080029167,35.34407782629749,36.15542941219714,20.355450596296368,50.099339549972925,16.422557566145116,22.99381592997962
29.51300190880943,35.197531743141624,36.04470624006992,20.361753812317588,49.46172118526012,16.492467593524818,22.955400241857483
29.500084504333717,35.05068866578568,35.938085239590464,20.36403921932997,48.803312823028904,16.55835354683119,22.918471804237445
29.484253031239046,34.904058654629075,35.83606152016832,20.362210443209275,48.125806173275656,16.61989913429799,22.88302325764752
29.46565251550772,34.758274994165376,35.739108920099916,20.35621807873107,47.43099156357165,16.676811285605584,22.849054083034506
29.444400439136086,34.61411188376055,35.64767579613855,20.346053354275494,46.72074027998171,16.728817516864083,22.816563150289973
29.420590534059695,34.472451247659556,35.56217217717395,20.33174662505251,45.996981799875336,16.775668758402116,22.785545996960956
29.394303779965593,34.33423255482137,35.48296257433647,20.31337385164481,45.261687279785214,16.817144142028866,22.756002785195747
29.365611154950344,34.2004177236217,35.410381971603556,20.29106644842974,44.51686549481876,16.853051734552466,22.727946971965622
29.334565015883708,34.07197986133357,35.34476287551354,20.265013488488307,43.764558874310964,16.88322484834629,22.701402748801687
29.30119166302215,33.94989792734443,35.28644476173437,20.235451200887375,43.00683009283042,16.907520477587926,22.676394296890077
29.265494644503825,33.835138001427914,35.23575745419373,20.202649265733115,42.24575015530027,16.92582584267741,22.65294114174987
29.227463814780904,33.72862771601693,35.19299286233154,20.16690390026073,41.483395262218984,16.938070325663837,22.631066692076605
29.187079062815904,33.63124519178179,35.15838142228846,20.12853440574853,40.721841326179,16.9442330233555,22.610808984489896
29.14430611900301,33.543829219513874,35.13208246379965,20.087875119858012,39.963152248343725,16.94434044795847,22.59221893948847
29.09909357265511,33.467192788691456,35.11418604526668,20.0452630593147,39.209376362352,16.93845996988781,22.575348304825997
29.05137948098069,33.402119462318446,35.10471254169995,20.001029290912193,38.46255521350234,16.92669865778707,22.56024252488493
29.001101641665215,33.34934878598394,35.10360195102511,19.955499584489075,37.72472699817539,16.909207987826694,22.546945882160145
28.948198764922086,33.30957318387555,35.11070023320914,19.90899910204572,36.99791303890702,16.886184543884386,22.53550870788586
28.89260352583982,33.28344632513762,35.12575454336232,19.861850673936534,36.28409653636305,16.857861424368362,22.525983689218826
28.83424401572397,33.27157945393811,35.14841957819526,19.81436474979887,35.585206174654104,16.824496505301862,22.51841374568429
28.773062316489273,33.27451565780383,35.17826581617051,19.766829234774026,34.90310543551739,16.786364947138654,22.51282638052255
28.70903546728049,33.292697872655076,35.214785607414065,19.719505789614665,34.23958038012151,16.743756896624934,22.509242364042105
28.64217983287548,33.32645057124874,35.257405894078786,19.672630001445473,33.59632138653368,16.696976060253142,22.507687839264808
28.572540453220608,33.37597860299878,35.305508775658176,19.626409044515565,32.97490260196186,16.646334253108453,22.508194646617227
28.500181561421954,33.44136920021867,35.3584453196731,19.58101532760688,32.376768200056,16.592142472294608,22.510789937434573
28.42518849002142,33.52258609087058,35.41553622679847,19.53658134325272,31.803229374146447,16.534705917761542,22.515489417621563
28.347675426751042,33.61946295275731,35.47607589259641,19.49320239585997,31.255463313717698,16.47432976345385,22.52230207675216
28.26778558758157,33.73170525054296,35.53935803611615,19.45094628757647,30.73450374428548,16.411331555049113,22.53123730676482
28.18568029038075,33.85889306938458,35.60471307853472,19.409860413218716,30.241225794473813,16.34604766733362,22.542301794312976
28.101528346590367,34.000475113591484,35.67152748774453,19.36997027185353,29.776338533429808,16.278828808666017,22.55548839650328
28.015507799620572,34.1557599602373,35.739235298501725,19.331273730705178,29.340396619088402,16.210032594131995,22.57077087068447
27.927816742401813,34.323920835871,35.807301533091845,19.29373885912871,28.9338261002852,16.140020876361937,22.588110805255898
27.83867737826973,34.50402004516571,35.87521391754266,19.257308944229123,28.55694218393275,16.06915895715592,22.607466139072034
27.748327015985684,34.69503710423832,35.942480296113466,19.22191073389175,28.209947893762426,15.9978098328809,22.62878864714426
27.657009772457286,34.89588043449274,36.00862871197406,19.18745801241228,27.892931056344374,15.926322990134922,22.652013423330814
27.564982789385972,35.10538338499559,36.07321358564388,19.15384901984452,27.605876586878704,15.855023694069843,22.677054087820526
27.472529824229248,35.322304584549414,36.1358266130983,19.120966088587316,27.3486830071389,15.784208163507252,22.703809681109934
27.37996419485714,35.545354553404536,36.19610642334485,19.088685779491726,27.1211637880648,15.714143656232613,22.732173409854305
27.287616981981266,35.77324810262349,36.253739976602475,19.05689551848285,26.923035145363773,15.645067707634027,22.762031793415204
27.19582407226756,36.00474967233902,36.30845147538157,19.025503725136677,26.75390730837261,15.57718509049422,22.793257357630775
27.104923160605065,36.23868691067747,36.359990327223436,18.994438472737006,26.613286877051493,15.510669222493894,22.825707719034742
27.015255126076973,36.473951738541444,36.408138295491014,18.96364274982412,26.50058071905197,15.445673293861478,22.859236824068965
26.927159458883665,36.7095132180919,36.45273350701645,18.93307432781081,26.415091829197532,15.382345350251642,22.89370887527903
26.840965171648293,36.94442841004764,36.49368431391646,18.9027082917624,26.35601045357459,15.32083658364044,22.929001470162223
26.75698481756946,37.17783090112229,36.53095736639165,18.872535183877837,26.322408822863956,15.261299317772368,22.96499797584378
26.6755131848345,37.408909391822995,36.56455183450245,18.842552470852326,26.313244355901002,15.203879588615575,23.001582759768553
26.59682631659433,37.63689991975414,36.59447805389919,18.812753146374988,26.327369735586498,15.148711537565768,23.03864831389294
26.521175813583838,37.86109190447625,36.62074489510267,18.783117350266245,26.363541521182317,15.09591785682953,23.076105859868022
26.448778863182916,38.080829366378254,36.64334758249614,18.75361243547258,26.420423765132494,15.045613681929673,23.113885593116404
26.37981351425224,38.29549678909058,36.66225463122711,18.724200890193405,26.496595753333338,14.997907408448766,23.151926825465996
26.31442674182626,38.50449946015395,36.67741179358545,18.694847225264088,26.59056947193058,14.952897360762714,23.19017155914897
26.25274714341941,38.70725618054048,36.6887741897295,18.665519019732184,26.70080615920864,14.910671095653782,23.228569637685986
26.19488725725173,38.90320735756134,36.69634230839209,18.636190757190487,26.825721366267416,14.87131147561434,23.26708647658316
26.140933996694724,39.091821029607864,36.700169745020176,18.606857441651318,26.963685259470065,14.83490301252715,23.305700292401276
26.090940679935365,39.272584236554295,36.70034591974804,18.57754780376263,27.113035251083673,14.801529918277003,23.344390528707766
26.044929604980428,39.444991664316646,36.69698219904476,18.548323902287667,27.272106410311668,14.771266335007164,23.38313135252682
26.002897123386003,39.60855137376168,36.690215093991526,18.519270403170044,27.439262636995483,14.744165779753265,23.421897532961246
25.96480999575244,39.76280586939666,36.680212206163105,18.49048683304565,27.612909791143583,14.72025584132011,23.460672874067733
25.93059594876534,39.90734756443511,36.667162675047216,18.46208752134373,27.791494690364715,14.699539178834602,23.49944771319933
25.900140406951984,40.04182381491401,36.651255122167264,18.434201028472465,27.973510475841454,14.681996150835342,23.53820753540281
25.873293649521624,40.16594562876862,36.63266419223827,18.406961834926655,28.157519133475954,14.667583878537847,23.576927678274547
25.849878808749565,40.27949835385968,36.611561685973264,18.380498694816556,28.34217662751296,14.656232847812317,23.615582046871662
25.829690295746143,40.38233856493563,36.588141194647676,18.354928057291428,28.526239363601434,14.647847684729603,23.654155120890977
25.81248570039108,40.47437467379316,36.56262864402842,18.330353374375964,28.70855145287594,14.642315819318986,23.692641803758892
25.797983118616784,40.55554133091499,36.53527271441554,18.30686422649704,28.88802867435065,14.63951866154983,23.731035988956023
25.785869507304284,40.625779898976674,36.506335624274485,18.284530995245763,29.063650559205485,14.639336785152116,23.769323796969694
25.775812384416227,40.6850376371439,36.476095043192295,18.26339831749127,29.234459222376195,14.641648643317378,23.807490769898646
25.76746406712796,40.73328555639763,36.444843655041225,18.243486621604294,29.399558013050033,14.646331749270637,23.84553220635176
25.760459369406746,40.7705337129535,36.412878121472275,18.22480512793229,29.55810866413464,14.653272888322928,23.883451380367884
25.754418594944635,40.7968266416049,36.3804981196507,18.20736491225325,29.709331034818554,14.662380634981295,23.921247761875886
25.74896159564604,40.812230484436824,36.348038367027954,18.19118014175693,29.852505896398444,14.673588539826373,23.95891096494936
25.743722230917175,40.81683656495948,36.31591596632413,18.176261256427303,29.98697985037461,14.686848317632412,23.9964282876913
25.738350441746228,40.810784112864255,36.28465003572456,18.162613478035198,30.11218228007725,14.70212282916408,24.03379536005981
25.73250553192322,40.79427663500002,36.25483955408813,18.150247005763063,30.22766014469751,14.719387534908899,24.071015863240554
25.72585552827172,40.76757243316265,36.22712282172535,18.139189518682105,30.333107922017213,14.738638414466834,24.108091650958226
25.71808814958465,40.73096049435691,36.202145315546595,18.12948718478424,30.428367463573174,14.759894843680833,24.14501739989503
25.70892170397181,40.68474839111379,36.18054224504262,18.121193813257978,30.51340288058214,14.783191509654412,24.181787451686446
25.698103935697365,40.62927262531883,36.162922979882865,18.114360666049684,30.588268510261823,14.808567190702368,24.21840463055254
25.685402663332024,40.5649127135317,36.14984781238994,18.109036735145608,30.65307902892618,14.836059969801129,24.254877511880032
25.670601111193175,40.492088930851736,36.14180540900675,18.105275253044507,30.707985312629205,14.865707781581222,24.291208309794698
25.653503374276777,40.41125008753596,36.139203061153985,18.103134742380867,30.753158904890153,14.89754666681512,24.327384975205177
25.633941408773826,40.322865528841184,36.14236708449173,18.102671385338947,30.78878403738576,14.931603803231704,24.36338514464983
25.6117724277651,40.2274190646129,36.15153938393409,18.103931078373215,30.815050936996375,14.967889519673518,24.399184287128705
25.586867006417613,40.12539575547666,36.16686467101313,18.106949772695828,30.83214556027538,15.006394461223495,24.43475522335969
25.559097799476675,40.01726173924239,36.1883793151797,18.11175976568531,30.84024025744405,15.047093871405313,24.470058588278373
25.52833844181419,39.90344781715503,36.21601537876641,18.118391532710977,30.83949552956158,15.089953154784236,24.505037189142836
25.494471867822295,39.78435104712729,36.249617625090394,18.126867555351204,30.830073391024023,15.134927221741583,24.539623682044624
25.457396148557446,39.66035481586037,36.2889554766227,18.13719650363825,30.81214980859076,15.181954648167801,24.573753578387382
25.417021286035972,39.531845764712806,36.33371854629795,18.14937635202665,30.785917619607936,15.230955307965075,24.60736815509889
25.37326612349834,39.39920914912527,36.38350503485431,18.163403656493923,30.75158593895335,15.281835912353827,24.64040582239249
25.326065417380804,39.26280978519031,36.43782317421388,18.17927781183636,30.7093873822787,15.334496775332255,24.672796280509093
25.275381136225764,39.122977966232845,36.496117754454474,18.196995041068103,30.659592589048874,15.388831347263178,24.704467627424584
25.221204256857003,38.98000797259854,36.55780793395382,18.216539801387107,30.602516857578543,15.444719866862632,24.735357415195327
25.16354522611741,38.83415920077367,36.62230831599304,18.237885618006953,30.538509880298484,15.502025791023755,24.76541210499147
25.1024257479177,38.68564915467436,36.689028303986234,18.261006449674344,30.46793845821988,15.560600669624376,24.79457529934941
25.037883969703124,38.53464091102107,36.75736798407448,18.285885208471896,30.39117608516708,15.620292999862988,24.82278002842043
24.96998859668653,38.38123664445383,36.826718050947164,18.312509507135353,30.308601014319464,15.68095110934848,24.849954378879108
24.89884484351843,38.22549022006581,36.89645630433871,18.34086057367688,30.22059382097271,15.742417601998467,24.876031692592232
24.824586537415563,38.067438418531744,36.96593982856956,18.370905323923598,30.127527681845383,15.804522581317803,24.900951450849885
24.747368125944345,37.907127331247224,37.034503722522345,18.40259320058572,30.029753695695792,15.867082515809923,24.924650779678185
24.667369716086238,37.74461578512426,37.10147391391441,18.435853190233747,29.92759245181024,15.929903751924426,24.947058477116784
24.584810049427883,37.579966442907384,37.16618477957096,18.47058808707786,29.821351037856136,15.992784091509979,24.968098798827434
24.49995172777894,37.41324080680981,37.227986180186086,18.506668676695178,29.71137565981088,16.05550993797023,24.9876982754601
24.413095630898532,37.2444973627989,37.28624269127904,18.543933413756225,29.598123784962265,16.11785436669213,25.00578432647603
24.32457928269979,37.07378460994435,37.340344494041915,18.582195202483156,29.48222532276546,16.179581829299124,25.022275720099845
24.23478788721904,36.9011292412996,37.389736110656756,18.62124928492152,29.364506465688294,16.24045834176043,25.037076446714725
24.144165012565978,36.726529539728546,37.43394250127364,18.660875016664715,29.245971004963497,16.30026001737581,25.050080495533788
24.05320660481433,36.54995954312271,37.472572035073775,18.700831973263114,29.127761386141255,16.35877413949713,25.061180181213874
23.962440885821223,36.37137545611327,37.505304119287764,18.740858300404533,29.011119970669686,16.41579453134779,25.07026639813093
23.87240975800186,36.19071419406044,37.53188626108855,18.780677591816286,28.897350862923492,16.471119125922183,25.077222020766786
23.783660532100793,36.00788555997261,37.552146533296366,18.820010193867024,28.787783030938435,16.524554388188207,25.08192053835012
23.69674186610599,35.822766170891654,37.56599990054757,18.858578731390402,28.68374345089032,16.57592091849461,25.084235634689428
23.612193983995983,35.635200244747686,37.573432822021566,18.896105309814512,28.586542103867387,16.625052333555693,25.084052360384405
23.530534658365035,35.44500506928944,37.5744803473632,18.932309839062494,28.497461863574827,16.671788406356264,25.081267893270333
23.45225146350787,35.251974278662466,37.56922275835925,18.96692001036619,28.417748870835077,16.715969467271627,25.07578351182129
23.377802813561622,35.05587715478424,37.55780723845646,18.999689522838093,28.34860454037028,16.75743559840458,25.06750091390933
23.307617092304266,34.85646421131764,37.540466894848905,19.030408620123623,28.29117591966608,16.79602705682412,25.0563308155186
23.24208145621889,34.65349137120062,37.51751349058196,19.058899063981436,28.24653526960673,16.83158137172385,25.042205590899627
23.181525551992316,34.44675536723003,37.48931728450053,19.08500337598295,28.215648945366674,16.86392887579281,25.025081564784138
23.126212251784438,34.23611570154933,37.456297209275974,19.108582574483417,28.19934737760222,16.892892877629496,25.004929548979614
23.076340567082646,34.02149516388658,37.418918240465985,19.129525337962523,28.19830404245903,16.91829756137101,24.981727042879914
23.03205255114062,33.80287942600359,37.37767810184159,19.1477579114747,28.213022416600253,16.939978810414775,24.95546194365701
22.993435264182,33.5803304385865,37.33308166537542,19.163243576706126,28.243831057958772,16.957789775152136,24.926140429781732
22.960523328820763,33.35399885329951,37.285620091858526,19.175974254657145,28.290890040740035,16.971599064195814,24.893785909028892
22.933311446594878,33.12411732176376,37.235765852473286,19.185967179138657,28.354206707465597,16.981287136488003,24.85842918791937
22.911771202078853,32.89098105413681,37.18397430548728,19.193271425179546,28.433652264660928,16.986747511528243,24.820102746267768
22.89585809164149,32.6549371995799,37.130677602311444,19.19797285158719,28.528970520900412,16.98789296550069,24.778847125630957
22.88550491496928,32.416396297210845,37.07627245333138,19.200187737724043,28.639776406795566,16.98465971487441,24.734720988456612
22.880610136923533,32.17585440377518,37.02111598503197,19.20005322758181,28.76555134027099,16.97700431367658,24.687801383858783
22.881033085785987,31.933900544576513,36.965537641899516,19.197727764726476,28.90564681799418,16.964896268354337,24.638174507065
22.886600140484077,31.69120515710847,36.90985613268087,19.193399642542257,29.059300365447072,16.948313778659394,24.58593009008088
22.89711304625855,31.448508676634262,36.8543816434121,19.187289666035287,29.22565385431356,16.9272464321708,24.531167512517086
22.91234924013657,31.206616422450942,36.79940070617271,19.179642284430145,29.403761645311743,16.901700673619306,24.47400553276571
22.932056631143784,30.96638548124764,36.74516330747549,19.17071501924112,29.592590952925146,16.871700928033437,24.414582321492567
22.95595495266414,30.728699651474653,36.69188575572579,19.160775058537087,29.79103006588343,16.837285380404342,24.353045660759904
22.983750884061962,30.494448155319322,36.6397575868568,19.150098355235748,29.997915409124822,16.798502059597954,24.289546242404516
23.01515752676071,30.264518723959345,36.588935421005836,19.13896277896942,30.212069532309542,16.755410510016358,24.224241999068347
23.049902196392917,30.03979545769947,36.539526988607676,19.127635713842558,30.432332771422598,16.70808770995078,24.15730525566839
23.087721285060372,29.82114637165771,36.49158614928934,19.11636289763965,30.65758351600506,16.656631238646128,24.088920391786345
23.128354544060794,29.60940461975344,36.445131643806604,19.10536430901629,30.886749761183037,16.60115578646839,24.01927283573062
23.17154509245844,29.405368038517693,36.40017367685522,19.09483725262801,31.118808184365385,16.54178779419244,23.948541597080762
23.217038825054182,29.20982596056781,36.35672192096745,19.0849591882694,31.352768986930062,16.478666090610734,23.87690307733436
23.264576851199255,29.023584077828133,36.31477198902913,19.075882735316394,31.587654947996906,16.41194888490191,23.804539273526466
23.313885376292532,28.847459998933665,36.274288265987394,19.067724538841453,31.822485095044996,16.341818754707415,23.731637630228054
23.364673451140014,28.68225735159004,36.23519548419241,19.060556806607213,32.05626654532368,16.26847965055295,23.658381223568984
23.416640731647504,28.528735809685912,36.19737533226603,19.054408803443433,32.28799159666339,16.192149169042793,23.584941516579896
23.46948422180047,28.387581997807118,36.16066051884842,19.04927635451813,32.51663759361215,16.113053714309387,23.511483634785336
23.5228959606271,28.2593835746927,36.12483193615688,19.045129764011907,32.741171696800855,16.03143082294414,23.438178243691848
23.576560282199356,28.144614439065144,36.08963254618964,19.041915995990905,32.96056477027535,15.947535511873985,23.365205727652118
23.63016284380884,28.043639389245442,36.054794714271544,19.039560627660123,33.17381196186329,15.861643268928757,23.292749796586573
23.68340694029297,27.95673696766276,36.02005828521032,19.037974209438996,33.379952304605034,15.774045750253965,23.220992990063834
23.736020710530102,27.884126382016223,35.98516684198908,19.037060501939077,33.57809393004376,15.685042198943703,23.15012219418626
23.78774999955958,27.82597998736487,35.94985625147276,19.03672096395414,33.7674535221432,15.594933191107382,23.080333959562793
23.838348839909848,27.782414184073133,35.91385771514456,19.03685380586995,33.9473919804147,15.504019357833142,23.011827630904378
23.88757953318364,27.753468462233815,35.876916813373136,19.037352152099967,34.11742930099206,15.41260011793251,22.944792431826624
23.935219483501694,27.73908591693832,35.83880657512898,19.038105850549847,34.277244651983445,15.320967153093857,22.87940365677611
23.98106258421283,27.739100016554744,35.79931985280088,19.039004880228557,34.426663262473646,15.229395601840361,22.81583083559456
24.024911390578694,27.75322547822741,35.75825129718269,19.039938998513655,34.56562695740036,15.138141407296628,22.75424550243609
24.066568953798335,27.78105157641303,35.71538809789387,19.040792842915103,34.6941581224422,15.047447669043887,22.694817933633757
24.10584082192047,27.822042306980652,35.67051888989627,19.04144094214223,34.812331463939884,14.957552275687442,22.637707506852458
24.142549638938252,27.8755521750754,35.62345151200837,19.041746685321684,34.9202601663978,14.868688183606086,22.583061160357477
24.17655149479295,27.94085648134616,35.57402114504214,19.041564693920964,35.01809049089714,14.78107727845389,22.53102512628505
24.207740251699263,28.017177573097566,35.52208704770373,19.040742019398188,35.105992091608826,14.694925203030257,22.481756583441705
24.236042892875737,28.103691713345956,35.46753058474862,19.03911499358948,35.18414092877142,14.610421135281237,22.435421478413936
24.261417883577856,28.199523608184304,35.41025527523877,19.036505315593587,35.252703210450214,14.527739317649695,22.39218338059653
24.28385463535844,28.303748103234053,35.35017940276265,19.032723596386926,35.311825619462915,14.447037800053508,22.352199425504633
24.303364645852035,28.415408615505473,35.28722173240032,19.02758260043153,35.36162883990512,14.36845521222604,22.31562874411051
24.31996652498835,28.533540567733993,35.22129255851815,19.020910317730703,35.40220081304289,14.292110737052482,22.28263995360953
24.333676582874,28.657182556949284,35.15230159590484,19.01255196129482,35.433590341845374,14.218108876329259,22.25340486880072
24.344511168063534,28.785375316235427,35.08017934372695,19.00236288069885,35.45580493534144,14.146542907976277,22.228084452487682
24.352493410707858,28.91716159735039,35.0048925278675,18.990204202859424,35.46881504802921,14.077492347334722,22.206822763764343
24.357653417143453,29.051596316971512,34.926440455809264,18.975947545067022,35.4725598580679,14.01101800769413,22.189753776389775
24.36002459941101,29.187764513744245,34.844840700593814,18.959482033814442,35.46694761139553,13.947159673423508,22.177008697889217
24.35964719988637,29.324794125868756,34.76011849812846,18.940714674487253,35.451852655478405,13.885937996729776,22.1687117843013
24.35657788668711,29.461856992360154,34.67230138957888,18.919566222091788,35.42712043370211,13.827359689458811,22.164969548506058
24.35089328366249,29.598171311153568,34.581412014404535,18.8959730543433,35.3925842109042,13.771421939332201,22.16586669383162
24.342682779660812,29.733017133463182,34.487456284267545,18.86989944450419,35.348080271526506,13.718111926602504,22.17147195638133
24.332038523325064,29.8657510808351,34.390412624737884,18.84135035619194,35.293450240937474,13.667403308383832,22.18184259976668
24.31905398874535,29.99580156478679,34.29023233247103,18.810372479140163,35.228537062711546,13.61925761439106,22.197017449837787
24.303835376388793,30.12264840089046,34.186852685398,18.77704452138354,35.15318630727199,13.573635051353982,22.217003831995573
24.28651636174941,30.24580234141023,34.08020914582696,18.74146821110591,35.06725709811694,13.530507376695159,22.241773739937717
24.267260792900846,30.36479112757203,33.97023686623073,18.70376704929727,34.97063825212786,13.48986260489842,22.271274815918105
24.24625221818584,30.479149225219718,33.856873053659875,18.664087456711407,34.86326146095478,13.451701861581121,22.30544214638801
24.22368730894716,30.58840995716027,33.74007447580831,18.622593567921925,34.745115843191556,13.416035960112058,22.344196583065337
24.199782707369014,30.692108827366273,33.61984076273701,18.579455556909576,34.616273581698486,13.382885589499143,22.38743495696172
24.174781035380235,30.78980717274387,33.49622153515229,18.53483775508492,34.476913904216644,13.352281995325935,22.435027686065865
24.148941319924255,30.88112642013766,33.36930446679297,18.48889128180212,34.32732512908713,13.32426356917842,22.48682844570827
24.1225203651873,30.965770031110623,33.23920420157462,18.441751311892165,34.16788675396382,13.298868607908387,22.542683649068973
24.09576019405047,31.04352193719625,33.10606810534861,18.393535618202982,33.99904467605423,13.276128728798966,22.602428891280958
24.068885141651805,31.114231834943478,32.97009033138193,18.344342437017698,33.82128807231597,13.256066326316597,22.665876731254215
24.042099309123653,31.17780674495987,32.83151340950033,18.294252168811994,33.63513408030973,13.238694432525262,22.732812273465925
24.015576927899726,31.23421454741473,32.69061360838601,18.243339097001638,33.441120698714705,13.224014624379835,22.80300389302317
23.989452552844117,31.283484849895412,32.547686807191354,18.191688231188877,33.23980066387974,13.212013115061977,22.876216676047086
23.9638283836156,31.325695147633965,32.40304610242953,18.13940342566919,33.03173349248098,13.2026616751805,22.952212821859433
23.938802633728997,31.36094829476967,32.2570227769187,18.086601981094436,32.817482100053915,13.19592750079898,23.030740869019645
23.91449534261887,31.389353145967814,32.10995859273385,18.03340451982283,32.597615221278055,13.191785470772638,23.111529689864017
23.891050085300428,31.411016656072274,31.96219355430943,17.97993024659914,32.37270529120757,13.190222783900772,23.194295854909235
23.86861973960927,31.426049400382823,31.814066965613062,17.92629898660972,32.14331627551239,13.19123416591219,23.27875367814909
23.847355859565155,31.434574499505548,31.66593742175613,17.872632621025364,31.90999216960443,13.194813788545613,23.364613748481723
23.82740726744884,31.436729267516153,31.518200257713847,17.819049771982137,31.673259787005744,13.20095087603699,23.451573055799123
23.80891874577218,31.43266412412311,31.371281299609812,17.765657915874478,31.433643426637623,13.209630433820998,23.539311998339237
23.792021846791506,31.422545638629508,31.225614315925736,17.71255329261062,31.191675145674207,13.220833816222125,23.627504399294484
23.77682269230597,31.406557050700346,31.08162462919192,17.659830975279057,30.947890403770764,13.234534689270802,23.715829182126576
23.76339662836679,31.384889799200216,30.939728190485795,17.607594112933906,30.702813312293234,13.25069470011627,23.803971151673757
23.751791306769015,31.357734756494946,30.800334346457525,17.555952979225207,30.45694056138951,13.26926955441229,23.891614503134438
23.742030795093964,31.325286370075894,30.66383829391186,17.505018548565392,30.21073052370109,13.29022767803598,23.978443115683067
23.734113302950828,31.287757794574503,30.530607688272006,17.454901054797592,29.964599644769258,13.31356647897409,24.06415234650935
23.728003226719775,31.245389534343694,30.400984629991957,17.405715478767142,29.718922031519313,13.33931224717837,24.14845998225121
23.72362672517541,31.198441364478263,30.275317225242816,17.357585541789845,29.4740268167015,13.3675091052334,24.231103842393356
23.72087923317012,31.147178032479477,30.154001959812692,17.31064003076039,29.230195415827712,13.398212192460662,24.311830825490276
23.71964045294608,31.091864205060038,30.037500625695337,17.265006168115132,28.987665959130695,13.431490635029784,24.39039297782857
23.719782746687134,31.032768801593566,29.926324439598098,17.220809211423692,28.746644617710896,13.467431253719665,24.466556407767506
23.72116953936064,30.97016606848342,29.821011489055422,17.17818241677403,28.50731398506291,13.506132901046238,24.540110502431585
23.723657793958388,30.904327328456393,29.722115593701215,17.137280660651033,28.26983377845808,13.547692828375387,24.61086421767753
23.72711352135615,30.83551297833505,29.630196785699074,17.0982843169689,28.03434163848348,13.592193964230622,24.678634718168233
23.731427219448033,30.763977965114233,29.545800254088693,17.06138993122663,27.80096172513252,13.639699537090642,24.743244463037428
23.73651501214875,30.689988158066996,29.46942962672053,17.026799058086993,27.569816415182345,13.690253534685555,24.80453160100594
23.742315245803752,30.61382851211221,29.40153047854703,16.994714176510666,27.341030704305908,13.743879979941354,24.862360338580764
23.748798469320505,30.535792985062024,29.342489288103323,16.96533746451555,27.11472718279116,13.800577077964418,24.916617950955246
23.75598635928055,30.456168118154622,29.2926357222159,16.9388648813014,26.89101773626373,13.86030906979887,24.96720228323478
23.76395846001326,30.37522364972023,29.252234509401525,16.91547598197638,26.669996789241242,13.923000730429203,25.014014300088572
23.77283863942025,30.293208098689732,29.221469289056078,16.89532775046391,26.45173648451546,13.988535928717795,25.05696260787087
23.782773843569274,30.210341054116952,29.20043435508307,16.87855833445975,26.23628300768121,14.056757952743258,25.095970625684988
23.79392139913479,30.12680077501497,29.18914498806483,16.865294609459212,26.023654478792825,14.127470643517242,25.13097427499968
23.806447560924916,30.042717294776477,29.18755608142778,16.855652855002496,25.81384113667947,14.200443602092673,25.16191304940039
23.82052549895622,29.95819089699313,29.195569395735873,16.849731636712136,25.606806472794233,14.275423650272538,25.18872843252862
23.836324186649392,29.873338702380998,29.21302685696456,16.84760496565245,25.402487660044773,14.352147567671825,25.21137524651473
23.853994798216203,29.78833477079541,29.239701992487294,16.849321648260723,25.200797864639334,14.430348488371523,25.229833998545878
23.87366642897883,29.70341271637275,29.275295495029468,16.85490823368505,25.001634005771766,14.509754316048515,25.244110260628986
23.8954522246035,29.61884221042837,29.319434322962337,16.86436836776794,24.804886675394297,14.590083190583268,25.254224267112313
23.919453618682667,29.53490674443536,29.37167460670165,16.87767667763373,24.61044745541531,14.671043149469849,25.2602067792696
23.945753483595535,29.451891997914903,29.43150851261218,16.894774830570395,24.41821722824863,14.752338489949299,25.262108248859846
23.97440673478627,29.370077370623203,29.498376059092895,16.915579895441674,24.228117981201688,14.833676357941906,25.260009037935028
24.005442858165313,29.289723071284733,29.5716798895778,16.940003025335372,24.040099511717493,14.914765969161135,25.25401688376823
24.038878687337267,29.211055447358373,29.650793727745334,16.96796215655793,23.854135052747484,14.995311843133885,25.244255323096237
24.074725385253906,29.134259968600247,29.73506016636784,16.999379708677058,23.670213187277817,15.075009195245775,25.23085792092153
24.112981777567043,29.05948481464995,29.823786213000222,17.034176743933692,23.488334035298504,15.15354837048386,25.21397463412408
24.153625072461292,28.986845234821075,29.916245814136683,17.072279637848258,23.308507086597867,15.230626730226803,25.193779684226094
24.196614390463747,28.91642009867596,30.011688364754892,17.113638185435793,23.130744854389743,15.305957615416196,25.170467494969103
24.241904838430692,28.848246909191808,30.10934645736852,17.158237120344833,22.95505458134604,15.379271479993877,25.144238665335873
24.289453561750342,28.78232557403365,30.208440349839968,17.20609091156386,22.78143757769774,15.45031859384088,25.115291044395722
24.339210342371455,28.71862888938763,30.308180669333392,17.257232956708833,22.60990089361925,15.518880411301677,25.083824194771655
24.391106592014896,28.657108191155867,30.407769943933015,17.311712146889683,22.440473287384933,15.58478020274355,25.050046706962792
24.445054219039466,28.59768781235925,30.506404547823127,17.36959291494602,22.273213419955766,15.647881487271054,25.014172427537304
24.500947589382694,28.540253110382817,30.60327969868712,17.4309471399247,22.108207865791933,15.708078668219539,24.97640823742118
24.558657984942364,28.484641360854678,30.69759554029179,17.495836561179658,21.945570150459403,15.765295928759391,24.93694747222037
24.618022205959267,28.430640493451424,30.78856213783467,17.56429683996744,21.785453327053855,15.819502197763304,24.895975110987834
24.678835713458476,28.377992418516094,30.875410559570387,17.636336270656695,21.62807128846662,15.87072930244686,24.85367462713639
24.740856421555264,28.326394282380054,30.957414692437847,17.711949067698928,21.473713207990027,15.91907540621813,24.810224292441823
24.803813103223412,28.275496719550375,31.033910312020048,17.791126108562345,21.322747274029155,15.964692511307309,24.76578588830178
24.867407573169583,28.224906655354285,31.104296103208092,17.8738513626866,21.175620384722006,16.007769645800654,24.720499482841223
24.93130936055502,28.17420263389148,31.16802151951748,17.96009401851418,21.03285471002486,16.048521582468315,24.674490037871532
24.99515306215666,28.122957703470327,31.224579659037964,18.049808896320826,20.895034746116757,16.087183998592273,24.627875982651958
25.05854786552251,28.07075346393887,31.2735139509249,18.1429405171277,20.762784715694306,16.124007992441403,24.5807678720267
25.12109484644278,28.017179078973914,31.31442770474074,18.23941953641092,20.636748707943816,16.159248328004484,24.533259659050103
25.18239773845099,27.961829146028204,31.346981570060098,18.33915126875214,20.51758296591787,16.193149738396045,24.48542710606819
25.24206224159616,27.904316384531707,31.370880187510195,18.442006387275097,20.4059535755306,16.225942450863464,24.43734005141341
25.299694128604003,27.844294830817258,31.385862954326733,18.547820645488667,20.30252827157338,16.257850602573214,24.389075478352726
25.35490711437745,27.781472751851798,31.39170803859675,18.656398897731158,20.207960305184546,16.28910195303833,24.34071610411399
25.407337612520237,27.715607552056863,31.388240744950437,18.76751488155645,20.12287449607654,16.31992750317809,24.2923382517919
25.45665252192862,27.646499164234932,31.375332114982807,18.8809054235353,20.04787466858128,16.350554495783715,24.244005275376438
25.50254467217592,27.573995414114577,31.352889953206017,18.99626444628292,19.983574344249202,16.381201985751357,24.195774037464272
25.54472747114025,27.49799970565638,31.320860451732237,19.113243748712755,19.93061860596601,16.412081158271288,24.147704211137135
25.582940765194476,27.41846619562314,31.279251122456937,19.23146247313005,19.889673522209062,16.443395725537535,24.09985699067136
25.61696342694398,27.335384253627357,31.22815954187531,19.350517587136782,19.861401138044965,16.475338319444795,24.05228477284399
25.646618317373097,27.24876511594802,31.167782943421557,19.469987331958666,19.84644530036557,16.508085309869923,24.00502543860082
25.671766296542785,27.158638533709226,31.09840566970704,19.589430532490436,19.845426154709816,16.54179626123863,23.958109032423376
25.69230111774792,27.06505653518778,31.020381133746824,19.70839111044921,19.858927188832553,16.576618818706656,23.91156835422218
25.708156339180867,26.968098705242262,30.934118607673202,19.8264096407763,19.887473454787763,16.612691310964408,23.865440231817036
25.719320660503325,26.867879252004826,30.840070462092786,19.94303248619752,19.931519121317635,16.65013640877667,23.819758076741433
25.72584531799769,26.7645571219092,30.73871466465315,20.057811226353163,19.991455632443095,16.68904923512982,23.774549644103946
25.727833835091605,26.658343898051857,30.630540044310028,20.17029662942601,20.06762412139074,16.729489714923666,23.729847745352863
25.72542359126226,26.54950115456336,30.51604934387709,20.280035475196513,20.160311340854616,16.771485730953327,23.68570307338733
25.718775488885072,26.43832472361959,30.39578035363415,20.386574661289913,20.269733198127792,16.815043855989227,23.642184421541344
25.708075121694684,26.32512420272373,30.27032281707935,20.48947079470888,20.396022739835846,16.860157027532303,23.59936791159028
25.693532989445465,26.210213402436995,30.140312283304908,20.588297872103762,20.53923058377773,16.906802836585122,23.55732988674329
25.675374558512804,26.093920568353028,30.006407484519116,20.682648933566984,20.69933300408693,16.95493785959351,23.516151716150578
25.653828418658456,25.97660680968448,29.869271138859773,20.772139400691138,20.876234140427535,17.004497685269467,23.47592745527896
25.62912594670253,25.85867256843017,29.729563879522964,20.85642133301489,21.06975613548541,17.0554031017582,23.43676122801111
25.60151130237456,25.74055117381248,29.587942619483325,20.93520144201088,21.279628889225055,17.10756431554608,23.398756929079894
25.571246524077573,25.6227069409504,29.445050768195475,21.00824650845071,21.505490208253438,17.160880119411374,23.362015239062345
25.538602896006516,25.505642910723882,29.301502100192362,21.075374446010635,21.74688980396767,17.215236624277516,23.326643289610825
25.503847880306914,25.3899016339159,29.157872193407677,21.136445408481325,22.00328685596825,17.27050892459145,23.292763500792688
25.4672431419572,25.276047745155964,29.014704607604465,21.191363207362613,22.274041399317575,17.326564467723554,23.260508025644395
25.42905477005523,25.164643655768106,28.87252100559097,21.240081558593783,22.558404609823263,17.383263841972727,23.230003833553358
25.38955944673636,25.056237099389495,28.73181996393806,21.282604499223446,22.8555116228619,17.440455803351217,23.20136449853459
25.349036889455537,24.951364654408646,28.59306576684202,21.31898104048421,23.16438171498221,17.497969335064063,23.17469519432693
25.307760958523758,24.85055726318592,28.456684809036087,21.349301392489537,23.48393033786871,17.55560954913982,23.150100123330926
25.266006206857668,24.754333997407638,28.323080203627157,21.373695171231894,23.812989408046867,17.613161840161634,23.12767988241058
25.224066357689846,24.663186061229144,28.192650700862732,21.392326068001076,24.150326524566626,17.670401240469374,23.10752161015017
25.18226347022306,24.577562867605522,28.065793549162166,21.405393296672173,24.49465861769584,17.727098293535477,23.089694799621196
25.140937520591244,24.49786752420827,27.942892964525942,21.413178829955708,24.844659831350064,17.783016717631387,23.074257508637125
25.100429628410005,24.42445726639392,27.82431411155447,21.416155536046062,25.198965200911186,17.837906597057845,23.06126228863235
25.061074324179298,24.357639152922996,27.71041211288012,21.41508976704721,25.556175806272986,17.891499893961235,23.050750139778934
25.023198919540217,24.297658492825292,27.601541511190064,21.411060466700686,25.914868110286367,17.943511622448973,23.042736438331843
24.987117850576336,24.2446853928579,27.498049399215933,21.405401566096526,26.273602166801176,17.993643895600037,23.037203992316226
24.953118013520708,24.19880658226993,27.400257907217345,21.399624299552844,26.630923967953937,18.0415872655451,23.034110330150572
24.921444069966228,24.160030437106016,27.308457414305682,21.395360003730133,26.985363589541734,18.087018776529167,23.033398650023905
24.89229444876221,24.128308991056137,27.22292110133094,21.39434711801318,27.33543422223528,18.12960376346728,23.034998988771843
24.865827137122892,24.103568595695855,27.14392501760054,21.39846606058036,27.679637986529396,18.169006523948195,23.038821675491302
24.8421626997338,24.08573925974907,27.07175169157538,21.4097997039569,28.01648308097303,18.204903454992447,23.04475654169381
24.821377437179738,24.07478169501965,27.006681169847344,21.430713451301802,28.344511151065486,18.23698917020941,23.052683771014333
24.803496380197608,24.070705736682765,26.948991973352506,21.463953482947943,28.66232604078027,18.264981375855818,23.06248553851631
24.78849986424336,24.073570773634305,26.898977825202763,21.512698076204654,28.968615167391675,18.288644529525442,23.07404549891055
24.776340979620326,24.08348062941533,26.856959991325432,21.58049706541397,29.262167846982955,18.30783417701258,23.087239182954125
24.766956588216047,24.100594110970686,26.823278036857474,21.671131086038184,29.541900493343576,18.32252979396687,23.101929883508397
24.760263165957294,24.12514699267241,26.798267289957916,21.78845862161813,29.806881742865528,18.33283775919964,23.117976557332277
24.756148482942372,24.15746171728622,26.782243578151885,21.93628941995898,30.05633935312374,18.33899831288877,23.13524327833891
24.754477801442384,24.19793514093974,26.77550148342193,22.11831730638713,30.2896452058608,18.341428232192325,23.153598010880156
24.755117520964095,24.247022550124708,26.77831175350503,22.33812278243785,30.506291120595794,18.340768927961328,23.17290377378789
24.757954770152768,24.305237643581652,26.790904950947215,22.59920349587678,30.705867118458283,18.337891260138786,23.1930152695025
24.762894911025526,24.37315718947108,26.813448255217214,22.905007180080137,30.88804457285032,18.333867089513348,23.21378667999911
24.76984591905085,24.451405083448222,26.846032987329945,23.258976837351305,31.052561967059273,18.329971715403495,23.235080996555112
24.778708711649063,24.540615466614756,26.888679708447743,23.664572289686628,31.199212176590525,18.327748806962735,23.25676865389856
24.78937833561449,24.641397374774584,26.941347756998013,24.125239087354753,31.327833354938683,18.329085126262942,23.278717864704742
24.801745612807924,24.75431453132937,27.003933275047842,24.644400476301502,31.4383072274173,18.336237821884044,23.300790950806025
24.815690747551216,24.879871518101478,27.07625916312473,25.225530535894823,31.530565598099592,18.35182132638883,23.322854172552457
24.831073348645898,25.018493525123024,27.15807427587021,25.872230518046813,31.604599072556358,18.37876614463543,23.344790546525388
24.847726501370204,25.170502640537048,27.24906810813012,26.588241501174913,31.660459396186543,18.42024791831256,23.366500646031515
24.865454423141248,25.336103881742027,27.348886288977653,27.37742462851582,31.69825445542801,18.479619075027358,23.38789261877517
24.884028930914454,25.51538481731666,27.45713162525956,28.243703379506265,31.71814707426608,18.560369309038766,23.408876574447312
24.903183560316823,25.70831679373496,27.57335610009944,29.190938649237214,31.720366755174272,18.666094547744784,23.429371303070724
24.922608907026223,25.914750261917447,27.697062081078297,30.22282917838574,31.705224527290618,18.800468908022342,23.4493130782454
24.941954795761607,26.13442012104513,27.827718400736103,31.342990589059237,31.67311386609977,18.967232045046558,23.468653129227892
24.960841290721806,26.366979163593125,27.964775209305113,32.55521336235405,31.624496210997375,19.170164526989943,23.48734643997218
24.9788716292056,26.61204473847677,28.107662303865894,33.86369267821427,31.559883568090747,19.413034151970315,23.50534679956579
24.99563732497708,26.869223462120846,28.25577837859696,35.27303187204929,31.479829269386986,19.699558720774064,23.52261503188306
25.010716010321868,27.138102431122213,28.408492606429135,36.78802908949568,31.384926715318148,20.03343270193743,23.53912902797341
25.02367398384442,27.418227364613685,28.565166190552787,38.413423270593995,31.275806340691293,20.418393459975274,23.55488151692165
25.034080434960057,27.709096518076862,28.725174967722566,40.15379332986288,31.153125850904395,20.8582375143105,23.569868126876727
25.041523648750385,28.010183611946072,28.887912845396155,42.013633033442055,31.01756456902388,21.3567501103316,23.584080052135924
25.04561689393948,28.320970799670988,29.052781842085203,43.99739418116914,30.86983811293661,21.91763360192739,23.59750846681793
25.0459990256623,28.64095973301944,29.219190203148,46.10933561512457,30.71073095746966,22.544508438401973,23.610152084054487
25.042346859467973,28.969657509415512,29.386568390376986,48.35326502269776,30.541122462772893,23.24096066491158,23.62201576931274
25.03440204373891,29.306559437905328,29.554389215897487,50.73237436604358,30.361989505159656,24.010635807688214,23.633101196094618
25.021991083202824,29.65113780507106,29.722172563001866,53.249301553057364,30.174392800721797,24.85739838622265,23.643402008420335
25.005020651175634,30.002827933709966,29.889474976905813,55.90634878408325,29.979458156115506,25.785441318025573,23.652910336980614
24.983455853150854,30.36100747364326,30.055880068755457,58.7056200479176,29.778353802886762,26.799226103299528,23.66162542709398
24.957299798967643,30.724975233573755,30.22099637698861,61.64896768425274,29.572263228592483,27.90331169106133,23.669551781750815
24.926583911740536,31.09393744488447,30.384453087607838,64.73785781171138,29.362357196443078,29.10217087090769,23.6766891834142
24.89136579069543,31.467007375821474,30.545887042284527,67.97323813915557,29.149770041631527,30.40001559733329,23.68302953835827
24.851725805208222,31.843217610891887,30.704935332629056,71.35537656276848,28.935583534078138,31.800634277011564,23.68856882834865
24.807759577275082,32.221535942268915,30.861255881665485,74.88365917608175,28.72081694982918,33.30726187923264,23.69332291408969
24.759574264836065,32.6008826842865,31.014569806651465,78.5563921952862,28.50641740720235,34.92252368878486,23.69733033907589
24.707299367614564,32.98015692046751,31.164688116209994,82.37064526215238,28.293246979375294,36.648510610876265,23.700644042607692
24.651109159836015,33.35826517057412,31.31150502154,86.32217037281075,28.082069361584818,38.48696425113569,23.703329718174082
24.591237232523273,33.73413301360788,31.454981362679185,90.40545293432176,27.873539739978877,40.439406200788916,23.70547732114971
24.527970456031625,34.10669761344563,31.595139144960942,94.61388425936728,27.66820079567812,42.507088937656,23.707210616140546
24.461631873394857,34.47489796092533,31.732057865129462,98.93992480293963,27.466489436231658,44.690846729815576,23.708680698670204
24.39256862275727,34.83767186873857,31.865861201610777,103.37517480422846,27.268753473302283,46.990989505277255,23.710050715616994
24.321147931358055,35.19395371217808,31.996705503874786,107.91042441997192,27.075267534578778,49.407286281917784,23.711489899870195
24.247752288231847,35.54266786901032,32.12478263828936,112.53578434627549,26.88624041538673,51.93899380495054,23.713181524057884
24.17276818257033,35.8827239770203,32.250325518958434,117.2409111900938,26.7018167265593,54.58486928404912,23.715328916485152
24.096571805612278,36.213026554394006,32.37359808175939,122.01527557405724,26.52207635630936,57.34313661080999,23.718145274393017
24.019516183910497,36.532505836960254,32.494869859394555,126.84840565265385,26.347033576864863,60.21142514878797,23.721834479540096
23.941920672327914,36.840157818500515,32.61438817927728,131.73005656169263,26.176642442642482,63.18674111672266,23.726581565943757
23.864061910623903,37.13507021470286,32.73236098562679,136.65033261931418,26.010811214890204,66.26550377264793,23.732558826977883
23.786165091751595,37.416428840209434,32.84895476847969,141.59981938243268,25.849416634221665,69.44361127141919,23.73993294036801
23.708397585535252,37.68352081667477,32.964297048601395,146.56970712511588,25.692312975633076,72.71651208967009,23.748858853295523
23.630872642142815,37.93574927639473,33.07846944725833,151.55186579367603,25.5393427999922,76.07933283341559,23.759466904474724
23.553666316479827,38.17265573486277,33.19149446628444,156.53883785647753,25.390350535504425,79.52708812911659,23.771860244704783
23.47683584506553,38.39392843483264,33.303337065236654,161.52370742061268,25.245190003673393,83.05488237162614,23.786126280609267
23.40042657838008,38.5994000368168,33.41393269673569,166.49989373009228,25.103723206270175,86.65799890611571,23.802346915413093
23.324470407489326,38.78910323480581,33.52322035597418,171.4609896104061,24.96582025225646,90.33187010521482,23.82059436098829
23.248986765266057,38.96342587212899,33.631150973822585,176.40069564377166,24.831372930754693,94.07202493425648,23.840918506175225
23.17398951234057,39.123267434303365,33.737672551412274,181.31280229526607,24.70031955616132,97.87411264134151,23.863341043043256
23.09949255076565,39.2700693969686,33.842715809528435,186.19117095295886,24.572661456332895,101.73394943149798,23.887861062169886
23.02550671816574,39.40572911293206,33.946191909812086,191.0297594416541,24.44845832960498,105.64746241522353,23.914461402847106
22.952029896434126,39.53251112481306,34.047992651784725,195.8227577190259,24.327809349040507,109.61053857874447,23.9431056423386
22.879040573683024,39.65306289966008,34.147982023519916,200.56474663712538,24.210832535509148,113.61888795159307,23.973731041542777
22.806504242215674,39.7705420062295,34.24598224255223,205.25070887640035,24.09764969338255,117.66801754373529,24.00625052954166
22.73438949361324,39.888726327534094,34.34176684318298,209.87588098306892,23.9883776337735,121.7533620327231,24.040565981971888
22.66267874053872,40.011984548957,34.43506782558727,214.43558789245495,23.883123601655697,125.87048745987559,24.076579527717435
22.591365954073936,40.14516762523879,34.52558852656887,218.92514048633473,23.781987737215125,130.01520047623075,24.114191676622323
22.520455607685125,40.29362534696482,34.61300825269743,223.33976575027125,23.685073397607308,134.1835291687538,24.15329238614412
22.4499877840444,40.463412242264155,34.69698015188523,227.67454487026092,23.5924942204704,138.37167364800533,24.19375967080069
22.380089681365416,40.66146330262615,34.777141111916734,231.92439511005603,23.504369854456424,142.5759797734843,24.235469145824403
22.311014737847486,40.89553825510569,34.853141751638695,236.08412287115215,23.42081683423133,146.7929296464654,24.27830163591424
22.243139121833885,41.17398709679802,34.924674403807174,240.14849113924745,23.341943231661798,151.0191270013578,24.32213810387126
22.176932272463482,41.50547134173133,34.991474833669756,244.11221268989388,23.267848651126915,155.25124284120784,24.366848929928054
22.11293536246983,41.89870468911504,35.053303815520835,247.96988091793784,23.19862669188211,159.48591425692675,24.41229219032319
22.051756387726066,42.362221587718025,35.109932082076504,251.7159592145446,23.134369647844373,163.719643873959,24.45832338970732
21.994063380163812,42.90415979762434,35.161139670025875,255.34490690158015,23.0751762941971,167.94874308122428,24.504803816224207
21.94056257880067,43.53205548982268,35.20672026187243,258.85137271282986,23.021154456955973,172.16929913514846,24.551597470720736
21.891971816867457,44.252670287227026,35.24647761554021,262.2303340533539,22.972410056904135,176.3771413930607,24.598562790966383
21.84900221216872,45.07188007000467,35.280215334284804,265.47716644952976,22.929031262801946,180.56781943848492,24.64555274153116
21.812346529580328,45.99465528098915,35.307731551848576,268.5877059404538,22.891084921474274,184.73658709809789,24.692426071481137
21.78266533398966,47.02512440403135,35.32882356451002,271.5583054467179,22.858629447098743,188.87837804507237,24.73905665410863
21.76056685555582,48.166670999398434,35.343293338708015,274.3858537789515,22.831729676865205,192.98780306131948,24.785329713324685
21.746585497953184,49.42201608591748,35.35094335752521,277.06777281385234,22.810457889842716,197.05919326213515,24.83113147075921
21.741169019130773,50.793240911539485,35.35156751532558,279.6020118400015,22.794881199663376,201.08664126124975,24.876346743341806
21.744678504628336,52.28173291333509,35.34495331891604,281.9870460891756,22.785046174680406,205.0639809337504,24.920867274289577
21.757392763919626,53.8881120107647,35.330900199601906,284.221866270681,22.78096676846298,208.98472508999257,24.964597842454392
21.77950739677605,55.61220057305466,35.309236702452026,286.30593294197394,22.782614118629212,212.84202030184372,25.007449476544256
21.811132446365338,57.453030507685455,35.27982005432179,288.2391609676658,22.789908370280653,216.62864316508407,25.04932659843248
21.852302016806547,59.40885400593329,35.24252526657137,290.0220046270946,22.802715603706282,220.33703922548835,25.090123397359246
21.902996938261804,61.47713925843176,35.19724605253914,291.65552956735087,22.820849586167242,223.95939949661764,25.12973269114395
21.96316202201595,63.654544055919445,35.143917674727405,293.1413478793428,22.84407857354825,227.48775127628463,25.168053320156844
22.03270414277601,65.93688388713142,35.0825438374232,294.48150557429057,22.872138467122987,230.9140508096231,25.204984435101235
22.11147826845468,68.31912748256589,35.01320521101817,295.6784368768042,22.904746495585062,234.2302825320364,25.240413529895434
22.19927519787571,70.79545178776054,34.936055978242145,296.734927840966,22.94161037076587,237.42855851428996,25.274214222774585
22.295816942621695,73.35938921442353,34.85132844987547,297.65400027751724,22.982434957317636,240.5012069717672,25.306258279858646
22.400756888304304,76.00404060764352,34.75934246552599,298.4387385715233,23.026932489672618,243.44082487590325,25.33642781922931
22.513678930998342,78.72223314029281,34.660499610947646,299.092138179359,23.074856475827104,246.2402755617533,25.364613903248994
22.634095882937583,81.50655288393664,34.5552581448597,299.6170447463834,23.12606794436018,248.89268981424013,25.390707023269663
22.761455119936358,84.34932757904755,34.444104063984256,300.01618548093876,23.180592119420947,251.39155678810735,25.414595899564418
22.895154593724758,87.24264395775599,34.32753343273679,300.29221825362697,23.238630611948217,253.73087306907283,25.436179592800837
23.034558562693224,90.17838648751676,34.206046226221055,300.4477931220189,23.300561917192894,255.9052318343586,25.455379155652484
23.17900190717767,93.14825960929579,34.08013896602719,300.48568255852143,23.36696259087503,257.90983565423045,25.47213514571351
23.32779025255865,96.14379177333271,33.950291347676746,300.40891785601735,23.43861840746525,259.7405310107469,25.486396065354135
23.48021675833798,99.15633349082078,33.81696147139283,300.2208348053032,23.51649073275267,261.3939338191029,25.498113948242416
23.635599958071424,102.17707695525814,33.68060009571831,299.9250653666166,23.60165239910758,262.86760985788794,25.50725262428878
23.793316571916158,105.19712825033686,33.541670266910785,299.5255516073302,23.6952220073249,264.16018319764487,25.513796020864724
23.95280562860481,108.20762977045426,33.40065348934942,299.02658876123724,23.798308176187575,265.27128956050524,25.517744143722137
24.11355162606538,111.1999436786255,33.25804219029562,298.43288278452826,23.911968421661733,266.2014302279577,25.51910190374861
24.27506777992185,114.165896611356,33.11433517939015,297.74959672705324,24.03718762205038,266.9518163012384,25.517876244179064
24.43688748487658,117.09796964124304,32.97004656753678,296.9823362634125,24.174872341918924,267.52424578482635,25.514086994406323
24.598558570007338,119.98933054065306,32.82571437004035,296.1371050618323,24.325847004061906,267.9210238462217,25.507778023393058
24.759634528543227,122.83377504972016,32.68189132305641,295.2202983619227,24.490840450826433,268.14490867627933,25.49901446949331
24.919663181047145,125.6256817183371,32.539125235962324,294.23866533794717,24.670462398870185,268.199088347789,25.487870529041448
25.078178213690574,128.3599850461802,32.397951441314596,293.19915644338334,24.86517582238449,268.08723974977846,25.47442369006855
25.234700832360133,131.03211578041083,32.258904173780046,292.10872181437156,25.075272600916716,267.8136432493541,25.45876149700975
25.388750490129546,133.63789096925643,32.122527059789796,290.9741650187161,25.300859340896615,267.38321944033936,25.44098879605701
25.539851752317844,136.1733995975429,31.989363031447176,289.8021212516598,25.541854517722253,266.80143819021515,25.421222768652925
25.687529377555464,138.63493844955482,31.85993166768868,288.5991585135948,25.797989696188193,266.0742137233329,25.399581050309276
25.831300256938505,141.01899633844272,31.73471942262303,287.3718589732785,26.068812371617312,265.2078866084226,25.376178222198515
25.97067596103891,143.32224047260073,31.614192603163538,286.1267523495451,26.35370355936408,264.2092587521483,25.35113488214213
26.105176499350666,145.5414827715489,31.49881270329741,284.87014956550564,26.651921106691642,263.08560033897663,25.324586249225703
26.234341086418766,147.67364997125725,31.38903089895295,283.60797732343434,26.962652271745664,261.8445916026574,25.296677760326165
26.357726665349148,149.7157964221442,31.285264271558475,282.34564367112523,27.28504337868957,260.49422355133004,25.267552821974764
26.474901751005024,151.66518281891558,31.1878719132692,281.0879237898637,27.618197988765974,259.0427381159458,25.23734845453583
26.58544780974995,153.51938656742152,31.097143998352138,279.8388591677543,27.961166003079978,257.49865147126945,25.206204088578648
26.688969074242056,155.27636366916428,31.013302774427288,278.6016828854573,28.312942573711393,255.87080495027067,25.174270099197813
26.785099723385347,156.93442433709862,30.936503308369623,277.3787989071735,28.672472700516195,254.16839098961412,25.14170255577277
26.87350132792717,158.49215060215943,30.866828532718813,276.17185007262697,29.038653713985635,252.4009671017774,25.10864991881125
26.953859698101894,159.94829593671543,30.804290087850557,274.9818613911628,29.410340415572772,250.57845620393454,25.075248431043796
27.025896180545082,161.30169822885128,30.748845048929518,273.80935336783955,29.786358612416624,248.71107884251134,25.041631460963593
27.08939146766039,162.5512502045631,30.700416978113818,272.6543572228049,30.165521412769536,246.8092019056686,25.00793923298334
27.144200865985706,163.6959659249921,30.65890283725641,271.516398089753,30.54663725779079,244.88317993765503,24.974315420427043
27.19024817403173,164.7351022789144,30.6241678603357,270.39452158094446,30.928506384602112,242.94326567667088,24.940895641605543
27.227507022564545,165.6682278630878,30.596044669111425,269.2873799155908,31.30991420057514,240.9996035433564,24.907803093459034
27.255983372453596,166.49519466602678,30.574340100833123,268.193377084056,31.689631530776563,239.06226746783642,24.87515564526215
27.275706282414895,167.2160711991767,30.55883795192683,267.1108248422385,32.066420677008125,237.1412630603156,24.84307214084582
27.286729767722623,167.83112358473778,30.549290791073574,266.03804006176216,32.43903805636427,235.24644924729662,24.81166643079378
27.28914135170897,168.34089985264822,30.54540967369158,264.97337425429834,32.80623352504337,233.38741683706206,24.7810343426704
27.28306736351889,168.7463945116043,30.54686889543871,263.91518318333095,33.16676047500536,231.5733717446003,24.75124894413733
27.268675307643306,169.04918559464335,30.553329342844787,262.8617701252134,33.51940095574883,229.81303900813322,24.722370529627735
27.246181874450134,169.25144597832775,30.56445875769833,261.81143965202904,33.862987472512664,228.11459211543792,24.694459383920123
27.21586196722885,169.35585975373195,30.579930443095602,260.7627221632408,34.19640706451833,226.48560514587453,24.667575690396824
27.17804722697401,169.36559871188064,30.599412255370893,259.71457771842097,34.51859463620347,224.933008437106,24.641768406542198
27.133118378115324,169.28447233955305,30.622567509300797,258.6664080591576,34.82852643955278,223.46302148826123,24.617069828516236
27.081501672149248,169.1172248007917,30.649066957956826,257.61797259712665,35.125216649265425,222.08107613126572,24.593504250617368
27.02366664515754,168.86984798130257,30.678592678981623,256.56935424572765,35.40771667154959,220.79180423201586,24.571098908719758
26.960122217259226,168.5497091408331,30.710827841679134,255.52098051816992,35.675117385200544,219.599146145175,24.549882779767724
26.891416861064247,168.16539662691545,30.745449088088428,254.47370138140778,35.926555232438254,218.50654637776867,24.52987603086935
26.81813945159707,167.7264277037701,30.782132978438394,253.42895601883535,36.1612197176399,217.51714870911366,24.511084352970677
26.740911116044742,167.24297576524387,30.82056460610087,252.3889305717739,36.37835771455998,216.63390962524542,24.49350416448138
26.660376322699147,166.7256132306705,30.86043429636214,251.356573310376,36.57727710534462,215.85962381399838,24.4771287506007
26.57721105161326,166.18505963965006,30.901430467449458,250.33551628595072,36.75735371084136,215.19690907155942,24.46194450186156
26.492142120989136,165.63202427434442,30.94325332261213,249.33001276973246,36.918034387988286,214.648139672583,24.447921043995418
26.40595068334656,165.07718352910618,30.985660583384174,248.34487657025068,37.0588314917034,214.21530215408228,24.43500821982432
26.319451955122812,164.53119079744204,31.028519673239632,247.38540173642122,37.17932145312325,213.89981825882452,24.42314442442176
26.233472627335615,164.00466151040172,31.071827425893172,246.4573223968187,37.27915875127335,213.70239875808429,24.41226486546684
