HandOpen,HandClose,Wrist Flexion,Wrist Extension,Supination,Pronation,Rest
116.57647590531832,24.781550984251965,54.20406627029288,78.27902086699068,45.69346728507642,20.375237342040474,20.262510031094937
114.45768354030695,24.8966425014293,55.90165766455167,79.70562250440894,45.97010685062855,20.34033050862884,20.25488623052221
112.3248182808285,24.999888702983036,57.56167145586562,81.0786338485709,46.25228257830544,20.322919108411696,20.24125323487096
110.18072076788759,25.091249698509568,59.177116788301745,82.39356822597975,46.53913888276045,20.322493350531555,20.221602742625475
108.02818180805805,25.17072981404663,60.7418906447387,83.646525396027,46.82969565186082,20.338478117498816,20.195946818802835
105.86992799278431,25.238368208189783,62.25078177952088,84.83419553383555,47.122843236849484,20.370230591617315,20.164319111472196
103.70860236375997,25.294238176733955,63.699394150571514,85.95392502538456,47.41735796575059,20.417041439256547,20.126770429912284
101.54675489950809,25.338464354643307,65.08404800883267,87.00376909797643,47.71193525126548,20.478133556760653,20.08336628161757
99.38685336065836,25.371244548422666,66.40171606178846,87.98249353295759,48.005219417539294,20.55266720294386,20.03419293987114
97.2313041722279,25.39285524691371,67.65000849272307,88.88956104556753,48.29581594762286,20.639778359439397,19.979368174652226
95.08246118267118,25.403642134335577,68.8271608890695,89.72509739244151,48.582300099203415,20.73865452545887,19.919045002665545
92.94261755459158,25.404013881254947,69.93198711725397,90.48980337361655,48.86324077137757,20.84860094744793,19.853404082893903
90.81399807165977,25.39444378533077,70.96381527977881,91.18483503017767,49.13723145168041,20.969054696445983,19.78264466430582
88.69876339644335,25.375465657946098,71.92242745817693,91.81169569076896,49.402904226069396,21.099557561311435,19.706986264688602
86.59901544177708,25.347656615967296,72.80799386086854,92.37215034128826,49.658920130664136,21.239717238552622,19.626679723784886
84.51678930322652,25.311616200101657,73.62099699231446,92.86814997333788,49.90395191202646,21.389171925194777,19.54201415985081
82.45403447705478,25.267952438131886,74.36216146509982,93.30175654532846,50.13668207229167,21.54756885917921,19.453312014743364
80.41259903664748,25.217273797783236,75.03240135552358,93.67507329575628,50.35582701313207,21.714562205498073,19.36091780423478
78.39422437272503,25.16017957409292,75.63277830594716,93.99018871996157,50.56017029506375,21.889817563671873,19.2651897480585
76.40054555901135,25.09724577978276,76.16445898913457,94.24913119820684,50.74857728089862,22.073004468622106,19.166496985634048
74.4330884781248,25.02901101109468,76.62867311928916,94.45382639842973,50.91998712317418,22.263775308885485,19.065217449371744
72.49326303518976,24.955969880700916,77.02668112998143,94.6060586057311,51.073399380447185,22.461742774253747,18.96173114612731
70.58236038338713,24.878576836135284,77.35975394778819,94.70744406840528,51.20786731187662,22.66646414627044,18.856410743653537
68.70156218594583,24.79725354056332,77.62915947304427,94.75941926137894,51.322495252051574,22.877432615863388,18.749616753195504
66.85195917044314,24.71239106391182,77.83615478208826,94.76323765788824,51.41643476107044,23.09407336361596,18.64170087938617
65.03456437020226,24.624347143389283,77.98198653453453,94.71996828282117,51.48888539614416,23.31574220588766,18.53301150321157
63.25031300839827,24.53344829152585,78.06789415442361,94.63049621947047,51.539107901726496,23.54172429627907,18.423893081303717
61.50005962199428,24.440004235338833,78.09510805098301,94.4955289704983,51.56644118728724,23.771232597456926,18.31468004021735
59.78458640650007,24.344326479366824,78.06484139580253,94.31560944942163,51.57031853072836,24.003410501833695,18.205693323191383
58.10462031104999,24.24673580907249,77.97827761985046,94.09112974749956,51.55031216242981,24.23734291153825,18.097245525221048
56.46084356475765,24.14755885158123,77.8365591415224,93.82233992779551,51.50622214143912,24.47207155396,17.98965050209356
54.85389106210882,24.047127659245753,77.64078465590775,93.50935414411747,51.43815595881621,24.706604499235702,17.8832273727007
53.28434532092642,23.94578675483348,77.39201594351323,93.15215979645508,51.346538849696586,24.939917743712734,17.778295792826878
51.75274064833651,23.843895823870607,77.091286275002,92.75063202309556,51.232067698173566,25.170957275286643,17.675169454126536
50.25957582458748,23.741820247959232,76.73960309655148,92.30455421567575,51.095656243026255,25.39864780233279,17.574155822475724
48.805333897380585,23.639917549597186,76.33794697668618,91.81364674838498,50.93839164038064,25.621905753787992,17.475561775777727
47.3905146892967,23.53853102454564,75.88727499605919,91.2776043130638,50.761503696833,25.839651530169416,17.37969635982222
46.015683780301096,23.437991114162983,75.38853260064037,90.69613440460968,50.56636076970422,26.050817315661455,17.286865034159
44.6815486622631,23.338615083112757,74.84266796466676,90.06898512457649,50.35450421676418,26.254349001097623,17.197360990720124
43.38907318591833,23.24069868872158,74.25064055938137,89.3959586280432,50.1276932639854,26.449204522670815,17.11146411826623
42.13960470618104,23.14450594248864,73.61342333556772,88.67691652501215,49.88791110251129,26.63435259424087,17.02944987778315
40.93497668066372,23.05026753749184,72.9320035618608,87.91178441798455,49.63731982807716,26.808774126507533,16.951597297007602
39.777571657711135,22.95818843111303,72.20738591355105,87.10056117286744,49.37819527692111,26.97146801904391,16.878186337416217
38.67032526862847,22.868454117789625,71.44059758654458,86.24333495491557,49.112874700935016,27.121464915859484,16.809489326332642
37.61671422986534,22.78122896433987,70.63269304293358,85.34029942294141,48.84372327860296,27.257849934705078,16.745767437776596
36.62087307052044,22.696652984976048,69.78475724625754,84.39176209353163,48.57310740225155,27.37978647869447,16.68727392464852
35.68784866687071,22.61484757036044,68.89791283663087,83.39814552136183,48.303373738441884,27.48653004053409,16.63425535117493
34.8237620949949,22.535929244332255,67.9733430539957,82.35998735941575,48.03683938600192,27.577428661310016,16.58694466717947
34.03573691334452,22.460017675075115,67.01233039193998,81.2779445323486,47.77577793332169,27.651915136377344,16.54555126957962
33.331698082033206,22.38722977418723,66.01628843923501,80.15280137749582,47.522385720085005,27.709497308812487,16.51025759421978
32.72013895703041,22.317668094468527,64.98676791841352,78.98547464549529,47.27874593858689,27.749749366201055,16.481223009668895
32.20985331168396,22.251415891787133,63.92544312568362,77.77701055242987,47.04682291105948,27.772305291075014,16.458585898283474
31.809661940281494,22.18854097728163,62.83409502471032,76.52857889740861,46.82848559643598,27.77685753497375,16.4424581424288
31.528195438294333,22.129099376049183,61.71459851014883,75.24147245006543,46.62551948390162,27.76316427300084,16.43291705121538
31.37373582281024,22.073130514236617,60.56891083955108,73.91711251734658,46.43960200088294,27.731069706266503,16.430003359367415
31.35407281612849,22.020647489278282,59.39905660581007,72.55705278055116,46.27226405568582,27.68054607237147,16.43372601001314
31.476362204232462,21.971633003642978,58.20711245070102,71.16297510413622,46.12486445669271,27.611749503546083,16.444064972766565
31.747015659178768,21.926043679518262,56.9951990208303,69.73668003377237,45.99857230601658,27.52505335876642,16.460967157436126
32.171628536077485,21.88381344844465,55.76548047701116,68.28007700778814,45.89434310054408,27.42103620623156,16.484342621084004
32.75491289519946,21.844848571758273,54.52016436281862,66.79517554936943,45.812891393490865,27.300442521088783,16.51407032556601
33.50062825933544,21.809019879313475,53.261496357740484,65.28407683564882,45.75467273294911,27.164145444149582,16.550011753903156
34.41155233077997,21.776162665819424,51.991750955971725,63.74896474172519,45.719880921888596,27.01312688410883,16.59202083375904
35.489524524752255,21.746085453582463,50.713225091281885,62.192096449655935,45.7084560661332,26.84847238488825,16.639942828218633
36.73554435970637,21.718578559634885,49.42823998125914,60.61579555108842,45.720093833917346,26.671365395133613,16.693607909579747
38.14986499854286,21.69341520304355,48.13914667848914,59.02245107350856,45.754251204200514,26.483070716588085,16.752830274360882
39.7320314777549,21.67034842703045,46.848327103854245,57.414520381052725,45.8101546620402,26.284909555255734,16.81741425315837
41.48090856192624,21.649113084240696,45.558186769866175,55.794528379982175,45.88682161471411,26.078231713160775,16.88715791262856
43.39478258029234,21.629435737383787,44.27114396926517,54.1650586738901,45.98310018277285,25.86438843753955,16.961848196726727
45.471487047394675,21.611043822117942,42.98962887208594,52.528739491318845,46.09771929320012,25.644709220611997,17.041252517779924
47.70842164410839,21.5936657966666,41.71609479347505,50.88822950196318,46.22933074745431,25.42049331132956,17.12511453314646
50.10245155247034,21.577025162059225,40.45302158881312,49.246206086505794,46.37653193091222,25.193033259853184,17.213155883940352
52.64979048747436,21.56083691436369,39.20289942252559,47.60535392343277,46.53787391306869,24.963663855892968,17.305078199399457
55.34596452632262,21.544810804066806,37.96821143405822,45.96835039451574,46.71186705728822,24.733795745211204,17.40056003616826
58.18586244667695,21.528657538217207,36.751434648677666,44.33784908643127,46.89699028141011,24.504907502827205,17.499251401168717
61.16380919522161,21.512090787368248,35.55504765592243,42.71646613667867,47.091697809352056,24.278510980944603,17.600773484100877
64.27366551391579,21.494824389359856,34.38152161793771,41.10677096078392,47.294416803742564,24.056112287189638,17.70472675247889
67.50899420300134,21.47657205816123,33.233295010382896,39.51127835055438,47.50354337761596,23.839175524510782,17.81070034932867
70.86321925152714,21.457054298330313,32.11275006945001,37.93243974203764,47.71745315455474,23.629089960661517,17.91827402221864
74.32967497361388,21.436006749035062,31.022196133885867,36.372635130423454,47.934529012763605,23.427141825955488,18.027014898203635
77.90154382239348,21.413181690139726,29.96385088399163,34.834168595049746,48.1531850863608,23.234492480799613,18.13647934649276
81.5717343766038,21.388342717174464,28.93981585075134,33.31926965801197,48.37186863559414,23.052164964430606,18.246223185249125
85.33275520932253,21.361259216143342,27.952051896291298,31.83009839551822,48.58904534469291,22.881038675374395,18.35581108890197
89.17662871396467,21.331707141339436,27.00236083906962,30.368747253538494,48.80318332106549,22.72184764904152,18.464816520865586
93.09485467617883,21.299476415503385,26.092374116077913,28.93723590514969,49.012746948381306,22.575178674893845,18.572815705211724
97.07840963773222,21.264377640903128,25.2235436882941,27.537503737513394,49.216202486453625,22.441471205378523,18.679385791887135
101.11776423041653,21.2262420242107,24.397130983415305,26.17140593070764,49.41202429414543,22.321021164671222,18.784111367875774
105.20290538261436,21.184917782212,23.61419658916655,24.840712656968986,49.598692445898266,22.213986654532416,18.88659252952865
109.32335655289951,21.14027144528463,22.875598330407616,23.54710541364683,49.77468898638814,22.120396324222888,18.98644569415816
113.4681905828333,21.092195963837746,22.182000163109652,22.292167016691717,49.938502148094926,22.040163684887354,19.083297931891824
117.62603374710015,21.04061715964388,21.5338821693464,21.077368910344813,50.08863760208501,21.973107896469543,19.17678464590936
121.78506882208002,20.98549150645661,20.931541401239393,19.904062090506557,50.22364098636884,21.918985516878845,19.26655802116033
125.93304887703113,20.926799282145033,20.375087290248228,18.77347348134697,50.342139410771516,21.87753353278747,19.35230045261927
130.05733372951107,20.864541488524605,19.86444275069676,17.68670416863943,50.442885497724944,21.84850311042194,19.4337295971292
134.14496339312518,20.798742317015066,19.399353601797355,16.64472612209932,50.52477691059049,21.831664576204904,19.510592415312008
138.18277772205207,20.72945079284818,18.97939746972497,15.648377671968323,50.58685421022337,21.8267904330721,19.582659522247344
142.15756323368336,20.656735872836002,18.603984694300518,14.698359748436598,50.62829828771467,21.833633209625397,19.64972786468024
146.05617819623606,20.580677485668765,18.272356389422576,13.795234383426065,50.64843172444931,21.85190669006322,19.71162593238728
149.86562526220285,20.501361989325126,17.98359217594674,12.939424905360008,50.646718349026855,21.881274484440954,19.768212393619837
153.57308859570622,20.4188873967474,17.73663085939674,12.131215713221822,50.622761891091095,21.921346481298883,19.819368419031534
157.16596697943874,20.33337307952059,17.530291450214705,11.37075086627174,50.57630393720113,21.97167685763275,19.86499215184366
160.63191861539138,20.244963314445442,17.363282866463784,10.658033872739217,50.507224207157044,22.031758191363135,19.9050012449567
163.95892381817984,20.15382164990411,17.234206673186915,9.992932907583736,50.415558421805294,22.1010155609193,19.93933826717548
167.13536511781894,20.06012462342817,17.14156290098228,9.375191429547556,50.3015349154291,22.17880787201992,19.967969264850616
170.1501071831952,19.964065734619794,17.08376220983308,8.804437031914503,50.16559792912073,22.264439213149377,19.990875120629283
172.99255467250006,19.865868094565805,17.0591446392237,8.280183248816657,50.00839270970506,22.357177191605142,20.008045029751653
175.65268629965612,19.765791298640483,17.06600243400286,7.801827990520005,49.83072949058475,22.456269122093232,20.019479667792496
178.12107952429858,19.664124613631834,17.102598846881055,7.368656139550573,49.633557214132544,22.560947965153474,20.025200577107128
180.3889396400232,19.56117435411186,17.16718421255757,6.979850215500522,49.41795253488905,22.670429433323733,20.02525496487942
182.4481367896379,19.45725672891205,17.258024457985794,6.634505513007025,49.18510710543107,22.78390794734946,20.01971150156334
184.29124153463334,19.35269796299505,17.373446587421572,6.33164140765565,48.93630269743497,22.900560850695882,20.008653295582775
185.91154912718153,19.247834103252256,17.511886892465878,6.070204549774274,48.67288265748407,23.01956772970841,19.992176254653234
187.30309379955494,19.143005672288144,17.6719228444414,5.849066555811624,48.396229840409404,23.140137681331677,19.970394023544696
188.46065915310368,19.03855347289488,17.852274062051304,5.6670208693434,48.10774661524198,23.26152619701476,19.943441952999958
189.37978869272948,18.93482269961498,18.051773710525826,5.52278222111502,47.80882832514116,23.3830336390671,19.911473549029402
190.0568009819826,18.832170214697562,18.269335279916504,5.414989549945228,47.500833466187196,23.503992493952033,19.874653399132786
190.48881212648192,18.73096395918961,18.503956735534324,5.342210319651326,47.18506119187686,23.623753000429478,19.833155862295534
190.67376029624876,18.631572408454222,18.754794538455165,5.302945198052212,46.862740903134544,23.741674894361605,19.787171042500017
190.61042408242358,18.534354737892137,19.021284249203937,5.29563617141322,46.535028264665776,23.85712810268385,19.736909131740664
190.29843508571463,18.439667708096863,19.30322925788456,5.318679722702264,46.202997371625735,23.96949519712288,19.682596007811668
189.73829296285027,18.347890518523407,19.600806262882585,5.37044007393641,45.86762549945475,24.078167811958476,19.624463917123336
188.93138399448506,18.259444746304016,19.91451946271389,5.449257046411221,45.52977701905192,24.18253930412517,19.562746286275843
187.87998970727853,18.174793062827657,20.245155681050402,5.553449734601354,45.190195133657426,24.282001546094637,19.49767950672846
186.58727266000224,18.094429788954773,20.59373596064604,5.6813215095039515,44.849503501236605,24.37595181330231,19.429505088254412
185.05724063144714,18.018878974863984,20.961438843845016,5.831169471313994,44.50821356625426,24.463808891807552,19.35846556468416
183.29469818949045,17.94869372164392,21.34950602370671,6.00129498844245,44.16673449200128,24.545032093825167,19.284796178476267
181.30519483606264,17.8844438805653,21.759155204194492,6.190009571201207,43.825383508552,24.61914052618785,19.20872071493841
179.09497961404767,17.826692682981122,22.19151282628052,6.3956351198056955,43.48439108880994,24.685730552128973,19.130457299000117
176.67096811059193,17.775973399305457,22.647569669517583,6.616502331679748,43.14389878547156,24.744482197205393,19.050229237547455
174.04071470242178,17.73277727513787,23.12815587700894,6.850951475411968,42.803956760971104,24.79514944254755,18.96827002452044
171.2123759868706,17.697554560862482,23.633934164237072,7.0973366211242785,42.46452743741773,24.837546412791294,18.884819412023106
168.19466208065708,17.670716617366477,24.165408126017933,7.35403036064229,42.12549227985898,24.87155247100872,18.800118065565144
164.99678428346792,17.652627782835562,24.722925254304915,7.619426177203845,41.78665799709333,24.89714463252379,18.71440940544193
161.62840613437618,17.643591226728926,25.306657724345772,7.891939976795829,41.44776684894072,24.914431958125054,18.627947265469146
158.09959760646123,17.64384021590487,25.916572457566698,8.170014600109786,41.10851412638545,24.92366156108161,18.540998664259348
154.42078841054348,17.653537669538252,26.552407802860337,8.452127665784648,40.768565415514615,24.925197529142817,18.45383736936453
150.60271892341606,17.672776594882915,27.213657235025103,8.73679863106771,40.427566654648174,24.91949084272629,18.36673789486627
146.65639355892472,17.701575075065914,27.89955596769063,9.02259253072175,40.0851483027819,24.90704928145856,18.27998009817965
142.59304117717815,17.739868466297295,28.609076174652174,9.308122031429113,39.74092818118181,24.888409274467403,18.193860564236942
138.42407751765253,17.7875069905225,29.340950349431047,9.592050247621325,39.39451713820799,24.86411169081267,18.108697921332535
134.16106081547818,17.844263552678164,30.093750664863347,9.87309670251985,39.04552748355751,24.834683695660903,18.024827249927885
129.81564017542038,17.909846059389345,30.866025671636244,10.150047502425979,38.69357813402448,24.800626558069077,17.942591612871446
125.3995035687814,17.983903657564515,31.656435774238545,10.421765634127423,38.338292934800634,24.762405705272528,17.862339755093878
120.92433151458194,18.06602526651338,32.46381303995732,10.687195460419705,37.97929589259996,24.720439565907917,17.78442817885606
116.40175781165007,18.155739235327445,33.2871424613648,10.945361548377798,37.61620737831382,24.675087935739487,17.709217657941714
111.84333374385663,18.252522262431558,34.12552560746868,11.195366913479566,37.24864202612132,24.626643330486388,17.63706092353413
107.26049078008533,18.355814703839975,34.97815738869543,11.436392807197674,36.87620943576078,24.57532756982025,17.56829093881881
102.66450115453326,18.46503099797062,35.844293696755734,11.667697693749087,36.49852015396173,24.521293711673056,17.503220020844974
98.06644064258991,18.579560282848018,36.7231952207336,11.888614049349021,36.11519655265537,24.464634961818096,17.442146888305672
93.47715570128169,18.69876514016183,37.614063007432016,12.098544886479365,35.725884672135045,24.40540080344887,17.385358273770738
88.90723156012615,18.82198890222027,38.51598316078899,12.296962644537086,35.330265954583254,24.343615527374837,17.33311957258452
84.36695876820325,18.948570537545287,39.42788570972123,12.483411069281072,34.928069873209715,24.279300309569468,17.285664978888377
79.86630191583741,19.077855061479745,40.34851599725482,12.657507146647555,34.51908323762793,24.21250333661626,17.24319904098445
75.41487803247273,19.209193224570786,41.276414896342374,12.81893947245503,34.10315183260924,24.143327666534773,17.205906579125227
71.021947119192,19.341938838527117,42.20990741703435,12.967464228861365,33.68017680036638,24.07194205669827,17.173957347526844
66.69640525253877,19.475453990689704,43.147105040876035,13.102904098694568,33.25010945393738,23.998574234082863,17.147500102857197
62.446768771676616,19.60911980709498,44.08592264828669,13.2251523829668,32.812945668116846,23.923495705099402,17.126654779617507
58.28115091949639,19.74234180997108,45.02410221717387,13.334177436827023,32.36872079543033,23.84700867371902,17.111511810702332
54.20724156768249,19.874546706572975,45.95924570245377,13.430020988079901,31.917506551390076,23.769439336071187,17.10213636752239
50.23229597191914,20.00518009593327,46.88886725805597,13.512790068125907,31.45941047233416,23.691133887718696,17.098569250212208
46.36312725658625,20.133712549304374,47.81044914204426,13.582648005332551,30.994576631141346,23.61246002743266,17.10082220688193
42.606093656940594,20.25964740301288,48.721470131245894,13.639809087773955,30.523185565387074,23.533818156391668,17.108873961633506
38.96708008830533,20.38251964485767,49.61940299449834,13.684535990332032,30.04545352079289,23.455648457190605,17.122674504529225
35.45148316821037,20.501887676110748,50.50170137496252,13.717135794860706,29.561633812002146,23.378419396007022,17.142157292945026
32.064208327215155,20.617330367472523,51.365789513552244,13.737953122115243,29.072021733319836,23.302604198589286,17.16724917807601
28.809676112762617,20.72845660698109,52.20906018886169,13.747363284797062,28.576959921161237,23.228657655665067,17.197869775230814
25.691825287978165,20.834919036060732,53.02889107148513,13.745769600638702,28.076840405483512,23.15700065367745,17.233924810038086
22.71410755320301,20.936417932412226,53.82268475819793,13.733605732894372,27.572103176997864,23.08802132163655,17.275304563916983
19.87948324389832,21.03269410450678,54.58791979900975,13.711338392608605,27.063232544382153,23.022093251599504,17.321889503465933
17.19042807953408,21.1235233393634,55.32219398697824,13.679464960162987,26.55075141567987,22.95959324342547,17.37355274968156
14.648947221718934,21.208721396124908,56.02324850486131,13.638506956006864,26.035213925941324,22.9009053246892,17.430151948701194
12.256584527290327,21.288153016348126,56.688973004067606,13.58900588431234,25.517198280556144,22.84641671799411,17.49151658575046
10.014423161635698,21.361731553888696,57.31740094439018,13.531524703141407,24.99730147763258,22.796510534087187,17.55744158969784
7.9230859863018415,21.429408204789755,57.906702442140066,13.46664975704895,24.476135883925274,22.75155117274038,17.627690019830528
5.982744910680239,21.491173887114037,58.4551793713841,13.39498691627334,23.95432693590855,22.711864038493694,17.701997338259854
4.193137080078765,21.54711075084807,58.961267362216596,13.317152609726547,23.43251175870441,22.677718182522156,17.780069494839253
2.5535767035232038,21.597493976357672,59.42354280506295,13.233764203440863,22.91133757025025,22.649316024109915,17.86157671761965
1.0629583419797974,21.6428901786002,59.84073131977195,13.145432702406854,22.391457462552015,22.62678679575861,17.946152083415043
-0.28023886151913285,21.68422492516286,60.21172044223573,13.05275854764065,21.87352367644434,22.6101807812621,18.033399618798263
-1.477935974651606,21.72283543002678,60.53558733894965,12.95632919224641,21.358181765273102,22.59946736422157,18.122905206985823
-2.532431061466227,21.760500607239884,60.81165303663831,12.85671613503609,20.846068137628134,22.594539421288946,18.21424055628952
-3.446379333456213,21.799457619196033,61.039548981992716,12.754470613495508,20.33781038111173,22.595220598372705,18.3069609270958
-4.222781693776356,21.84244207911863,61.21925711402871,12.6501203116235,19.83402739229584,22.60127421182018,18.400606234707364
-4.864976282162139,21.89272407959053,61.35110261456666,12.544169667258943,19.335326618001737,22.612416094744624,18.494709930963708
-5.376624633131218,21.954088252209676,61.435711200057796,12.43710135697115,18.84229910633322,22.628326431508224,18.588808145223368
-5.761689623803758,22.030773850471824,61.4739532208967,12.329374117850598,18.355515148143148,22.648655865747127,18.682440633679022
-6.024410777990483,22.127451872803096,61.466893568788926,12.22141722108229,17.87552155456347,22.673036072495,18.775145585285063
-6.169283693893316,22.249310062342545,61.4157624319859,12.11362625266719,17.402839367829195,22.701104100642347,18.866457381183658
-6.2010435020388215,22.402190264183247,61.32194744958005,12.006362222880904,16.9379608840477,22.732527502823288,18.9559131914297
-6.124646659533074,22.592640757177733,61.186985674570785,11.899951671341245,16.481347119551348,22.767012172063808,19.04306411091588
-5.945247012381174,22.827884686916356,61.012541657691294,11.794685170329734,16.033429075982102,22.804296027881705,19.12748100707513
-5.668168743096555,23.115806371726006,60.80038876553876,11.690814304331475,15.59461425453701,22.84414152837984,19.208752021049783
-5.298882203199189,23.464931810346663,60.552405082078494,11.588549657895175,15.165294087857161,22.886328423238538,19.286478176993356
-4.842984241897954,23.884298367306712,60.270563927347226,11.488062675566276,14.745846294527121,22.93064222148786,19.3602749766742
-4.306178321362583,24.383207472870026,59.95690375102125,11.389490818016425,14.336631278592,22.976859508047166,19.429779800524244
-3.69424937424183,24.970931849184314,59.61348945542222,11.292941826362085,13.937986301008152,23.02473611586633,19.494656329116957
-3.013034815539778,25.65642796572659,59.24238032277877,11.198494907898207,13.550221323773373,23.07400437116763,19.554591705969596
-2.268398369273064,26.44807611573508,58.84560967148567,11.106200633134025,13.17361779034055,23.12437837054375,19.609294451792408
-1.4662104928888184,27.35346024138092,58.42517617289875,11.016081705983272,12.808428615952295,23.17555722266652,19.658501954935716
-0.6123314814487053,28.379193577385436,57.98303953387381,10.92813581432825,12.454877417027417,23.227221592724092,19.701993864649506
0.28741071621061887,29.53079257504263,57.52111302978673,10.842340423566037,12.11315782313189,23.279031916414198,19.73959946947968
1.2272494818074446,30.812591494963854,57.04125453548719,10.758656925364294,11.783435725569936,23.330634406936568,19.77119444210939
2.201505972513365,32.22768030984688,56.54525878993523,10.677032714462714,11.465854706786489,23.38166941936495,19.796694744117005
3.2046050165541944,33.77785551304242,56.03484864849655,10.59740574875259,11.160540726997093,23.43177633216319,19.816057083861338
4.231083976357182,35.4635891598102,55.51166365540715,10.519717425217328,10.867603010656948,23.480595786877352,19.829284809925962
5.275604468059313,37.28402539329402,54.97724856407829,10.443930245796698,10.587132225119447,23.527773942466858,19.83642942448059
6.332973722670143,39.237002096955074,54.4330446427575,10.37003930391329,10.31919851865328,23.572973314583262,19.837583571971763
7.398171451675021,41.31910168974566,53.88038198362036,10.298073745801117,10.063850570863064,23.61588784250857,19.832873243548764
8.466369505421502,43.52577035375271,53.32047081421073,10.228094990807566,9.821115226697028,23.65625515826844,19.82245810593238
9.53293879261405,45.85151247989364,52.754395488429815,10.160196628994182,9.590996542933816,23.69386374369709,19.806537601635906
10.593451751278877,48.290065270234756,52.18311790969864,10.094502398956399,9.37347316894947,23.728553440245665,19.785351584558125
11.643688697395767,50.83447112363093,51.60749261345703,10.031158534369467,9.16849443424442,23.760206417278532,19.75917088487209
12.679645018446118,53.477081053620665,51.028287794130506,9.970323785553155,8.975977235164791,23.788732643763673,19.728286145413616
13.69753291854282,56.209554768195325,50.446203425111655,9.912162979231326,8.795804877417247,23.81405706803346,19.6930044860292
14.693779436984386,59.02288183059919,49.86188320838157,9.85684613682929,8.627826484968326,23.836110172138763,19.653653264134093
15.665028704518129,61.90742342940761,49.2759292942967,9.804550098502299,8.471855833655162,23.85482172133822,19.610581945181952
16.608153632025715,64.85296465084765,48.688926324629016,9.755457678221125,8.327671398020724,23.870119947504367,19.5641557285999
17.520272147068752,67.84876743816002,48.10146019186371,9.70975263658878,8.195020539122051,23.881938031161447,19.514744696194395
18.398756169692533,70.88362471528622,47.51411750446796,9.66761348520299,8.0736275728334,23.890224933392428,19.46271828088185
19.24122867636475,73.9459225086833,46.92747443404875,9.629211045970116,7.9632009620136195,23.894952260551985,19.40844808819409
20.045557176114993,77.02371464471189,46.34208953657151,9.59471222901986,7.86343535395671,23.896112197712146,19.3523104281923
20.809852619854567,80.10480521554013,45.758509548945675,9.564285832683108,7.774009259148518,23.893710337403924,19.294680966341915
21.53247152429165,83.176827100525,45.17729052762294,9.538103379225651,7.6945819454182205,23.887757979351793,19.23592559727063
22.212013204835664,86.22731199406431,44.59902228912373,9.516335058310846,7.624792212075608,23.878264404941525,19.176396788206223
22.847310592990297,89.24375968616246,44.02434380264729,9.499148779255068,7.564259968845292,23.865229682059127,19.11643756465817
23.43742136078504,92.21371557084976,43.45395584111404,9.48671812879341,7.5125896988167336,23.84864170055676,19.056385430400983
23.981625509687657,95.12485386982841,42.888636339164314,9.479233779086117,7.4693737990784985,23.82848471549812,18.996569116980286
24.47942728749402,97.96505390825654,42.32924537578117,9.476906645720252,7.434194567248877,23.80476146423399,18.93730102495806
24.930552968558988,100.7224630758695,41.776712938570846,9.479959618644365,7.406625475874192,23.777514302337448,18.87887386934409
25.334939417598854,103.3855538974958,41.23202667284146,9.488616451109815,7.386232947416406,23.7468279254226,18.821563937471403
25.692717853263115,105.94318482751255,40.696232039555916,9.503096364291984,7.372578120362489,23.712815208317707,18.765633192883236
26.00420314280572,108.38468870982358,40.17042840186114,9.523613133127546,7.365217512875807,23.67559909960394,18.71132404227088
26.26989303683803,110.70004598966882,39.65574306623694,9.55037120540279,7.363704012104943,23.635297701406188,18.658851468319007
26.49046803288694,112.88014041198971,39.15329123276822,9.583556083044533,7.3675904306448725,23.592013033596626,18.608401160105114
26.666780596100914,114.9169611888029,38.66414082513683,9.623323857223431,7.376434567072504,23.54582248295696,18.560136383583526
26.79983678080599,116.80364446079872,38.18929154246022,9.66979608232374,7.389802840345421,23.496772625121885,18.51420727418991
26.89078263109668,118.53440529379809,37.72966347957624,9.723060750850713,7.4072717527900895,23.444875265212108,18.470753553050006
26.94089875110469,120.104448833473,37.28608405301897,9.783173384978591,7.428428370478417,23.390104725235275,18.429899259879154
26.951593482847617,121.50988952415173,36.859270451937086,9.850152683079903,7.452870537523483,23.332397055985137,18.391746354953952
26.924387456564986,122.74768334614501,36.44981641189664,9.923972648804163,7.480206601439411,23.271655077494806,18.35637456944965
26.860893791830435,123.81557813835171,36.05818989071089,10.004557722102225,7.510054476772612,23.207760023285424,18.323847052780767
26.762802678649784,124.71207636266594,35.6847392464246,10.091784155273606,7.542040595627597,23.14058514665749,18.294213353372868
26.63187360525033,125.43639479861312,35.32970201389433,10.185483807285257,7.575799737263725,23.070013946891464,18.267505578917373
26.469929237858118,125.98841453590876,34.993209651192096,10.285444481211837,7.6109762599111495,22.995970492699392,18.243735031070347
26.27884319154127,126.36863121317818,34.67528630243055,10.391406676462246,7.647225916794926,22.91845090803532,18.222896616539074
26.060522652522327,126.57811499777242,34.37584930013717,10.503062135271092,7.684216764066394,22.8375366173453,18.204976156463974
25.816894323906507,126.61847612283643,34.09471727579224,10.620058003222386,7.721628634792393,22.753392775972408,18.18995073409514
25.549899072180335,126.49182787934421,33.831622134171944,10.74200379727556,7.75915185890872,22.666265909195214,18.177781739928804
25.261490170480755,126.20074755280464,33.58622324536664,10.86847531589431,7.796487016823094,22.576477600172122,18.168409408943546
24.953625765843544,125.74824225864823,33.35813017243274,10.999014276716036,7.833348114053403,22.484405633750413,18.161754652971503
24.628253988235492,125.13772487273962,33.146934987596595,11.1331273717028,7.869469164401571,22.390457333330197,18.15772358750696
24.287299573698686,124.37299762457614,32.9522444065667,11.270288170283571,7.904610718338835,22.295045892682747,18.156206209107932
23.932663152823533,123.45824149809147,32.773706035821064,11.409942452585618,7.938563367934541,22.198576594029426,18.157068720665958
23.566231789218943,122.39802551101147,32.611026589096745,11.551514674657207,7.9711482916032965,22.101443229368513,18.16014747446547
23.18988437453698,121.19734669174355,32.46397137922201,11.69441258147866,8.002216295438512,22.004031690409573,18.165251421290005
22.805482919778854,119.86169204067501,32.33234197474062,11.83802905097861,8.03164697295909,21.906735018854,18.172171628838363
22.414861101017227,118.3971192018441,32.21595020230512,11.98174263556528,8.059349033615392,21.809981840340033,18.18068911603114
22.019822096447626,116.81034351013237,32.11460721465542,12.124918833971028,8.085260739721013,21.7142599871852,18.190574559581655
21.62214048403888,115.10879443988927,32.02812612829383,12.266912520617693,8.109348770904775,21.620120114786474,18.201583424433405
21.22355668305966,113.30063136045779,31.956321875053348,12.40707077576962,8.131606744338793,21.528167296944243,18.213455865955574
20.825763344641878,111.39474270915701,31.898998490946347,12.544736842771723,8.152056294325801,21.439047610936083,18.22592502151372
20.430392841048572,109.40073633683511,31.855932753168446,12.67925821682988,8.170750054365014,21.353425928065516,18.238726332648007
20.03901358567084,107.32889960629204,31.82686544698342,12.810000556633797,8.187772041837663,21.27195755340153,18.25159915758361
19.653132947971564,105.1901112368986,31.811496755769088,12.936362722852444,8.203233172008062,21.19526345845666,18.2642820706689
19.27419588575945,102.99571211681007,31.809480815416855,13.05778460743305,8.217264333672844,21.1239145853614,18.276511092828198
18.903573206163237,100.75734765343614,31.82042190633945,13.173745402723483,8.230010280168734,21.058423999404223,18.28802604459721
18.542545922856597,98.48679177756615,31.843872519089075,13.283758009184526,8.241626034758253,20.99924318936208,18.298579089151172
18.192296491392227,96.195774226651,31.879336705026407,13.38736620161186,8.252276207344067,20.946759156724113,18.307936379549805
17.853910737061245,93.89583158702214,31.926286135313205,13.484146118554198,8.262135328566728,20.901289544533274,18.31587296230069
17.528384327966954,91.59818379108219,31.984185341092836,13.57370839868294,8.27138628315426,20.863074688964677,18.32216971496265
17.216625036752774,89.31362576794018,32.05251440152957,13.655697543071309,8.280217339026287,20.832268592192626,18.326618228764602
16.919449947903782,87.05242827004636,32.13078642785028,13.729789956954956,8.288820641640642,20.808933052037712,18.32902856585787
16.637586087896896,84.82425216075166,32.21857291011807,13.795693912033217,8.297391918537848,20.793036869274385,18.32923041447926
16.37167984742762,82.63808304915857,32.315539295713194,13.853151331409563,8.306128863419312,20.78445714710462,18.327066928727085
16.122307094801165,80.50218606989648,32.42146164763392,13.901938709692963,8.315227513596287,20.782979670171596,18.322390418472228
15.889973695060926,78.42407236880703,32.53620483927412,13.941866071286732,8.324877454578685,20.788299173308936,18.315067474656516
15.675109450571712,76.41047039631681,32.65968170127814,13.972775543126025,8.335256829589289,20.80002422705249,18.304989527601073
15.478066849362873,74.4673043382506,32.79181909623527,13.994541241365788,8.346527690712938,20.81769660193872,18.292077476572633
15.299128416360574,72.59969490828055,32.932543503213275,14.007070345146195,8.35883158792947,20.84082962995876,18.27627595723207
15.13851342311749,70.8120083533121,33.08179062835387,14.010304011826209,8.372285989481743,20.86894883519235,18.25754410782453
14.9963749308429,69.10794964218115,33.239531588950825,14.004217442078339,8.386982684418115,20.901611488349197,18.23585188895495
14.872790539497931,67.49064153732031,33.40580046192979,13.988819762333419,8.402988125993954,20.938404935161202,18.21118383532435
14.767756895365522,65.96264744508065,33.5807142464173,13.964154406493515,8.420344429747539,20.978941013428948,18.183543648071872
14.681193394696262,64.5259635729731,33.764485220824675,13.930299594989481,8.439069829473016,21.022854673745478,18.15295301008018
14.612950556547295,63.18201683441187,33.95743012851144,13.887367902653079,8.459158707545193,21.069803471093227,18.119446366815975
14.562814002193813,61.93166946763284,34.15997295042555,13.835504243175375,8.480582386008148,21.119465327250772,18.083069398233484
14.53050227297434,60.77522049912017,34.37262424718375,13.774882698353528,8.503291362218174,21.171533152317455,18.04388484860823
14.515665957656648,59.712407987452316,34.59593053017494,13.705704188568886,8.527217759960651,21.2257044240602,18.001979092487765
14.517894341464043,58.74242230479033,34.83041152332682,13.628197817547436,8.552275498699915,21.28166766014645,17.95746035769921
14.536725708484484,57.86394553750815,35.076504917824415,13.542626103592537,8.578357809201044,21.339090953091503,17.910450281075157
14.571651975974692,57.075245463710075,35.334525883488624,13.449289320471602,8.605335092019931,21.397615951167154,17.861080308340124
14.622115296995005,56.37431959306874,35.60464149875365,13.348524112158948,8.633055967258034,21.456860361521255,17.80949859302842
14.687505139986609,55.75903621593721,35.88685498910323,13.24069754619701,8.661351345935966,21.516433630429173,17.755878412001753
14.76716535693906,55.22729159705709,36.18099233892656,13.126201839052673,8.69003943150788,21.575961223352447,17.70041721125273
14.860408935892526,54.77727153706265,36.486688573370486,13.005453474778784,8.718929652476978,21.635100459074962,17.643328124444846
14.966527983140391,54.407784917119734,36.80337667709145,12.878895613498315,8.747824451749851,21.693539130292073,17.584834409191323
15.084792097098761,54.118515371426405,37.130283304321274,12.746998494797134,8.77651958201522,21.750985090610925,17.52517135212223
15.214442083111017,53.91009837348197,37.46643212580404,12.610254497076852,8.804804817473252,21.807155146081854,17.464587985590693
15.35469113365477,53.78406668996904,37.8106506336679,12.469171183925457,8.832465956145034,21.861766290710797,17.40333993265042
15.504735518681086,53.742762014922306,38.161576121713345,12.324268211391946,8.859287447521837,21.914534846354723,17.341676613022884
15.663763279825144,53.789258221068856,38.51766277773848,12.176079167720347,8.885054953353695,21.965186007548432,17.279833955083348
15.83095224373535,53.92727197522679,38.87719605070822,12.025153308130731,8.909557681205648,22.013466429674892,17.218037150879
16.00546250938564,54.16102931684091,39.23831620513383,11.872052261011802,8.93259049676419,22.05915134754537,17.156505062333466
16.186432191690944,54.4951363076665,39.59904458890848,11.717342788993477,8.953955821329618,22.102043157302926,17.095446824988002
16.372978257227302,54.934527703780404,39.95730468905631,11.561591845826204,8.973465186004102,22.141962632843924,17.03505268928446
16.56419844529426,55.484441916902114,40.31093794572438,11.405368849659425,8.99093993596617,22.178737393761672,16.975487916627692
16.75917071404723,56.150348730456535,40.65772074342643,11.249252016653362,9.006210821109873,22.212195379457548,16.916894035439874
16.956951955018233,56.93787949663392,40.99538913493449,11.093830143454747,9.019118443528404,22.24217322776264,16.859393122437023
17.15658079828407,57.85278498393435,41.32167715926881,10.939696274516182,9.029518589338092,22.268539099919515,16.80308867120593
17.357085525550854,58.90085338998107,41.634365805872555,10.787438484116878,9.037292794162102,22.29121101956945,16.748063405045688
17.557492678469718,60.087764575021566,41.9313231901661,10.6376352155335,9.042357552956252,22.31015547115078,16.694380609260513
17.756831792836252,61.418909799191425,42.21052154734021,10.490855894920667,9.04466613347923,22.32537135451808,16.642093877636487
17.95413638503861,62.899192627394335,42.47003905029544,10.347659865832695,9.044204149288827,22.33687212721926,16.591260713474878
18.14844799255809,64.53282639651324,42.708066516742456,10.208589084261492,9.040983200039719,22.344675709623953,16.54194873599564
18.33883173650586,66.32315303372694,42.922945022321045,10.074158418040627,9.035035458516438,22.348804558655637,16.494231258742055
18.524400210134516,68.27249383324607,43.11323826014846,9.944849313507126,9.026410459324559,22.34928835076756,16.448181978678658
18.70433099711773,70.38202464569157,43.2778017319143,9.821107283739016,9.015173452176823,22.34616102527964,16.403877827207545
18.877871063903207,72.65167664979079,43.41583187462248,9.703339193277124,9.001403690053243,22.33945300569581,16.361406390886863
19.04433641255383,75.08007527366752,43.52691884602021,9.591908010373439,8.985192001499158,22.32918409903598,16.320867571078576
19.203116221643974,77.66450746943998,43.61109958289098,9.487128187076033,8.966638349175373,22.315359662637025,16.28236656797733
19.35367944282113,80.40089783533156,43.66889258636487,9.389267489545407,8.945850220745024,22.29797074380563,16.24600585477914
19.49557510242849,83.28380263585238,43.701340711906745,9.298556258487848,8.922941175480004,22.27700248566082,16.21188472509184
19.628423609068307,86.3064358901709,43.71009036094898,9.215197041761755,8.89802804561707,22.252452384120634,16.180105296006964
19.751906101829924,89.46071283318629,43.69745693078122,9.139368011479544,8.871227083637006,22.22434933982295,16.150775134426056
19.86576046643256,92.7372918277011,43.666394068313615,9.071221531118976,8.84265121106606,22.192768649269194,16.124001112798783
19.969783903102883,96.125618414439,43.620368047297795,9.01088313730995,8.81240970492095,22.157846876765415,16.09988040864712
20.063832895476782,99.61398368527857,43.563211906485385,8.95845400887595,8.780609338325014,22.11979019742065,16.07849786672379
20.14781518835397,103.18960449340923,43.499014808474854,8.91401503470255,8.747355333197044,22.078866756029058,16.0599310444354
20.221679134592662,106.83872700876326,43.43206306075214,8.877627252844693,8.71275173471997,22.035388478361575,16.044254670960477
20.285408632234034,110.54674313220941,43.366817995921124,8.84932676199213,8.676901440457813,21.989691310992423,16.0315373719392
20.33902457903656,114.2983041314761,43.30788157357551,8.829118346733956,8.639905674327867,21.94211666215295,16.021834038266483
20.382585089060772,118.07742804556217,43.25992136288906,8.816972933401011,8.60186260954888,21.892998199193507,16.015182909125745
20.416178298930344,121.86760930613306,43.22757874198255,8.81282906204871,8.562865051490242,21.84266028868989,16.01160927562124
20.43991220608792,125.6519370728257,43.21537800330687,8.816594257787976,8.522997127546896,21.791425285508076,16.011127628454737
20.453911182721015,129.41321974662296,43.22763112816872,8.8281434853118,8.482330504260895,21.739616125329746,16.01373682198133
20.458321503271687,133.13410835992855,43.26834578732578,8.847316234121532,8.44092151682264,21.68754717428827,16.019414378981367
20.4533176080499,136.79721481886756,43.341151179844374,8.873916098286509,8.398810328527231,21.635510259727667,16.02811969301703
20.43910097359411,140.38522548004642,43.44924244571085,8.907714471931627,8.35602177896982,21.58376298906619,16.039806211880986
20.415892939477043,143.88101150619326,43.595334657131126,8.948455004933319,8.312567070329733,21.532519445017577,16.054431126278647
20.38392947596494,147.26773725531856,43.78162124664376,8.99585498079789,8.268446934445103,21.481941945061923,16.071954181160805
20.343463565520107,150.52896601830233,44.00974037798701,9.049605683191492,8.22365663982972,21.432133734006644,16.092331553859033
20.294771430353396,153.64875990009526,44.28075555629681,9.109377922570978,8.178190115660136,21.383132767148258,16.115515700378893
20.238153905025175,156.61177392141678,44.595151885283606,9.17483481817712,8.132040711596316,21.334909544629216,16.14146102549532
20.17393216457041,159.4033496673506,44.95284223466764,9.245645279948095,8.085200012292717,21.287376487393576,16.17012486172655
20.102446878332007,162.00961433802865,45.35317725774217,9.321489565446553,8.037658336985604,21.240411501715005,16.201459050327472
20.024066368974662,164.41759204744457,45.79496075441966,9.402055695083838,7.989410396756808,21.193883941655532,16.235400102167816
19.93919651699193,166.61532391952915,46.27647692423789,9.4870323983472,7.9404661363765685,21.14766799837382,16.27186827509695
19.84828211153973,168.59196988255772,46.795530973828306,9.57610586218573,7.890860856569273,21.101641527321256,16.310775587296757
19.75179978558717,170.33787076780888,47.349494129987434,9.668963984521001,7.840658310857671,21.05567788736264,16.35203178552683
19.650251603136766,171.84457794971678,47.93534239921778,9.76530357061463,7.789946896627357,21.009636972883847,16.39554055641888
19.54416642078372,173.10486127207207,48.549688315044015,9.864833304734029,7.738833496894521,20.963357801344532,16.441192049354594
19.4341052179869,174.11270003393597,49.18881274286043,9.967272540714564,7.687438604042968,20.91665375325651,16.488862963911917
19.32065909103558,174.863269048574,49.84870168009397,10.072350219157856,7.635893775494745,20.86931037099715,16.538424857067966
19.20443569134129,175.3529300403334,50.52508614609675,10.179805124399214,7.5843407494326325,20.82108383833033,16.58974954365866
19.086042121056337,175.57922267996244,51.213480678931084,10.28938655172727,7.532930966021747,20.771700087666698,16.642705129091212
18.966074290718126,175.54084340185764,51.90922273103641,10.40085461796064,7.481824057080821,20.720857731001715,16.69715029789982
18.845114166199682,175.23761159101997,52.60752371701386,10.513979460126972,7.4311840161672205,20.668237080560996,16.752937853999068
18.723727809992372,174.67043492996828,53.30353400371352,10.628543328039733,7.381173803390365,20.6135141467865,16.809926975908244
18.60245841550932,173.84128393753377,53.99240390465013,10.744354874155876,7.331951606104136,20.556376435177278,16.86799166794658
18.481817413667557,172.75317057163258,54.66932374895151,10.861273520730814,7.2836704108357235,20.496537762410107,16.927017010327685
18.362280676204044,171.41011565169615,55.329546733952476,10.979225045789942,7.236479065149943,20.43374941780106,16.98688957304499
18.24429004736707,169.8171001607687,55.968407754714285,11.098198010388042,7.190523721156612,20.36780364577817,17.04749352899252
18.128253393951997,167.9800118535989,56.581347810043155,11.218232395419198,7.14594996574263,20.29852859981345,17.10871460776192
18.014539810085108,165.90560011294048,57.16394559886474,11.339415289141343,7.102903570887969,20.225781676604157,17.17044361181251
17.903473687298796,163.6014381042018,57.711948388484814,11.461884242606109,7.061527931092395,20.149451775540626,17.232572473279873
17.795333007193683,161.07587846424926,58.22129485608873,11.58582674239114,7.021960056829323,20.06947377981129,17.29498538137473
17.690354666698898,158.33799426034724,58.68813394187846,11.711468338818984,6.984327627188216,19.985845529307053,17.357553775761126
17.58874385441934,155.39751325006029,59.10884860272778,11.839055602540911,6.948747640023265,19.898635218963523,17.420140018402048
17.49067968454285,152.2647716407779,59.4800834768255,11.968844471463811,6.915326665817186,19.807976440509727,17.482603766041503
17.396313768697556,148.95072801213846,59.798765526645795,12.10109588997902,6.88416268134742,19.714056131913235,17.54480191440196
17.305768891527624,145.46703303444127,60.06211289351164,12.236071232938881,6.855346673935933,19.617105282896762,17.606582089776435
17.219146750483766,141.82606651911433,60.26763909385885,12.374021126548994,6.828961053935568,19.517398361009473,17.667778860164876
17.1365416140866,138.04087702544615,60.41315966197105,12.515169758927097,6.805074818808842,19.415253850475793,17.72822064726518
17.058047600884766,134.12506620382285,60.496799800695975,12.65970136030341,6.783739006041667,19.311029131725014,17.787742959450174
16.98375506494126,130.09267734263764,60.51699722615505,12.807751980504596,6.764985457183413,19.205122281039394,17.846194498376136
16.913744244417888,125.95808929458663,60.472498511063925,12.959403617880005,6.74882873006423,19.09799092526619,17.903432054826048
16.84808505126934,121.73590130872614,60.362354013195535,13.11467758562245,6.735269749794993,18.990169563220576,17.959315414773165
16.786841474470354,117.44081793598106,60.18591799418754,13.273528793734114,6.724301366797777,18.882263153229154,18.013712519935744
16.73007208940147,113.08754741894981,59.94285379807408,13.43584488018784,6.715915377358795,18.774921208948474,18.06651032891131
16.677824267665695,108.69071083309807,59.63314008276764,13.601451422527582,6.710106955681581,18.66880828930568,18.117619697501716
16.630130530616043,104.26475396417875,59.25708399749637,13.770119384827458,6.706873504314898,18.564578258562154,18.166971208924505
16.587015796650654,99.82386327581975,58.81534595918239,13.941569450922074,6.706210590222875,18.462853153224504,18.214508549161426
16.548511089046997,95.38189548231205,58.308958323132146,14.115472993107193,6.708108553719973,18.364205926495373,18.260186349091487
16.51465966892176,90.95233022063258,57.73931910771036,14.29145494724838,6.71254959662708,18.26914615540128,18.3039729197887
16.48551008972764,86.54824184046956,57.10816492307668,14.469102453863476,6.7195043746361875,18.17810941754843,18.34585096402702
16.46110410682686,82.18226902711282,56.417537301710595,14.647976077067991,6.728929206300319,18.091451674745223,18.385810655162096
16.441468188169555,77.86656930130596,55.66975469934375,14.827616882211808,6.740764799007926,18.009447914174412,18.42383958435975
16.42660921173694,73.61277157257273,54.86739562584583,15.007547476441317,6.754936118661245,17.93229355143378,18.459919677640606
16.416509750245158,69.43194233630679,54.013288503321675,15.18727274728529,6.77135402597384,17.860113010625035,18.49403338352779
16.411120557228973,65.3345599076501,53.11050818880353,15.366288097444054,6.789919425177208,17.792986796661783,18.526169330571843
16.41035296958756,61.33048335606256,52.162382633906226,15.544094898760305,6.810527912712089,17.730995102443256,18.556319595871038
16.414077243223446,57.42891731757211,51.17249809970002,15.720212641412774,6.833072051850772,17.67425123923948,18.58447450666003
16.422130815525126,53.638395297999864,50.14469009876372,15.894179372141018,6.857441269394678,17.62290459258434,18.610625947793174
16.434331581360993,49.96681383479634,49.08302622650637,16.065544194026796,6.883521850700369,17.57712239524899,18.634779309584612
16.45048624937216,46.42151064567865,47.991788498315245,16.23386290754942,6.911199728717446,17.537068452315534,18.65696210593338
16.470391166906126,43.00932101478811,46.87544613068207,16.398702127870695,6.940366453688522,17.50288638750112,18.677220763008226
16.493832550559866,39.73656831583449,45.738608315762214,16.55964497607267,6.970924128556365,17.474687434855742,18.695610769140195
16.52059287653295,36.60901819065491,44.585965377931544,16.716290105651847,7.0027846655803865,17.45254205162682,18.712191318891993
16.550460839056395,33.631839198482076,43.422239094885896,16.868247071718116,7.035865361645243,17.43647524465623,18.72702831736882
16.58323578423148,30.809576401770563,42.25215577789158,17.015136658164465,7.070086959621936,17.42646383849133,18.74019845899757
16.618722948615453,28.146141765596603,41.08044158522114,17.15659755372396,7.1053756666584675,17.42243366817997,18.75178583984194
16.656726017125422,25.644861480952745,39.91182570474525,17.29229213362286,7.141664706874951,17.424257087724406,18.761872392828273
16.69704670381367,23.308591444112093,38.75103087327588,17.421905580729902,7.1788923475407564,17.43175097746611,18.770531575928633
16.739492786312976,21.139825616888228,37.60275068402264,17.545140934690917,7.216998026983594,17.444674448459793,18.77783106186203
16.783884366623575,19.140748451193947,36.47162892438509,17.66171686129913,7.255919169596125,17.46272695363658,18.783838262907675
16.830049631667595,17.313263694897948,35.36223536700431,17.771372013233275,7.295589435520734,17.485547517938553,18.788618729609954
16.877814961573424,15.659008897385089,34.27902502830361,17.87387306133777,7.335937773248283,17.51272011806031,18.79222768140021
16.92700089854571,14.179353051015767,33.22628932083711,17.969018793925045,7.376887205094988,17.54380219374795,18.79470435194149
16.977427450087568,12.875412946751704,32.2081094285803,18.056636311289708,7.418353020299993,17.57838035990473,18.796075382226284
17.0289205596625,11.748088914075169,31.228311013742946,18.136573257358684,7.460242153498289,17.616119408479477,18.796362436359036
17.081311022248844,10.798089659711295,30.290421998650285,18.208692632747336,7.502455990836393,17.656773203335923,18.795585010716685
17.13442712064062,10.025971742686485,29.397640260655315,18.272872239775253,7.54489525581011,17.700167032913757,18.793756701355356
17.188089859789947,9.432219633430856,28.55281344040897,18.32900534154748,7.587462719253367,17.746174239875018,18.790882298021355
17.24211718965849,9.017306996646022,27.758424896671368,18.37699904619075,7.63006165070207,17.79469748523317,18.786963465167755
17.296333061197316,8.78170470082217,27.016579774656364,18.416771401156964,7.672591503228727,17.84565802717052,18.78201011322938
17.350570654303343,8.72589159008661,26.3289926542372,18.448251410777775,7.714943999159509,17.898991578913506,18.77604591297539
17.404666458106213,8.850371591265462,25.696982576860297,18.471383737546393,7.757003010789678,17.954644587192018,18.769103772554693
17.4584533584211,9.155636600979827,25.121478311851956,18.486133478246146,7.798648772140446,18.012568202893135,18.761221044459344
17.511761848587156,9.642092401178694,24.60302993144997,18.49248562258976,7.839762851588018,18.07271547993569,18.752445554924442
17.564428940140242,10.310029423305513,24.141819722184376,18.490441115670844,7.880231629486029,18.1350461289285,18.742848988461088
17.61630588745923,11.159652111930765,23.73766987175059,18.480017382469235,7.919950387683598,18.199532198972125,18.732532604311352
17.66725789398961,12.191081879164745,23.39005032086562,18.461257073072737,7.958828902127425,18.266155602726037,18.72161938254977
17.717158625286014,13.404270312088789,23.098092798006913,18.434237650447564,7.996795036361192,18.334897123748455,18.71024292381696
17.765888836121203,14.798862272010602,22.86061380539425,18.39907211870051,8.033793374316245,18.405722056282812,18.69854430421183
17.813342573024244,16.37408114639301,22.67614133410541,18.35590179440138,8.069780085139307,18.478570411808466,18.686676005314073
17.85943212873759,18.128665462044268,22.542937715593943,18.30488945161165,8.104718044194167,18.5533652685998,18.674803677452072
17.904083617785954,20.060843046594975,22.4590174788633,18.246217066821742,8.1385757651067,18.630043779598495,18.66310012622725
17.947228892793323,22.168321231691632,22.422165598919783,18.180085034577566,8.171329050873473,18.708588769922894,18.651735482433864
17.98880503976878,24.448278677792665,22.429963086760075,18.106708920360283,8.202961444286137,18.78903528956948,18.64087228022369
18.028761689035957,26.89733095547203,22.47982300542107,18.02631491914876,8.233464089435298,18.871453842545982,18.630667607688792
18.06706495206656,29.511448906299385,22.569030547935483,17.939138384262225,8.262838491258913,18.955927429267206,18.62127408613571
18.10369134560101,32.285859253138405,22.69477470084073,17.84542744466583,8.291100225742932,19.042532598282705,18.612832971543206
18.138617841756407,35.21498959968081,22.854168338161916,17.74544838853856,8.318278471088314,19.131328174811244,18.605463259273915
18.171818547834732,38.29249293557106,23.044265867401915,17.639487221188126,8.344411039033602,19.222352097059005,18.599255728413468
18.20327078648455,41.51131865055983,23.26208305817019,17.527845607494807,8.369538926553988,19.31562467490541,18.594275752725483
18.232961968531274,44.86376110708298,23.504613842500667,17.410834445063387,8.393705171652108,19.411163813613047,18.59056890815097
18.260888317609574,48.341459940269495,23.768840686356558,17.288769931693107,8.41696116315871,19.509015679338027,18.588161201298014
18.287047772927536,51.93538456240827,24.051742767427747,17.161974430516107,8.43937714829086,19.60928126871978,18.587054112462585
18.31143638970216,55.635843517539755,24.350308425583705,17.03077905189924,8.461048508209679,19.712116756688047,18.587222290285695
18.334051451976855,59.432534918710516,24.661552201245254,16.89552283216868,8.482093833439668,19.817711558091847,18.58861997804679
18.354893916591603,63.31462527646369,24.982529986808682,16.756548047283815,8.502648883412146,19.926261545243865,18.591192307015586
18.373964580582886,67.27082995857329,25.310348243614037,16.614195960717876,8.522862820600361,20.037950553314563,18.594881165749413
18.391260611449738,71.28948093355571,25.64217138710289,16.4688061043242,8.542900001397674,20.15294304614839,18.599621535137608
18.40678110336192,75.35858001580262,25.97523504321491,16.32071763269134,8.562944755790094,20.271378590090507,18.60533539778646
18.420537867118934,79.46584288184255,26.306866061556462,16.170269490721342,8.583202533910283,20.393361696913022,18.611933133598647
18.432559861401366,83.59875507962866,26.634499711379668,16.017798243795436,8.60389424486219,20.51895514112046,18.619322232896398
18.44288732880743,87.74465275752839,26.955686953990295,15.86363511220522,8.62524619819489,20.648182499753446,18.627412897422808
18.451561955053666,91.89080698561034,27.26809725872978,15.708104974175452,8.647478652759201,20.78102995634121,18.636115046163212
18.45862086135478,96.02449902015586,27.569526234564474,15.551528069911567,8.670795192320833,20.91743749688393,18.64533310230624
18.46409654501094,100.13312838237186,27.85790850632048,15.394221164106773,8.695375142459332,21.057283285172286,18.654966787977184
18.468017349266383,104.20439884474138,28.131327545892013,15.236495258762204,8.721369842813191,21.20036959446387,18.664917763473063
18.470402677441918,108.22653792121353,28.388017086730013,15.078652149665539,8.748902156403538,21.346414821570043,18.675094150507142
18.471255369148324,112.18845077937829,28.6263639586795,14.920985376763849,8.778067842608698,21.495054908616456,18.68540688290753
18.47055936211506,116.07978285276484,28.84493671073915,14.763787174757061,8.808936420920768,21.64585509374199,18.695761485446777
18.468285251367284,119.89093235312885,29.042543970988234,14.607355174655767,8.841550004623443,21.798325778998333,18.706054807210553
18.46439584893944,123.61302808804892,29.218280627938253,14.451991723531044,8.875921473971946,21.95193708648759,18.71618020196096
18.458844347281964,127.23788916672564,29.37152562237873,14.297996767549213,8.91203528703183,22.106137155577606,18.726033696770514
18.451568660441517,130.75801687964926,29.501907734945107,14.145661825197465,8.94985424861207,22.260376593226667,18.735513278577002
18.442491566981904,134.16663144382497,29.609277571451535,13.99527117964874,8.989332802109155,22.414126291096768,18.744513122009447
18.431531425745785,137.45772709132504,29.693709790404462,13.847108392705831,9.030431894430844,22.566877869761548,18.752920434638128
18.418616733660137,140.62614305905723,29.755529054326757,13.701459586075,9.073127675566372,22.71813318690646,18.76061775648041
18.403692586407278,143.66763536475486,29.79533199188138,13.558608729699317,9.11741066161026,22.867395544423538,18.767484807574178
18.386717152472393,146.5788856130974,29.814007087428774,13.418828510754663,9.163279008771212,23.014170989077797,18.773394123323687
18.367658306321147,149.35741173522942,29.81277382164037,13.282371684570975,9.210731830588614,23.15798271861876,18.77820360914487
18.346497887938565,152.00142883989582,29.79322029661947,13.14946514918895,9.259764834348355,23.298390782379748,18.78175499522566
18.323238441071197,154.50975045750354,29.757301797428646,13.020307854365667,9.310366713639723,23.435002057520805,18.78388230261613
18.297903033781456,156.88179142493766,29.707304987846147,12.895071355405063,9.362515553652509,23.567467070282294,18.78442292900605
18.27052752058042,159.11764391948086,29.64581984213133,12.773900369647125,9.416176270907208,23.695473553719886,18.78322160884807
18.24115312360736,161.21812291858012,29.5757404155675,12.656914157334477,9.471299093872576,23.81874149489843,18.78012808149404
18.209826845659347,163.18470788143262,29.5002528060375,12.544211005855205,9.527818531963057,23.937015678093207,18.774997519344026
18.17660893611592,165.01940579311378,29.422767350481955,12.435873285923313,9.585652916476034,24.05005441299304,18.767698615663413
18.141578111425225,166.72461840359225,29.346815211525808,12.33196883336318,9.644704437264751,24.157619684856492,18.758122761174725
18.104828330140666,168.3030624942404,29.275949289718007,12.232548640466474,9.70485987540523,24.25947501522465,18.746184180140524
18.06646304583874,169.7577105408729,29.213662724891993,12.137642943984712,9.765992859261715,24.355390478815703,18.731811449255773
18.02659737146863,171.0917065610076,29.16332083118356,12.04725717645557,9.827968154303973,24.4451469809473,18.7149416010673
17.98536799639654,172.30827681452703,29.128099798481415,11.961368985798162,9.890647143948529,24.52853579705594,18.69552577643993
17.942939070727373,173.41066878199652,29.110932897433585,11.879926344319557,9.953891350319752,24.605361430254714,18.673541886207264
17.899497482623907,174.40210491814594,29.114476496242002,11.80284620681653,10.01756104936689,24.675460521849192,18.64900055594797
17.855244810976643,175.28573791559668,29.14110061453559,11.730014893872223,10.081510456727342,24.738734712898356,18.62193854518839
17.81039670074301,176.06462320330522,29.19288498174495,11.661292212428938,10.14558414028505,24.79517420203741,18.592407314265092
17.76519152936055,176.7417037732018,29.271601872951614,11.596518583745377,10.209617764304465,24.844854244909715,18.560466212783602
17.71989888296722,177.31978174524914,29.378690335415573,11.535520867681159,10.273442642579186,24.887912657196793,18.52618131251553
17.674817797559932,177.8014865159078,29.515235512478515,11.4781139247078,10.336891164418876,24.924525957527464,18.48962385148516
17.630266904413904,178.1892806472532,29.681959458308867,11.424099908251998,10.399800675778298,24.954892636223626,18.45086432208285
17.586577584584234,178.48552475631834,29.879221576129883,11.373268850588927,10.462016302235458,24.979221972336255,18.4099655475593
17.544094680192757,178.69259311709735,30.107022801818246,11.32540085512151,10.523393938723878,24.997722963235056,18.36698169751125
17.50317656089044,178.81301416150808,30.3650126043509,11.28026687141948,10.58380169214534,25.01059124223741,18.321965289121415
17.464186239894175,178.84959890457495,30.652507881534667,11.237626423209054,10.643117863038965,25.017997038960285,18.274974624502764
17.42747694860438,178.80554139179202,30.968528365964957,11.19722494252379,10.701227623256097,25.020078429928816,18.226073457232864
17.393382240841994,178.68448668652903,31.311833712086738,11.158794780605641,10.758021665481243,25.016942852402693,18.175325670151388
17.362214849516576,178.4905333201937,31.680945232481914,11.12206112014836,10.813396621305724,25.00867550317144,18.122795450732195
17.334268111614712,178.22816210427933,32.07415421430134,11.086749633261926,10.86725610196441,24.995346868478155,18.068557090139038
17.309812567243046,177.90216024939787,32.48952919271877,11.052591104886702,10.919514255984199,24.97701455458633,18.01270540702091
17.289088422453833,177.5176112762584,32.92493176158574,11.019321336138912,10.970101850749863,24.9537249169876,17.955356722410524
17.27229925983263,177.07991812183826,33.37804235176927,10.986679368484236,11.018969011193605,24.925521277380305,17.896643161409774
17.259609346022568,176.59477265039266,33.84638693026265,10.95440843719463,11.06608110308699,24.892457508415106,17.836710522291437
17.251141791263983,176.06809579317508,34.32735571154952,10.922260088182274,11.111411112920555,24.854609381700623,17.775721916268594
17.246974091533207,175.5060445880946,34.81821648783278,10.889997690372665,11.154932007944852,24.81207614733299,17.713858174998936
17.247131795338223,174.9150536848712,35.31613115590982,10.857397087805932,11.19661070992421,24.764972869209366,17.651308684121478
17.251585139346677,174.30180296196087,35.818178581307976,10.824246390782314,11.236406211385246,24.713422239130484,17.588258613242928
17.260253234716192,173.67312204409268,36.32137932607301,10.79034790623776,11.2742724719303,24.657552599713327,17.524883313071808
17.273013584380987,173.03592133702085,36.822717450722635,10.755522313407452,11.310162329974286,24.597504038413412,17.461352319853017
17.28970811275687,172.39718399359708,37.31916038684581,10.7196118773179,11.344029199987196,24.533440264534953,17.397833953230915
17.310141953517412,171.76401439106266,37.80768190464725,10.68247968989101,11.375831401132999,24.465555756926992,17.33449259506545
17.33408235153146,171.14372556599773,38.28529097754383,10.644005531711558,11.405549243911189,24.39406927466632,17.271482478353384
17.361266795028232,170.54389497752126,38.74906151935345,10.60408269291759,11.4332124659549,24.319208353882335,17.208946729889817
17.39141870975409,169.97232780533872,39.196153701970275,10.56262063231306,11.45891850832292,24.241193479950393,17.14702315895047
17.42425850884742,169.43695444394714,39.62382508246263,10.519552745251652,11.48283018650408,24.16022972579406,17.085849625807025
17.45950308773226,168.94571122715462,40.02944054980231,10.474841911511323,11.505162465279675,24.076521561184865,17.025563008726998
17.496860921196618,168.5064206007169,40.4104903457122,10.428478823049279,11.526171071013435,23.99031671522829,16.966293772451372
17.536033019186043,168.12666855685777,40.764613391265215,10.380476315700673,11.546145324675894,23.90195002221321,16.908163001128727
17.576720831215844,167.81367259600432,41.08961311284244,10.3308666086618,11.565401521627903,23.811854139307066,16.85128704874692
17.618633192961497,167.5741514261827,41.38345976101931,10.27970432805337,11.584273991712333,23.72054020348666,16.795786560774054
17.661485467002823,167.41420892732728,41.64428687293136,10.227070650409651,11.603104258353445,23.62856908627851,16.74179009120757
17.70499328146699,167.3392181372951,41.87039106728082,10.173072298073365,11.622230443687133,23.53652326615605,16.68942889750968
17.748869429057056,167.35371017077813,42.06023597303804,10.1178365903557,11.64197840834248,23.444982371088415,16.638831522783438
17.792828694576293,167.46131166454333,42.212455717525444,10.0615102400356,11.662655142730427,23.354505925390082,16.590128448146608
17.83659555614754,167.66474321881756,42.325855321702086,10.004265936920266,11.684544934144323,23.265624179362508,16.543464732872227
17.8799065146422,167.96583394705826,42.39941008287567,9.946311070061281,11.707907880292058,23.178833408020143,16.499007144824688
17.922506236834153,168.3655099583765,42.43226863195124,9.887890140065581,11.732978328933388,23.094591437616085,16.456938512178564
17.964143459882177,168.86375360285763,42.42376138286447,9.829279355331748,11.759961272726992,23.013310888717534,16.417447541224714
18.00457273721916,169.4595496453176,42.373408759170566,9.770778554520998,11.789027163290111,22.935349625996633,16.38072619896986
18.043562007275522,170.1508379908395,42.28092189619104,9.712706737493686,11.820306912277275,22.861001580840036,16.34697492519095
18.080897600245034,170.93449924222028,42.14619594270794,9.655403021453097,11.853888390529491,22.790494325693576,16.316404373788817
18.116380828557425,171.80639129775503,41.969303234195785,9.59922777292072,11.889815067726179,22.723995511042354,16.289227094349954
18.149822772395293,172.76141750302403,41.75049227349353,9.544559085125758,11.928087958082664,22.66161984295235,16.265645742575437
18.181046753212886,173.79358346478892,41.49019021316123,9.49178832503609,11.968671086269373,22.603431283761925,16.245847332172684
18.20989689629537,174.89602625489204,41.18900282360349,9.441320651817406,12.011497196749724,22.549453545664328,16.230004285934946
18.23624283100184,176.06104018370962,40.847709917208064,9.393577787599098,12.056470346671667,22.499699381423618,16.218275066532954
18.259975449560656,177.28013843796523,40.467257628658494,9.34899522818833,12.103466078912602,22.454200751342622,16.210798909468878
18.2809989484367,178.54417046603214,40.04875145801983,9.308011952525074,12.152331277353266,22.413015990121355,16.207687474728946
18.299228768703067,179.8434688183632,39.59345284429769,9.271059449093023,12.202884750296993,22.37621519814702,16.209021871642864
18.31459789930654,181.16797584875417,39.102774016520236,9.238561466744727,12.254920059683355,22.343860017985484,16.214858614966897
18.327062432519476,182.50733346890132,38.57826483519213,9.210948055511377,12.308210844556282,22.315987859849766,16.22523601545465
18.336598537750888,183.85095449971215,38.02159517233419,9.188669479659376,12.362515137461283,22.29260114756121,16.240171350838196
18.343194904701235,185.18808466224075,37.43454042057296,9.172194299161644,12.417575966380713,22.27365818480335,16.25965180203651
18.34684960002773,186.5078479524593,36.81897289507158,9.161997227785447,12.473121107803852,22.25906501542869,16.283629699217858
18.347573822331682,187.79928503656774,36.176858979846806,9.158554939996762,12.528867999705088,22.248672090992624,16.31202628015526
18.34539552134011,189.05142023417955,35.510259625266016,9.162354094481863,12.58453604782035,22.242278234902756,16.344737218432915
18.34035551523164,190.25338146833332,34.82132838735658,9.173896285065277,12.639859880049748,22.23963987563909,16.381631540787414
18.33249876114753,191.39455328010195,34.11230758727435,9.193687898346925,12.694594468017213,22.24048162550681,16.422544660627278
18.321870486005597,192.46472126385717,33.385533921809184,9.222220510823949,12.748511072051732,22.244503615417795,16.467273409642846
18.30852271402145,193.45418773004695,32.64345460228954,9.259952434725498,12.801390094818236,22.25138270460419,16.51557838761073
18.29252536258009,194.3538596817968,31.88863276130152,9.307295063297056,12.853015872880976,22.260769926547184,16.567190665487857
18.273970423269013,195.15530536806523,31.123726584009642,9.364602188038077,12.903174097487708,22.272289689016823,16.6218158716714
18.25296579680585,195.85078821532858,30.351453792554747,9.432159945165967,12.951650489417805,22.285545065997056,16.67913367209137
18.22962659614887,196.4333228836556,29.574559121770907,9.510177783020364,12.998230261414728,22.30012800469801,16.7387977375892
18.20407210864992,196.89677877629882,28.79578697773869,9.598781982930777,13.042698380108106,22.315627568445898,16.800442648013117
18.176427422864613,197.23598218408947,28.017854776732698,9.698011866024421,13.084839404579833,22.331632794241923,16.863696908728247
18.14682246133908,197.4467442158347,27.243429397145427,9.807817941518199,13.12443564116138,22.34773355797751,16.92819248555339
18.115384574191584,197.5258019516456,26.475112894646117,9.92806068327029,13.161264107522838,22.36352116870738,16.993564706114103
18.082228447505756,197.47072249644285,25.71544018259727,10.058508721808925,13.19509395179545,22.378587800514573,17.05944837370944
18.047450780832197,197.27981825236427,24.966884849819696,10.198837509107348,13.225685935499758,22.39252879316343,17.125479944583684
18.01113275935555,196.9520882030321,24.23186050088687,10.3486320227876,13.252794580115934,22.404953221834116,17.191306657410088
17.973344526234936,196.4871835834203,23.51270821767314,10.507395671552677,13.27617233390444,22.415498183900105,17.2565929186253
17.934144856113953,195.88539780063243,22.81167843611345,10.674562175535458,13.295575734304766,22.423835966768877,17.321017832960845
17.893578554274537,195.1476689417997,22.130919272118767,10.849504747949563,13.310773638023981,22.429670652418036,17.38427204766686
17.851679640637894,194.2755716936544,21.47246788791783,11.031541238211926,13.321555229925387,22.43272871474319,17.44606600473205
17.808481238193057,193.2713157972609,20.838235579264527,11.219939220937999,13.327736343276737,22.432750288076523,17.50614774998022
17.764023310396112,192.13777758461924,20.229987909985905,11.413924144764461,13.329165623021789,22.429488448221726,17.564315196074773
17.718351186922927,190.87852753451102,19.64932921317578,11.612687877239438,13.325730152468577,22.422717615057568,17.620414389641695
17.67150835195555,189.4978479720142,19.09769657151528,11.815393427623452,13.31735739345843,22.41224571625513,17.674331486332562
17.62353280256152,188.00079118500827,18.576358899036617,12.021176666885154,13.304012150604981,22.397932827436367,17.72599025460804
17.57446221092339,186.39322855383682,18.086413407235447,12.229149692442428,13.285691118050648,22.379721070439683,17.775356534905413
17.524343063820467,184.6817946912613,17.628777547174018,12.438409192184343,13.262420528204258,22.357665490974576,17.822439994264837
17.473233803584478,182.873754928628,17.204181193851326,12.648048521845082,13.234259727357907,22.331951245568984,17.867286557194344
17.421199348330198,180.9768869508469,16.813164327420214,12.857168171202916,13.201305427076367,22.302890492666094,17.909967519966866
17.36830489302351,178.99941181608034,16.456080349884544,13.064880833590946,13.16369002716377,22.270901136144943,17.950575057869724
17.314617082813076,176.94996045068484,16.13310018057085,13.270313360044616,13.121574412859504,22.236480077818698,17.989223951849244
17.26021050015434,174.83755687229595,15.844213291939488,13.472612115236878,13.075139586276526,22.20018170280034,18.026049939345228
17.205170374156516,172.67162797649857,15.589227352562832,13.670954819949257,13.02458071927734,22.16259836550155,18.061200034448643
17.149587271102497,170.46203291357216,15.367772066486856,13.864562875066289,12.970104757593404,22.124337380472618,18.09482267807446
17.09354776440002,168.2190476214029,15.1793107501632,14.052706130639116,12.91192891713058,22.085999865598968,18.127067800239175
17.037128625202755,165.95329482841368,15.023155624489993,14.2347015216656,12.850277075630673,22.048171475079315,18.15809523281595
16.980399682993053,163.67568750325808,14.89847940250574,14.40991428501822,12.785374633346295,22.01142434649744,18.188079210643078
16.92343141321385,161.3973816061271,14.804322186824326,14.577764893972093,12.717443697409918,21.976317325545857,18.217201862331386
16.8662977150833,159.1296764311903,14.739601076108187,14.737734953728992,12.646699155480384,21.943385838248957,18.245642284571876
16.809071594769787,156.88387358934773,14.703130224002896,14.889365471977097,12.573345547296688,21.913126477400585,18.27357154459233
16.751821631471717,154.67115773086306,14.693647448044262,15.032249440933002,12.49757491959784,21.885988671866475,18.30115504830599
16.694617132876107,152.50252939076796,14.709833233474521,15.166025833714812,12.419566477381238,21.86238463201872,18.328554649933572
16.637539200948865,150.3887643474297,14.750316115051044,15.290379842926043,12.339488527788937,21.842716213805673,18.355924148898165
16.58068652371549,148.34035637504587,14.813672763226567,15.405047231177337,12.257501318874569,21.827399122608693,18.38340055744812
16.524170914956482,146.3674264382309,14.898431968877304,15.509815966617898,12.173758260204842,21.816866200255475,18.411099396197937
16.46810942109807,144.4795929284575,15.003082784551717,15.604522189375144,12.088404720796873,21.81155448936435,18.439117575826653
16.412621066413735,142.6858095519631,15.126081267424253,15.689044293611229,12.00157622938092,21.811895911745733,18.467536749234185
16.357827433943257,140.99421616385723,15.265853341867949,15.763299470476214,11.913398255971071,21.81832674473682,18.496419150907283
16.303850266957248,139.4120440718808,15.420798457347496,15.827243237991956,11.82398878334641,21.83131155820462,18.525798482832425
16.250804105133646,137.94558394489331,15.589300412231617,15.880869083904312,11.733464195409523,21.851357076737482,18.555675615136355
16.198790418087356,136.60023935973905,15.769744041279575,15.92420465511929,11.641946274340123,21.87900030648792,18.586024149177916
16.147900790227418,135.3806677759094,15.960527919301603,15.957305844240354,11.549565769837885,21.914781361561232,18.616799222337903
16.09822757502157,134.29092924430384,16.16006754026751,15.98025627923714,11.456462550113812,21.9592142778306,18.647939077051923
16.0498708365302,133.3345853858146,16.366796529535275,15.993175400409077,11.362788628977128,22.01275847172941,18.679358418074216
16.002934948806928,132.51475141293355,16.579175880206247,15.996226865281256,11.268716442231161,22.075793170417704,18.71094347480562
15.957520596495646,131.83407097494833,16.795708789869987,15.989618900473483,11.174445272496268,22.148599261155415,18.74255913726014
15.913721286080023,131.29460198158958,17.014949934067722,15.973598972416402,11.080199917902238,22.231348696108807,18.77406597992768
15.871626851416744,130.89771092878263,17.235505028426612,15.94844969123005,10.986224505920243,22.32409643623734,18.80533287681325
15.831327864995945,130.64410158144432,17.456027349355654,15.914488457547812,10.89277594355452,22.426771621244416,18.83623753184746
15.792914070667132,130.53396594507169,17.675219691188474,15.87206795904958,10.800117975200259,22.539170975782465,18.86666349522838
15.756469044358356,130.5670936087504,17.891843703850704,15.821573108093105,10.708516635896043,22.66096039973443,18.89650437989833
15.722070130385058,130.74283694043646,18.10473006705275,15.76341346058742,10.618239616886527,22.79168633924009,18.925672652643495
15.689796068746176,131.0599944680112,18.31278156129622,15.698014887800415,10.52956071476816,22.93079088438814,18.954101561372784
15.659732362411857,131.51670581857,18.514968769988723,15.625814547875143,10.442765079718086,23.07762557411981,18.98173680563973
15.631965893342867,132.1104117454994,18.710326046012746,15.547258344201518,10.3581484976474,23.231469162838284,19.00852728573593
15.606573156469917,132.83790057422138,18.897954104507246,15.46279705178825,10.276010030835055,23.39155503691487,19.034424198788276
15.583611490049451,133.6953953098639,19.077026187911272,15.372880324061455,10.196643548707732,23.557099862940696,19.059385744575575
15.563117257438465,134.67860929553234,19.24679009456621,15.27795123022002,10.120332286130422,23.72731910225861,19.083377521731986
15.545107859276126,135.7827588025705,19.406563504716484,15.178443076055306,10.04734732075171,23.901427093604262,19.10636574031613
15.529582251923165,137.00256703530482,19.55572685944818,15.074777870865466,9.977949409908335,24.07863080003051,19.12831024595643
15.516519173681786,138.3323001798608,19.69372056308464,14.967365080430438,9.91239096120956,24.258124629947876,19.149165240408692
15.50587829094205,139.76584883680573,19.820048302347004,14.856599688040554,9.850914552740008,24.4390877649363,19.168887631828895
15.497608328589264,141.29679256350403,19.934280250093668,14.742859998546495,9.79374933804404,24.620684175021776,19.18744333940397
15.491656704682107,142.91839885920504,20.03605079356684,14.626507848521147,9.741108633429894,24.80206569222119,19.20480355172022
15.487971287905626,144.62364530169026,20.125053414594888,14.507893622787037,9.693188247509855,24.98237568070361,19.22093596440997
15.486494342029003,146.40535601135363,20.20103938665412,14.387364154030836,9.65016423560118,25.160750063116005,19.23580196540679
15.487157519673126,148.25636317762442,20.263823627201834,14.26526767957867,9.612190641688995,25.336318114028536,19.24936117022955
15.489884853332322,150.16954777682554,20.31329257656093,14.141951825521883,9.579396608069288,25.50820864610779,19.26157402829122
15.49460195725286,152.13778334563668,20.349405268498696,14.017756736211703,9.551881415257373,25.67555971491475,19.272396449429436
15.501242281034509,154.15395527426543,20.37218686299702,13.893009774387581,9.529709300888124,25.837523201526054,19.28177194940343
15.509744476027258,156.21113013803213,20.381722712749,13.768025659298576,9.512909637406954,25.993261775985104,19.289631945526622
15.520045936162868,158.30272563396454,20.37815873187041,13.643108874856113,9.501485437111674,26.1419443303768,19.29590691057004
15.532082539360456,160.42253461600532,20.361704401163884,13.518553147876643,9.495424192295998,26.282746777823608,19.300538205674272
15.545797245423651,162.5646623541074,20.332630628086555,13.394638543863108,9.494702453163358,26.41486455889182,19.303480230163704
15.561148855992808,164.72349172025832,20.291260805557105,13.271631816415578,9.499283326989394,26.537538826212554,19.304695026004243
15.578112610618808,166.8936750967289,20.237961292386643,13.149791978903181,9.509111912561648,26.65008505088466,19.304149478954002
15.596677068881585,169.07008807104566,20.173139389267934,13.029375296073978,9.524113345967772,26.751909102888643,19.301820370725526
15.616847340381996,171.2477440969932,20.097249714186987,12.91063442448518,9.54419492851079,26.84250896363242,19.297701406682872
15.638653415577128,173.4217874506122,20.010799403066763,12.793814409455317,9.569249266111846,26.921468671673857,19.291803861736586
15.662151650466862,175.587681812896,19.914345283280674,12.67915254614596,9.599154675522678,26.988448137418647,19.284151176376408
15.68741451440739,177.7415329858471,19.80848704778734,12.566884234483362,9.633772828867023,27.043169982188804,19.27477506140778
15.7145179609162,179.88037324745002,19.693860200181476,12.457248059846071,9.672946238122337,27.085407658635337,19.26371803769489
15.743538311276525,182.00233581305886,19.57112712052175,12.350483366886781,9.716497709126156,27.114984674792144,19.251037243494924
15.774558575311477,184.10672977028216,19.44096508315872,12.246822685203853,9.764231168130255,27.131789486208838,19.23680052834134
15.80767219530842,186.1939732409081,19.304052641000855,12.146486852688463,9.815932807664893,27.135792019433303,19.221075227336694
15.842976617148173,188.26538117689182,19.1610578753174,12.049687977528405,9.871374122147408,27.12704599080164,19.203919420349145
15.880562455650429,190.3229842984187,19.01263310490482,11.956637251393452,9.93031658921401,27.105683702035755,19.18538377688779
15.920508330085175,192.36953823493002,18.859416714843164,11.86754898932191,9.992513432614265,27.07191594041028,19.165521200579246
15.962885164550412,194.40861003788388,18.702036287324272,11.782636358371882,10.057707365183534,27.026031222348713,19.14439278032556
16.00776380634324,196.44454831386705,18.541108937039432,11.70210269067837,10.125631473719174,26.968384681300638,19.122064383909027
16.055216141247374,198.48233187956578,18.37724137707507,11.626135303684828,10.19602011502222,26.89938038568878,19.098601625086253
16.105307627666452,200.52741962268425,18.21103394645899,11.55490405518662,10.268625220236464,26.819455725777704,19.074072660245108
16.15808770262574,202.58574117912997,18.04309359925671,11.488560548114517,10.343226014817887,26.7290816633983,19.048555694208517
16.213584051878925,204.66384301639818,17.87405502054643,11.427233829548195,10.419627482960133,26.628802666872737,19.022139622830927
16.271800293131115,206.76897835992486,17.70459507620587,11.371023863681728,10.497652766138916,26.519311318743252,18.994914582594188
16.332712721617305,208.90901603452275,17.53542835705348,11.319997796471553,10.577135066252687,26.401501360807327,18.966961468326986
16.396265431764977,211.09235152708894,17.36729027992057,11.274191437374173,10.657910503952785,26.27646118923566,18.938350008886026
16.462369922588675,213.32794659668951,17.200921517142238,11.233612293827441,10.73981148261721,26.14543769618999,18.90914535955284
16.53091490322212,215.62531972831763,17.037058488422915,11.198239649496688,10.82266113711286,26.009812068478432,18.879414219350696
16.601780889083443,217.99430175006134,16.876424340463164,11.168023069057375,10.906270274413316,25.871086519923498,18.84922394974263
16.67484681662846,220.4446250586226,16.719715190237018,11.142885090637867,10.990435883258268,25.730859685647946,18.818639378538055
16.749985564871583,222.9855549122092,16.56758437299082,11.122730969905076,11.07493894526353,25.590786400998113,18.787726028426338
16.827058366071096,225.62566543106612,16.42063172346235,11.107460231597742,11.159542013840074,25.45253385644582,18.756558661289574
16.905916954717775,228.37268012646257,16.279400570873687,11.096971508648865,11.24398843806918,25.317742943649684,18.72522438322089
16.98641092492438,231.2332900051935,16.144377463397376,11.091159652415888,11.328003246749127,25.188001664307304,18.693815418055568
17.06839095687304,234.21298897370852,16.01598942531165,11.089912006701807,11.411295269009576,25.064833044001944,18.66241939102651
17.151703746201353,237.31598337133744,15.894599157707207,11.09310827165101,11.4935617459874,24.949684545097842,18.631116825278394
17.23618446043077,240.54517507452948,15.780500187183742,11.10062182075017,11.574495866310865,24.843906052370276,18.59998565629154
17.321655588687356,243.90220197747462,15.673912930682597,11.112320023299272,11.653794404850306,24.748720734602337,18.569104082401747
17.40793294498351,247.3875031987833,15.57498245732803,11.128063893806292,11.731163017517328,24.66520193318668,18.5385464534103
17.494829836307844,251.00037730207012,15.48377801811367,11.147708020255886,11.806319396894247,24.594273497802728,18.50837734297168
17.582153172380263,254.73902332908074,15.400294102367427,11.171102490779319,11.878994355374434,24.5367457401254,18.47865278008591
17.669695927837044,258.60054770482714,15.324454558049519,11.198096830454311,11.948931332204182,24.493366482258796,18.44942838936316
17.75723409725921,262.58092277056636,15.256122732411068,11.228541315839509,12.015886382225002,24.464845764700183,18.420763545564753
17.844530919143867,266.6749057865292,15.195116138458689,11.262282474771377,12.079629233726191,24.45184169507807,18.392715697357424
17.931343461129106,270.8759404245371,15.141217564770344,11.299156773076842,12.139944385110738,24.45492879995148,18.36533218455291
18.01742494088734,275.17608817180536,15.094177440504927,11.338989583300252,12.196632615249548,24.47456747877762,18.338649504934022
18.102522864640484,279.5660518979303,15.05371204081215,11.381600935719558,12.249514556975905,24.511078117204878,18.312701931008252
18.186379895082165,284.03529311650937,15.019505413157374,11.426811162317094,12.298436284183087,24.564619735699697,18.287531510397752
18.268741008602788,288.57218991669026,14.991216785732393,11.474440266554554,12.34327425702693,24.635174374586924,18.263189258871833
18.349360251516806,293.16420876301663,14.968488157505023,11.524303003156021,12.383937057224358,24.722538387767365,18.23972710207442
18.427999334986776,297.7980848165396,14.950946922095394,11.576204483265721,12.420363632177242,24.8263221713598,18.21719093616317
18.504420546941,302.4600296477671,14.938205232216669,11.629938200287501,12.452520724315127,24.945960105349393,18.195623392336802
18.57838396358252,307.13598875767474,14.929863783360918,11.685285681370416,12.480404121955141,25.080727775860264,18.175072034399566
18.649655136973838,311.81187711624864,14.925524033568381,11.742015598829438,12.504043788911998,25.229757445703548,18.15559168261445
18.718017002877733,316.4737345559057,14.92480141476292,11.799880856557825,12.523505534068242,25.3920457777066,18.13723769580218
18.78327404720205,321.10787136392344,14.927329097340753,11.858615322604322,12.538885051090585,25.566456635724997,18.120058489137445
18.8452470899337,325.70101168453664,14.932753430223679,11.917935101340019,12.550299595251245,25.751727992525932,18.104096771035127
18.903768078606582,330.2403500048741,14.940733224937087,11.977546090182793,12.55788245821535,25.94649402589,18.089398416998282
18.95868093638611,334.7135597328776,14.95095057858324,12.037151409166198,12.561778722749814,26.149322083510008,18.07601739303248
19.009844083850528,339.1088405421175,14.96312548872339,12.0964529245179,12.562139821638569,26.35874743871465,18.06400991048546
19.05712791343521,343.41495588948976,14.977021491602775,12.155149835003362,12.559118426682444,26.57329637119894,18.053425171560963
19.10040737479908,347.6211914020768,14.992441938597546,12.212940317280152,12.552866942431534,26.791504381140612,18.04430419621965
19.139556257680233,351.71727161657213,15.009227189372625,12.269528494795068,12.543540047650668,27.011929612109746,18.03668716532311
19.174449605236205,355.69331440239466,15.027257845876916,12.324633331115475,12.531297509612774,27.233154443690438,18.030617969111706
19.20497245516689,359.5398535987449,15.046457537737425,12.377993110170703,12.51630364117175,27.453778113359267,18.026139483495896
19.231025192923493,363.24792007917017,15.066787666339769,12.429363654355921,12.498723882954202,27.672412210159813,18.023287589115867
19.252521162577693,366.80921391103993,15.088236181985486,12.478514299881086,12.478721125300867,27.88769271707385,18.022092262304014
19.26938435720539,370.2163562649761,15.11080843163932,12.525225224540968,12.456453912274975,28.09831078759792,18.022580766725195
19.281555601964268,373.46303696480373,15.13452363045283,12.569286062432036,12.432077567141024,28.303043635348182,18.024774246464215
19.289003512771803,376.54392943126135,15.159412720622138,12.610494241562867,12.405746867943389,28.500769761252585,18.028678459724325
19.291729248208945,379.4545018958707,15.185512513503415,12.648652586846293,12.377617363652387,28.69047255475926,18.03427627547356
19.289761747515044,382.19089923094504,15.212857031097386,12.68356745508074,12.347844739044021,28.87123806617198,18.041527994917292
19.283151217799986,384.7499230780029,15.241471050310654,12.715049645903747,12.316584081948156,29.04224799555332,18.050377807146106
19.271969814387006,387.1290447365227,15.271368547113832,12.742918515086362,12.283990026549935,29.202771548955493,18.060757438542144
19.25631977828606,389.3263872267348,15.302553147574185,12.767005650584826,12.25021719778579,29.3521580847622,18.07258164274543
19.236340168631727,391.34067242364824,15.335015617416474,12.787154603588089,12.215419398939016,29.48983089212575,18.085740654704257
19.212204568872195,393.17117415833974,15.368727505745651,12.803218349628292,12.179746430151312,29.61528574757562,18.100098455457484
19.184112238293455,394.81767593303044,15.403635306298797,12.815058732232814,12.143340789431724,29.728099437823055,18.115498415689416
19.15228216095971,396.2803820148756,15.43966099563375,12.822549022848944,12.10633745276362,29.827951747314202,18.131768391338753
19.116954139295803,397.5598013858552,15.476710366446694,12.825576537788187,12.06886563239333,29.914653207015107,18.148718672925582
19.078388953861108,398.6567064446983,15.514682990826453,12.824042540737457,12.031049141330481,29.988157290768857,18.166136739768206
19.0368597413559,399.57218670973583,15.553476171078787,12.817860601436479,11.993004532218086,30.048545342760114,18.183788874722566
18.992639993649526,400.3077019534612,15.592981754048298,12.8069583196612,11.95483881041565,30.095997104750854,18.201432389022813
18.9459991567933,400.8650703875499,15.633081250196545,12.791288251405325,11.916648606545198,30.130767647820257,18.218829131550276
18.897207618584538,401.24640671434275,15.673645764135646,12.770845853327685,11.878520697711444,30.153178118064332,18.235748845207503
18.846541812256966,401.45403378886016,15.714540952155605,12.745681958273007,11.84053213835595,30.163613513349816,18.251963367665994
18.794280643854243,401.4903996064437,15.75562977841742,12.715902517065956,11.802748724348085,30.16252521164164,18.267241594641586
18.740694484942537,401.35806703097035,15.796769238645112,12.681661004304488,11.765222811144392,30.150443741807763,18.2813509902611
18.686035063656078,401.05978462296054,15.837807241081679,12.643150738458417,11.727993769666426,30.127993487573278,18.294062259991204
18.630533590672574,400.5985342102923,15.878586455926262,12.600599251379386,11.691093034853306,30.09588936095304,18.305150707971052
18.574406870319166,399.9775158743287,15.918952305610878,12.554263033652875,11.654550922897053,30.0549143675111,18.314393517185735
18.517862651309102,399.20017202423264,15.958756479358657,12.504420611159704,11.618399760509758,30.005901505566502,18.32156944533855
18.46109735959769,398.27028229436763,15.997852807364776,12.451364757269019,11.582671237523076,29.949735683257785,18.326465649815766
18.40429050254355,397.19201882593757,16.036090769317838,12.395396144593557,11.547391528731865,29.887364400277683,18.32888601285284
18.347603642070013,395.9699049310903,16.073313969115077,12.336819078752226,11.512579560474133,29.81980215354211,18.32865227677394
18.291183262971945,394.60877761535147,16.109365004604285,12.275938181051055,11.478250588207212,29.74813196184461,18.325598334602287
18.235160552679854,393.11385741621746,16.1440896571927,12.213054405122389,11.444421880654343,29.67353375712749,18.31956580174582
18.17964542801107,391.4908558199868,16.177333823758737,12.14846043952669,11.411115821123321,29.59738342048511,18.310407480730902
18.124719513148687,389.74598281330003,16.208936214024682,12.082438938451894,11.378360702538004,29.521401161922068,18.297996253031933
18.07043504812834,387.88587478652187,16.238725184889713,12.015265528173268,11.346193001043988,29.447740924495484,18.28223010413501
18.0168215285216,385.91759422192285,16.266524035938147,11.947211592768218,11.314660938848746,29.37896355210242,18.263029280234655
17.963893549830022,383.8487968820181,16.29216082778962,11.87854113888291,11.283824687928835,29.31795061195588,18.24033247071489
17.911652741782753,381.6880038462419,16.31547481534555,11.80950328913468,11.25375110567184,29.267819441230685,18.214101452351194
17.86008377640152,379.4448175676881,16.33631648022478,11.740326628617659,11.22450639353329,29.23185073841482,18.184333209323587
17.80914928590875,377.13002139780434,16.354545448441584,11.671220186384913,11.196151521614315,29.213442111591554,18.15106720604931
17.758789828403277,374.7556197180617,16.370031725670486,11.602380096565344,11.168742025459133,29.21611325872299,18.114380677211358
17.708931654014044,372.3347843936467,16.38265974899443,11.533995094972843,11.142329482372471,29.243560721285238,18.074380407610736
17.65949638373183,369.8816160385069,16.39232924152884,11.46624555226119,11.116961490788484,29.29973222334932,18.031202994042488
17.610404909344204,367.4108031348671,16.398950319963657,11.399298740109126,11.0926805653305,29.388887147332103,17.985022392640808
17.56157705260428,364.93736074876307,16.402437785480593,11.333307205994537,11.069523929320837,29.51560207922023,17.936052671175602
17.51293467661433,362.47648350352324,16.402709183622427,11.26841297092788,11.04752418201221,29.68469998151705,17.884540656613662
17.464409859373742,360.04342021290597,16.399685301441345,11.204753429868445,11.02670931692636,29.901153258823726,17.830756650217378
17.415950545307215,357.65330314558923,16.393290211210804,11.142463119381379,11.00710085998259,30.17004845045672,17.77499317073446
17.367517795576216,355.3209670113064,16.38345053999751,11.081670317783876,10.988710377109227,30.49661647012252,17.71757050545834
17.3190793325143,353.0608516511142,16.370095206852266,11.022493008995504,10.971536212974563,30.886218169012075,17.658838063183314
17.27060883222148,350.8869795413369,16.353158527284105,10.96503873588487,10.955562115303543,31.344233719758073,17.599166004651497
17.22209275675942,348.812905612926,16.332590881006073,10.909407229524174,10.94075757419317,31.875971965752203,17.53893473621396
17.173536434332263,346.8516312904317,16.308374668445087,10.855691198740873,10.927078353121004,32.48670033599867,17.478531889549323
17.124962221613536,345.0155360426822,16.280534382303898,10.8039743883586,10.914465829907712,33.18171374176484,17.41835516871866
17.076402165693988,343.316279982434,16.249135559326977,10.754330831857216,10.902844855150072,33.96631054163489,17.358810160218518
17.027893200315866,341.76461495175647,16.21428193932274,10.706828210659497,10.892122355503501,34.84566234466734,17.300298361312414
16.979479226453467,340.37016375146567,16.176119829319433,10.66153342309178,10.88219227752762,35.824644983828556,17.243204872759478
16.931215379485955,339.14125793246694,16.1348446976227,10.618516062174681,10.872949017631704,36.90768447454624,17.187898085374794
16.8831668154495,338.0848478247987,16.090699798002394,10.577848085940836,10.864301040800294,38.09864013556815,17.13473970125743
16.83540140861138,337.2064471746989,16.043966088073283,10.539602408941507,10.856175056382192,39.400728103433046,17.084090004139714
16.78798356138108,336.51005871398814,15.99495139910423,10.503854151139405,10.848511989177839,40.81648062610542,17.036300344540376
16.74097661332365,335.9980607688716,15.943984562523644,10.470684565829053,10.84126335204397,42.34774275075661,16.991702493203437
16.694451815226504,335.6711278157099,15.891412432866774,10.440184227644052,10.834392873590206,43.995699364567784,16.95060768110119
16.64849260580455,335.5283009984357,15.837594286551628,10.412452294195482,10.827879800597444,45.76088893945438,16.913313973150384
16.603188058129042,335.5672480406643,15.782892392744513,10.387590801421268,10.821718212294455,47.6431714595683,16.880108938933898
16.55862287457332,335.78461209594485,15.72766489086289,10.365696082262824,10.815912534700594,49.641705548958896,16.851261395781446
16.514876521047,336.17629780783165,15.672268517766366,10.346851782353536,10.810473947990427,51.755042106133196,16.82701142739413
16.472033489970585,336.7376428080452,15.617068496594488,10.331125613940243,10.805421097797465,53.981334828762556,16.807570426439707
16.43019148604664,337.4634808734512,15.562442696416287,10.318567336539484,10.800784701934685,56.318510379976125,16.793129740482716
16.389457192798755,338.34808641417845,15.508773702219928,10.30920521915322,10.796612665554298,58.764288570399,16.783865635292905
16.349936702752128,339.3850651573514,15.45643628317214,10.303041483101913,10.792971707278308,61.31611480932482,16.779933995386795
16.311733129371397,340.5672917772364,15.405790255945353,10.300048781437289,10.789944595577865,63.97113917799548,16.781460953072973
16.27495201468219,341.88688905809755,15.357179909033183,10.300168567094099,10.787625454926433,66.72637341326103,16.788539184754484
16.239704465472705,343.33520653819005,15.310932701707044,10.303310254873338,10.786114376348385,69.57902763323436,16.80123190474432
16.206101870788828,344.9028311153905,15.267352254509827,10.309350542561242,10.785511004815634,72.5268419590332,16.819577273979583
16.174246816252634,346.5796586813909,15.22670993252235,10.318134808686109,10.78590767392235,75.56829437848317,16.843586863775272
16.144228506767956,348.3549657206407,15.189242762565755,10.329482925851606,10.787382569496254,78.70269895058348,16.87324189226041
16.11612574971048,350.21741422303955,15.155158476601377,10.343198741588546,10.78999332292436,81.93016939606025,16.908495996878514
16.09001227053194,352.1550000996953,15.124639397570341,10.359079292101432,10.793772714838294,85.25147183835978,16.9492846714845
16.065956798742874,354.15497903303884,15.097838967192997,10.376920262599697,10.798727963542031,88.66787321948033,16.995530515876343
16.044017126561897,356.20382789331774,15.074875061850536,10.396517618170563,10.804843520238709,92.18100690286042,17.04713781386633
16.02423410156483,358.2873749425859,15.055828012831823,10.417668117480066,10.812087512438831,95.7927226317186,17.103983800023002
16.006630155677158,360.3911454982705,15.04074551377195,10.440171077603798,10.82042079563331,99.5049330641004,17.165918240523204
15.991210091610457,362.5007385823932,15.0296484889463,10.463830861909099,10.829803647624079,103.31947033574761,17.23277241018249
15.97795884292276,364.6020413706353,15.022530898499616,10.488457614162208,10.840197712878018,107.23794574517083,17.304366260048482
15.966836555743969,366.6812914711595,15.019354762417468,10.513865601999097,10.851567282980495,111.26165426689128,17.38050614602848
15.957778774583623,368.72511212038035,15.020048309420059,10.539872619865958,10.863881769188842,115.39156440492135,17.460979923850843
15.950708261603612,370.7205900595827,15.024510942444634,10.566303654110131,10.877116391023197,119.62830325953307,17.54556043083524
15.945553268508455,372.65533102645117,15.032619650079836,10.592996334753812,10.891250037119338,123.97204416699891,17.634016583386522
15.94225855802282,374.5174198005088,15.04423014866948,10.619803814450552,10.906261665454462,128.42237101364913,17.72611953707461
15.940783525087898,376.2953326438537,15.059172919402462,10.646594537465662,10.922125847701793,132.97823171739978,17.821637132118656
15.941096981971082,377.9778609400467,15.077249515292548,10.673250681720631,10.938808242601306,137.63799413113898,17.92032619955737
15.943180807991558,379.55403312862904,15.098234471899309,10.699666483459255,10.95626326959284,142.39953615267265,18.021936814695618
15.947041021566436,381.01303832916545,15.121883147187388,10.725746081775846,10.974435528630515,147.26026293198296,18.126227726929166
15.952713040497265,382.3442121332655,15.147938874265046,10.751399650466974,10.993262910667559,152.21701733971548,18.23297655373282
15.960255031083493,383.5371066872297,15.176133627426651,10.776538200009691,11.012677522470346,157.2659822489021,18.341974812821807
15.969738395129072,384.58158098809224,15.206184353257491,10.80106928666936,11.03260346692943,162.4026473528808,18.45301756605157
15.981247577211718,385.4678798816164,15.23779086612548,10.824895713386104,11.052953733672323,167.621811338623,18.565902525965203
15.994890708235653,386.18673380766603,15.270638066861684,10.847917517707703,11.073627654056674,172.91763356605753,18.680438257472577
16.010809662332637,386.7294508069662,15.304399783929334,10.870034854815682,11.094509017732802,178.2837906725399,18.7964471966368
16.029177632623583,387.08794048308005,15.338739564455834,10.891148451163994,11.115466544982203,183.7136544668943,18.91375612134085
16.050186927361768,387.254687803791,15.373308988094195,10.911156718905493,11.136357919497035,189.2003229680712,19.0321837298111
16.074045485198074,387.2227591081599,15.407750514757542,10.929953047929581,11.157034642186485,194.73649534675792,19.151538144921062
16.100998808478987,386.9859449462442,15.441708472459284,10.947429663919499,11.177346533404675,200.31433441028483,19.271623665194163
16.13136677034195,386.53905546846215,15.4748410890199,10.963489082103653,11.197149529526369,205.92542599457158,19.392245071747535
16.16557920454342,385.8782042858563,15.5068250378359,10.978054237449266,11.216316296942159,211.56087586443942,19.513203239307167
16.204242460559236,385.00092076724087,15.537353516766531,10.99106988976935,11.234742579423148,217.21151432241035,19.63428807460195
16.24826524614014,383.90611265131133,15.566134494455637,11.00249984034756,11.252346138936096,222.8680622795707,19.75527876133839
16.29898470899117,382.5939811247705,15.592892776786243,11.012327664671565,11.269062628858906,228.5211329414002,19.875952420669655
16.35821774839223,381.0659259299637,15.617373794680365,11.020559874767669,11.284842946907222,234.16111759754796,19.996089885566203
16.428235546695472,379.3244255093015,15.639344522574188,11.027224892052946,11.299652235212637,239.77808123405381,20.11547036037183
16.51173104455236,377.3729339462499,15.658590132523036,11.032365753709085,11.313468198905609,245.361757658129,20.233862533228397
16.611885927576516,375.21586224109706,15.674910197961472,11.036030527471105,11.326277668778799,250.90170512613332,20.351024616631804
16.73254612189745,372.85858596508194,15.688120548543882,11.038265083647332,11.338072596598362,256.38758499869317,20.466713320004086
16.878394829071333,370.3073571709964,15.698061860368464,11.039112659859429,11.348847008815154,261.80938401113366,20.58068927063019
17.055113016933337,367.56911026082247,15.704607207789941,11.038625203882628,11.35859628497307,267.15745428675496,20.69271105548863
17.26956271190521,364.6512595802761,15.707661430563004,11.036883298662888,11.367320916964063,272.42245839038327,20.80252537859626
17.529835851845046,361.5615998597117,15.707155158687469,11.034010649883266,11.37503425753475,277.5953561730344,20.909867110093746
17.845032969938458,358.30832937859753,15.703041194643923,11.03017624245434,11.381767956062305,282.6674369281726,21.014471628432577
18.22489367700139,354.9000766321497,15.695296112942417,11.025590939528428,11.387569974257461,287.6303601632877,21.11608575090456
18.67944527154906,351.3458237601142,15.683922682019372,11.02050266499971,11.392497375476692,292.47619662059003,21.21446621803022
19.218739203841967,347.65475849985796,15.668947744191717,11.015187893767068,11.39660808065868,297.19740676647336,21.30937319465536
19.85275169030165,343.8361422483824,15.650417214700168,11.009940915773452,11.399953416264891,301.78670382729416,21.400573636148806
20.591454681625905,339.89926338064265,15.628395972726716,11.005066722725388,11.40257266734314,306.2368765439756,21.487855355850325
21.444892748960427,335.85350164911506,15.602975649518225,11.000880066413645,11.404490460578389,310.54071565752656,21.571036431788023
22.423155459848505,331.70842736624036,15.574282462750356,10.997705619807085,11.405716655387533,314.6911100439047,21.649960467576335
23.53629062273912,327.47380712329317,15.542476514381327,10.995872648025404,11.406247894358188,318.68121870726037,21.724487821595297
24.794164517069653,323.15948804269124,15.50774463434883,10.995709199702791,11.406069141964519,322.5045671761719,21.794497770883698
26.206321501278456,318.77525235812465,15.470295900819357,10.997556703257994,11.405153305689328,326.1550396182767,21.85990117024278
27.782092034405174,314.3307471522141,15.430364265544839,11.001816614977084,11.403459179442072,329.62686749457333,21.920648561717698
29.530998697046588,309.83551477159625,15.38821256239794,11.009001717318503,11.400929427042943,332.9146770574715,21.976724507070447
31.4630609260119,305.2990413823868,15.344129815747804,11.019752103090282,11.3974893330958,336.0135397051401,22.028136702186476
33.5886941440791,300.73073468127495,15.298422683765665,11.034812405992321,11.39304649707721,338.9189891275405,22.0749148123261
35.91833997819008,296.1398560831135,15.251411306130805,11.054996342462701,11.387491462901004,341.6270497314992,22.117120757043253
38.46204534161375,291.53549647616074,15.203439483757919,11.081158746098017,11.380698584177576,344.1342658369104,22.15485553049379
41.22908585596851,286.92660928639964,15.154903094103378,11.114176974926583,11.372527361728954,346.4376631866576,22.188251929325823
44.22773485001953,282.322014900983,15.10629956207233,11.154932384042459,11.362825519749608,348.53464879015706,22.21746182985674
47.46521827970646,277.73032117479227,15.058307959107225,11.204287535634187,11.351433601655842,350.42292871329954,22.24265289199206
50.94770237938383,273.1598241164646,15.011916495836852,11.263066815079727,11.338189250718848,352.10049283502866,22.264016241119677
54.68016292956444,268.6184810494648,14.968587876793599,11.332045859717816,11.322929950052078,353.56565745574954,22.281771975189244
58.66622954046291,264.11395788217976,14.930421500448796,11.411944863184257,11.30549514163737,354.8171561280606,22.296162608300932
62.908194443377006,259.6536926438459,14.900310547172682,11.5034299210888,11.28572970172321,355.8542547015237,22.307440951748863
67.40715410388998,255.24495140752074,14.882108069109986,11.607141234843315,11.263488462812546,356.6768092300263,22.315866106132077
72.16305865121038,250.89488263373724,14.880757986959216,11.723742845449697,11.238639204453465,357.28524258071263,22.321710053077005
77.17459964965735,246.61057888418097,14.902353012415874,11.853952832916095,11.211063251308277,357.68056508989093,22.32526192576512
82.43908833915249,242.39915476007545,14.954123133634383,11.998529722430844,11.18065491233699,357.86451471291184,22.326819316078847
87.95239958998737,238.26782313560685,15.044341659120255,12.158231971762772,11.147320518365945,357.83968573366195,22.326672929745232
93.70889954190909,234.22392914201728,15.182167633249536,12.333774179768088,11.110977413210174,357.609544899871,22.325098403183798
99.70131412510926,230.27491332318425,15.377545327686363,12.525789536627903,11.071553595718369,357.1784033053947,22.322358584421043
105.92063082931804,226.42822485688708,15.641215030384107,12.734800262222667,11.02898829931666,356.55140854489804,22.318706059757478
112.35617485999296,222.69124916999868,15.984682290190182,12.961194914812738,10.983232912818822,355.73459829495545,22.314377716535493
118.99585530021595,219.0712808728813,16.420047087233254,13.205210752632851,10.9342516129409,354.7350248129888,22.309586567852577
125.82639943506926,215.57550988589108,16.959800493248554,13.466921088947554,10.882022552096759,353.56080464528463,22.30452111766745
132.83349372604377,212.21097916085756,17.61664476732825,13.746229011693824,10.826541089795786,352.2209555942422,22.299353210402796
140.0019059051639,208.98450781950442,18.403299472729277,14.042866726607373,10.767823804682001,350.725086949111,22.294243876249705
147.31558899045672,205.902594872691,19.33236450266919,14.356399961089211,10.705909936409588,349.0830780335709,22.28933877894409
154.75775771677914,202.97131866353666,20.416328643117854,14.686252714430532,10.640859597045278,347.30480778216963,22.284759197214363
162.31099910520263,200.1962638121342,21.667627286902377,15.031794616054757,10.57275125006122,345.39999143782524,22.28060199756244
169.9573775169368,197.58249726823286,23.09857874376741,15.392538491195435,10.501680375186067,343.3782388898114,22.276950485774115
177.6784402797606,195.13454489298263,24.721182687839363,15.768444689983914,10.427758833593566,341.2493382116441,22.273882446636723
185.4551891590182,192.85630311909227,26.54690983885044,16.160231933885303,10.351114389126346,339.0235110348117,22.271466272725473
193.26822536175462,190.75091018113665,28.586581589226896,16.569553914589054,10.271892915593888,336.7114249575995,22.269753541191346
201.09813087683352,188.82066385106964,30.850314038295515,16.999026954324883,10.190265167169377,334.3240684217826,22.268781699240677
208.9258355147128,187.0670215272924,33.347433599588136,17.452284495421864,10.106433597345703,331.8726676397941,22.26858766967595
216.73276227285183,185.49066418906634,36.08631153293697,17.934202463555007,10.020633096567849,329.36861778936907,22.26921793889783
224.50085862412226,184.09164312065474,39.07415990234445,18.451182140038764,9.933125220338997,326.8233344229165,22.270723804494285
232.21262439065995,182.86961615580717,42.31685722862332,19.011311076241793,9.844189606056474,324.24808636294523,22.273148515628648
239.85107332790938,181.8240617776761,45.818823528072464,19.624414539486395,9.75411619718047,321.6539508660271,22.276522247273075
247.39959513203442,180.95435698442094,49.5829842006703,20.3020135812018,9.663200273555981,319.051916205176,22.28086952489943
254.841778602886,180.25973904766764,53.61084480230846,21.05710382487225,9.571741061161017,316.4530045952927,22.286215851872367
262.16126686290966,179.73924349645014,57.90255975355927,21.90384569095319,9.480043811869553,313.86826835248803,22.292581518601253
269.34171331230203,179.39166237577552,62.45693767849751,22.857345094631732,9.38842289756135,311.30867429953037,22.299969128501694
276.36686810546,179.2154816818578,67.27155448059946,23.93343919598736,9.297201862288619,308.78503061360476,22.30835991043913
283.2207176670472,179.20876003003093,72.34303921445157,25.1483200319002,9.206708665670918,306.3079980193549,22.317721892897378
289.88756270167863,179.36898878262596,77.66729119833772,26.518079213949857,9.117268015793636,303.8880611265595,22.328017609896634
296.352018989392,179.69300690527646,83.23948007296549,28.058368414011113,9.029194025786408,301.53538435691485,22.339201548406717
302.5990363237239,180.17699536979416,89.05399474791702,29.784262444869764,8.94278502372954,299.25960485094964,22.351213612223013
308.6140160270138,180.81649809134709,95.10448470088932,31.710359108317636,8.858320081484145,297.06965413211753,22.363981922655157
314.38297233506216,181.60640455924022,101.38393429987016,33.85105877784952,8.776057287354595,294.97368785629135,22.377436315523667
319.8926211053866,182.54088435864404,107.88467643058814,36.22072337483864,8.696237272566364,292.9791172351491,22.39151746564736
325.1303888303307,183.61332245898734,114.59830499325443,38.833471120323296,8.619093674351774,291.09262326698973,22.406170764823575
330.084448748191,184.81635114196524,121.51553860918806,41.70277400358839,8.544863380833645,289.32011123698027,22.421334362415674
334.7438470910972,186.14204449610384,128.62619422705447,44.84111502449973,8.47378814028734,287.66672838226293,22.43693742101496
339.0986413504823,187.58224399312363,135.91932417716757,48.25970345326639,8.406108940452885,286.1369816139807,22.45290986448492
343.13994283022396,189.12890701984475,143.38335971196338,51.9681964602309,8.342059584647041,284.7347969915454,22.469189690338464
346.8598753447652,190.77433113712993,151.00613772072356,55.974481316815975,8.281861482732314,283.4634600462355,22.485718547020852
350.25152446532167,192.51118585824088,158.7748548968912,60.28452927026062,8.225718310572928,282.32560658153625,22.502433497909752
353.3089286090152,194.3324196359253,166.6760085470783,64.90230027203565,8.173810395708959,281.3233457280635,22.51926895790888
356.02719959511796,196.23110885385955,174.69532843732702,69.82971968291454,8.12629034930971,280.4583360074493,22.536169066634407
358.40280848624116,198.20029020298847,182.8177279089103,75.06668913932073,8.083281438846457,279.73167501888673,22.55309535307166
360.4338494197436,200.23287728950675,191.0273300768919,80.61106716216221,8.04487892696243,279.1436928278703,22.57001998084884
362.12008140131445,202.32171784780576,199.30759720830164,86.45862958806934,8.011153017779323,278.69381104845735,22.586911534508204
363.46281177057483,204.45967986525247,207.64153091403622,92.60302031362143,7.982150781875033,278.38058459999786,22.603724996916334
364.46479277525043,206.63964712120253,216.0118419214483,99.03571450629863,7.957895338229234,278.2019165055657,22.62039954084583
365.13015646502527,208.8544909528888,224.40100870008902,105.74609347693189,7.93838337589322,278.1552780819139,22.63685829151122
365.46430196235946,211.0971335928863,232.79124751889415,112.72164911424154,7.923582880262423,278.23780538177016,22.65300322749873
365.4737097596288,213.36064836515646,241.16446707398708,119.94818614724798,7.913432044485858,278.4462922218556,22.66870650630497
365.16574259812035,215.63826064176965,249.50230250750468,127.40995754159326,7.907842177198957,278.77714321783526,22.683806512567152
364.5484904731395,217.92324342621222,257.7863147545526,135.08984445617483,7.906709667962713,279.2263362619797,22.69811477922951
363.630696041645,220.20881583124637,265.9982823427268,142.96976520763704,7.909935414918123,279.78943278109244,22.711429123452753
362.42175005449735,222.48810755920067,274.12037626431504,151.0313196683951,7.917439970343985,280.4616262796213,22.723541355759487
360.9316724770961,224.75415691089424,282.1351380394668,159.25633199765744,7.929167181342905,281.23776385316756,22.734235701862968
359.1710308902393,226.99989899053642,290.0253828875631,167.6270139499753,7.945081326561607,282.11232629642694,22.743286054795103
357.1508351403059,229.21816984890128,297.7741602194028,176.12587606791348,7.9651627617687515,283.07943990950383,22.750459924055072
354.8824513831492,231.40177705995222,305.3648003925928,184.7355784022486,7.989400917973945,284.13292928509884,22.75552617301042
352.3775948059202,233.54362848009708,312.7810197957328,193.4387453790667,8.017783899381506,285.26632733108363,22.758258003930653
349.6484319890254,235.6368697130987,320.0070397189475,202.2177607711252,8.05028779435583,286.4728456190912,22.75842849971717
346.70766568684996,237.67498106523814,327.0276657623198,211.05459755332322,8.086872317435482,287.74543055750235,22.755803568584323
343.5684645726362,239.65179201162624,333.82832798091664,219.9307209810559,8.12749050948093,289.0769295946374,22.750139278958144
340.24428197408565,241.56141625077638,340.3951203372412,228.82707821554303,8.172111363178761,290.4602019299343,22.7411860975379
336.7486720881917,243.3981799760397,346.7148103919706,237.72415665005016,8.22074106203086,291.8880598567557,22.728694102424207
333.0951411457727,245.15661974307517,352.774805631969,246.60204705941325,8.273431289484678,293.3531153871951,22.712412280842226
329.2970399428147,246.83155862073147,358.5632025576732,255.4404635219715,8.330277321074306,294.8476458612725,22.69208356978918
325.3675296785657,248.4182177529135,364.0689854934334,264.2187748086476,8.391411005104404,296.3635183694252,22.667443030563966
321.31965994404277,249.91229860662818,369.2822220386257,272.9161222439292,8.45699167870715,297.89216839942674,22.638223103922435
317.1665727311677,251.30997972380771,374.1941491306102,281.51159303299244,8.527208648867722,299.4246411586952,22.604161859882343
312.9217711491462,252.607844702781,378.79722135055084,289.9843840057334,8.602306687316444,300.95170915981885,22.565007190580374
308.59927464399414,253.80281050227637,383.08516304600136,298.313984170536,8.682616907962679,302.46401625187417,22.520515591397576
304.2135404337049,254.8920832777644,387.05304908302753,306.4804333485622,8.768566053140946,303.95217122771436,22.470451561364584
299.7792592138294,255.87311396224356,390.6974455828571,314.4645833927927,8.860662448519799,305.4068140889145,22.41459442795483
295.3111838607936,256.74353705331174,394.016491468257,322.2482235740972,8.95947130975087,306.8187222724841,22.352750833831863
290.8240095297776,257.5011441673943,397.00979173810117,329.8140677477684,9.065586043179303,308.17892281544795,22.284763345178916
286.33226589650843,258.14397158581545,399.67819315708886,337.14568842842334,9.179599575188934,309.4787710893767,22.210510297942005
281.85023055210087,258.6704731869232,402.02359912947213,344.2274391525315,9.302087965508191,310.71006098247346,22.12990252766204
277.39186709663335,259.0796336243521,404.0488757478016,351.0444286744347,9.433626927173284,311.86519169518147,22.04288638502307
272.9707394288066,259.37096082127346,405.75775911927684,357.5826115858923,9.574840007661015,312.9372944711756,21.949454500309294
268.5998912020009,259.5444762866996,407.15468442997957,363.8289064352112,9.726437673447874,313.92023687318306,21.84965396828584
264.29176031158073,259.60080647555327,408.2445884520831,369.7712057356953,9.889214021497233,314.8085279328899,21.74358356074292
260.05816554684236,259.5412928950751,409.03275840538987,375.39832434848364,10.064012083290473,315.59722480078494,21.63138576844885
255.9103247365302,259.3679867250255,409.5247264321142,380.70002248217946,10.251685544159402,316.2819808489855,21.513245003106615
251.85889485102356,259.0835371418094,409.7262132290553,385.667105480927,10.45307007911447,316.85932770374404,21.389392838016768
247.91403843732215,258.6910960055712,409.64314278226107,390.2915207854001,10.668963973412664,317.32715231976886,21.260110177544895
244.0854692105521,258.19432998678,409.28167252485065,394.5664311184175,10.900123566321026,317.68518261011707,21.125720457341902
240.382521331923,257.59752341427543,408.64815039104064,398.48624574893836,11.147282240982998,317.9351905054083,20.986579245171722
236.81431975620012,256.9056693942121,407.7490219445718,402.0465621395038,11.411182307967422,318.0807801044607,20.843068353189423
233.38990259983245,256.12446134582973,406.5908168413609,405.2440284720657,11.692606083082923,318.1269627989641,20.69559640207792
230.11810900082745,255.2602118067796,405.1803024278929,408.07622647969686,11.992405649226207,318.079793529127,20.544599858072242
227.0073136241245,254.3197711916126,403.52474081774756,410.54172513535366,12.311517203880415,317.9461563379447,20.390537622845873
224.06522043941126,253.31042345773213,401.63208230798364,412.64033322579456,12.650939950347952,317.7336145189723,20.233880147100667
221.29880847122263,252.239714536497,399.51099104874606,414.3733319605308,13.011687253883883,317.45022745940247,20.075101278517636
218.7143452410888,251.1152614560964,397.1707675685783,415.7435002753479,13.394741278812566,317.10436753710763,19.914678014224275
216.3173546092983,249.94460699035952,394.621300740287,416.7550073260738,13.801052400624997,316.70459438426013,19.753092489161652
