HandOpen,HandClose,Wrist Flexion,Wrist Extension,Supination,Pronation,Rest
98.885356912466,179.33480221767988,59.12511364396057,55.33333175186656,73.73272519654128,89.0845849670186,90.40479218517474
98.98701502095052,176.82747967966552,58.84558002791317,55.37616074237484,73.56544363434077,88.16964510661285,90.77325184338096
99.110184234686,174.2965623256974,58.55868443245217,55.42279199896336,73.40412027512579,87.28084984289731,91.13169321697914
99.25392217997259,171.75099979071788,58.26507459951999,55.47311189041659,73.24920771360158,86.41936149765235,91.47914002259101
99.41714611887176,169.20014136030676,57.965449717574636,55.52700656268637,73.10102658969718,85.58625353526615,91.81479241509523
99.59862765265171,166.65354054875576,57.660565453467946,55.584379738012345,72.95977779526413,84.78252511052109,92.13799148319768
99.79702664361953,164.12077861302737,57.35125251809421,55.64514720097623,72.82558085570062,84.00907832923228,92.44821485330053
100.01091812483915,161.61132329966884,57.03841672506718,55.709218032547966,72.69849543258759,83.26670532563503,92.74506001506224
100.23877795968096,159.13438989862289,56.723010156812116,55.776493934351095,72.5785085582006,82.55610746403372,93.0281952242951
100.4789654480075,156.69879044099463,56.40599948494581,55.846886719493604,72.46552507113455,81.87791216431135,93.29731144647576
100.72975564591276,154.3127983133801,56.08835833300394,55.920322421498405,72.35939638484213,81.23265665525744,93.55210755273487
100.98940316590902,151.98406071783222,55.771076097192925,55.99672031955639,72.25996261680845,80.62076822665944,93.79229346127413
101.25617362656592,149.71955167095408,55.455153043854764,56.07597529698764,72.16706007566499,80.04258414593629,94.0175764814414
101.5283335773098,147.5255286081948,55.14157381961532,56.157970876390515,72.08049669735117,79.49839172698802,94.22763328081344
101.80415131732063,145.40747829973705,54.83128639901646,56.24260664513286,72.00004403174928,78.98843419318976,94.42210154683646
102.08192777202929,143.3700748021691,54.52520885326966,56.32980267129811,71.92546877334479,78.51288041181049,94.60059592827913
102.36001469839634,141.417164060349,54.22424718400174,56.4194793585962,71.85656757865453,78.07181107868195,94.76271594931445
102.63679449334501,139.551757150083,53.92929300610496,56.51154550420227,71.7931642528418,77.66524503123779,94.9080371295578
102.91066277273777,137.77601437447416,53.64120277138842,56.60590681451765,71.73508450889679,77.29316430496318,95.03611771842203
103.18006000394897,136.091233121034,53.360785579059474,56.702470936462866,71.68215064210776,76.95550158891596,95.14654543956682
103.44352475051816,134.49787245902456,53.0888058031275,56.80113020197709,71.63419715986942,76.65212134421651,95.23900060850661
103.69970440649061,132.9956254383022,52.825979772637915,56.90173734637746,71.59106965438572,76.38283647513299,95.31328267296907
103.94732111308574,131.58350070344937,52.57295711793228,57.00410074863365,71.55259431404127,76.14743533947889,95.36928466360536
104.1851508276718,130.25987090933103,52.33030703234253,57.107997774320026,71.51855369204863,75.94566853547235,95.40696056965797
104.41204030161164,129.02250132540433,52.09852739051373,57.21317887344062,71.48870096038176,75.77720353644484,95.42632578079414
104.62692042528595,127.86860225218184,51.87806062706633,57.319354627345184,71.46279195116821,75.64160474040793,95.42747253921004
104.82878290319994,126.79490884976829,51.669289028608304,57.42619745835988,71.44059067199287,75.53836625778358,95.41056426425557
105.01665461896098,125.7977467704052,51.47251118818826,57.533382260756824,71.42184617264631,75.46695432583573,95.37582890843686
105.1896170140323,124.87306216341428,51.287929704959225,57.64063614207366,71.40628193616025,75.42680514020739,95.32360706192843
105.3468506053223,124.01644669809875,51.115671512811694,57.747750261429,71.39361913217284,75.41728949096849,95.2544396721652
105.48764609738234,123.22319013548113,50.955821948280594,57.85455599645263,71.38360327395218,75.43769758118269,95.16910831300379
105.6113782129043,122.4883455823319,50.808436829516346,57.960905824113574,71.37599918304896,75.48725624805034,95.06859484368255
105.71749594283776,121.80677173115288,50.67353328114027,58.06667529389548,71.37056788528744,75.56513598771464,94.95401379443793
105.80554919824966,121.17315473798979,50.55108845061346,58.17176320970913,71.36706356881052,75.67042200057975,94.82656102280208
105.8752057641688,120.58205407581065,50.44105108284502,58.276070973369116,71.36525226222543,75.8020826343352,94.68746764681318
105.9262251506687,120.02799020251233,50.343343506799876,58.37947680394909,71.36491636076582,75.95897716433451,94.53794171239802
105.9584275786157,119.50552644474674,50.257846041051366,58.481830499747964,71.36583046089123,76.13988945751001,94.3791151006799
105.9717090445865,119.0092995067296,50.18438605378962,58.582964285166824,71.367740628346,76.34353895851228,94.21202954988526
105.96608214497252,118.53402238788314,50.122750834108714,58.68269225474139,71.37037706490679,76.568559819153,94.03765788742817
105.94168076603606,118.07451723635542,50.07270779460611,58.780791350248286,71.37348056494939,76.81349041231957,93.85691264388224
105.89872357499858,117.6257902606041,50.034002569723285,58.87699053815415,71.37680239254277,77.07679832487798,93.67061785858878
105.83749237342467,117.18309629975761,50.006336431187925,58.970989948606736,71.38007692296704,77.35690921371136,93.47947673666219
105.7583482094141,116.7419586589814,49.98935435568716,59.0624911715757,71.38300817930579,77.65220131263233,93.28406977263006
105.66174056715884,116.29819149296999,49.98266155823926,59.15120418366875,71.38529520027893,77.96098010722108,93.08487030629404
105.54817599221195,115.8479666221306,49.98584541358349,59.23683183850675,71.38666659437524,78.28147843661289,92.88224678759033
105.41818307471577,115.38787388937169,49.998472039705796,59.31906693926192,71.38688161446419,78.61188980630575,92.67646603426253
105.27232310405522,114.91491258781252,50.02006352100685,59.39761914661749,71.38570495414439,78.95039353235327,92.46774376492439
105.11122556973751,114.42643216496913,50.05008511644756,59.47224449427511,71.3828942612558,79.29514605850721,92.25633270751254
104.93558825713767,113.92007998426972,50.087953107188774,59.54274600976569,71.37820693588147,79.64427037278396,92.04257327371472
104.7461386127432,113.393782641443,50.133045072523025,59.6089570664582,71.37139711132873,79.99588329267976,91.82687151721377
104.5436126012802,112.84574071909898,50.18469659819047,59.67074015468256,71.36219129805164,80.3481430942556,91.60965419957272
104.32877349517787,112.27440475358175,50.24219895366051,59.7280016171531,71.3502698394102,80.69926622327668,91.39135412757628
104.10242509633864,111.67843476055435,50.304822443988456,59.78069325428265,71.33527787406851,81.0475059037298,91.17241393614086
103.86538545930536,111.0566789962713,50.37185709190545,59.828790420267,71.31684697225353,81.3911427107333,90.9532684196639
103.61845913190739,110.40818828377398,50.44263411430661,59.87227364125333,71.29459426881502,81.72852193628887,90.73430290279386
103.36245699074708,109.73223308832323,50.51651589029662,59.911140099837574,71.26810260990446,82.05810383531383,90.51582492635396
103.09823976744602,109.02828823185784,50.592885292045665,59.945428981933986,71.23691716003667,82.37847347932322,90.298079458432
102.82672183781817,108.29600144565978,50.67116256919684,59.97522298587141,71.20057573310444,82.68831577820326,90.08128993138195
102.54883119075897,107.53518731392249,50.750833159672865,60.00062083107589,71.15864569011457,82.98640322197973,89.86567658690704
102.2654845231315,106.74585258159557,50.83145111005436,60.02171337819578,71.11073276726252,83.27161029415839,89.65144162037507
101.97760487820085,105.9282196085295,50.91261706012826,60.0385869557058,71.05646993187545,83.54292172580122,89.43875863960031
101.6861376369294,105.08272465144016,50.99396330807044,60.05133719265672,70.99552044874976,83.79941574863753,89.2277808801053
101.39202583623654,104.20999851343987,51.07516628653705,60.060065855564126,70.92759869811333,84.04025385995746,89.01863779555643
101.09617923434081,103.31084457142997,51.15596828750848,60.06486914441779,70.85247799616619,84.26470662817493,88.8114032975665
100.79949093566717,102.38621539624796,51.23617745211668,60.06584454400646,70.76997191976788,84.47218535648206,88.60606639621994
100.50288316416975,101.43717979884693,51.31564725340662,60.06310998280323,70.6799173251104,84.66223520569532,88.40254461954217
100.20731488358406,100.46488494040496,51.39426366243377,60.05680410750706,70.58218935810056,84.8345059448654,88.20073096124185
99.913739522344,99.47053203428331,51.471947581945095,60.04706204987025,70.47673346980173,84.98874981964148,88.00052108379052
99.6230715678396,98.45536849143008,51.54865071248767,60.033995589523784,70.36357303531548,85.12484745246097,87.80180145263783
99.33619591946878,97.42067675554401,51.62433378753867,60.01770069991954,70.24278561287763,85.24281312316711,87.60443857034481
99.05398055647781,96.36775095189924,51.69894894333989,59.998276762173354,70.11448497719529,85.34275863372415,87.40829734407494
98.77725241161139,95.29788290750791,51.77244920705173,59.97582517319432,69.9788361642045,85.4248542482849,87.21326124615211
98.50676666988153,94.21237876738758,51.84481074045216,59.95042588326009,69.83608169332676,85.48932863144118,87.01922175283941
98.24322096723445,93.11258911813752,51.91603488592876,59.922124251155545,69.68654061580233,85.53649432348931,86.8260553515642
97.98729841863326,91.99991565721398,51.98612581784604,59.89095000828558,69.53058328244337,85.56674870388237,86.6336322538227
97.73967720763848,90.8757902396017,52.05507129132084,59.85694721180416,69.36861686634956,85.58053765066941,86.44185529940059
97.50099603965579,89.7416617208995,52.122846181003645,59.82017972071519,69.20108961327706,85.57832901125506,86.25067836936682
97.27182819790981,88.59901246758656,52.18942468939022,59.780714412017375,69.02848533409832,85.56063377429774,86.06008387065951
97.0526926313876,87.44937783891831,52.254775998756394,59.73861265226595,68.85129509132165,85.52804312306957,85.870059002844
96.84406558644629,86.29433541014217,52.318846635717556,59.69393597361408,68.66999607055462,85.48122624696043,85.68060285263483
96.64635825037335,85.13547662505476,52.381556025172486,59.646742395928754,68.48506795720154,85.42089200711627,85.49174158433776
96.45988984780543,83.97439823961226,52.442812124936395,59.59706530743373,68.29702633652005,85.34776166092067,85.30351920871756
96.2849046892489,82.8127183853871,52.50252261045706,59.54490058369866,68.10642709523411,85.26256771557146,85.11598088414236
96.12161847764384,81.65208310440289,52.560584909247616,59.490224254683596,67.91383699896302,85.16604769916361,84.92918953357189
95.97023217642744,80.49414485608317,52.616872708435594,59.433022353410756,67.71981100016156,85.05891370483064,84.74326634459565
95.83089831348312,79.34054173765627,52.67124056856561,59.37329754049003,67.52490277607757,84.94182559566501,84.55840177383541
95.70369323963601,78.19290859387627,52.72353662661159,59.31105055168561,67.32968552267057,84.81540250093478,84.37482108494086
95.58863650246333,77.05290291054071,52.773599220292795,59.24626661378095,67.1347474017858,84.68025806778446,84.19274773514702
95.48572630763702,75.92220457429329,52.82123844396122,59.17892539802509,66.94066756324963,84.53701181557682,84.01240477120753
95.39493794704482,74.80248554314115,52.86623163389112,59.10901958829601,66.74800610162656,84.38626736014554,83.8340396253159
95.31619503066833,73.6953873776782,52.908352544932406,59.036556988515,66.55731178600779,84.22860594972147,83.65792826932659
95.24936917179501,72.60252936230101,52.94741221405591,58.961548468471456,66.36911788465338,84.06463010428641,83.48435387824449
95.19431485818096,71.5255210811717,52.98327380858163,58.88400730645738,66.18391521554474,83.89501834145392,83.31359780765968
95.15088383380154,70.46594679478345,53.015842138199034,58.80396542081336,66.00213351524403,83.72053154846309,83.1459538967655
95.11889123903444,69.42533298713076,53.04505795025895,58.72148127977375,65.82415948198478,83.54197938997409,82.98173228397356
95.09807998515045,68.4051368528002,53.07090404566733,58.63662447220564,65.65037023550201,83.36020118119916,82.82123507307334
95.08813597775243,67.40676411926314,53.09340248052405,58.54945882258399,65.48113841204592,83.17607359425799,82.66473490564468
95.088734339444,66.43158136345278,53.11259421713584,58.46005223730449,65.31680521005438,82.99050566716701,82.51248906093481
95.09955353846927,65.4808952916091,53.12852171898474,58.368503577841054,65.15766297484056,82.80440046070208,82.36476943557376
95.12024548173923,64.55591909385667,53.141235238892996,58.27495110023896,65.00397528692191,82.61861790556873,82.22186362911981
95.15041356032782,63.65776759551169,53.150810333637075,58.17955211829568,64.8560072754463,82.43397990369147,82.08405063892123
95.18962917790807,62.78748807613872,53.15734644971609,58.082460368557776,64.71402405524113,82.25130210712086,81.95159916994969
95.2374503318155,61.94608458871589,53.160943294002976,57.98382640384047,64.5782635707677,82.0713985454589,81.82479836261324
95.29340380207243,61.13450213908363,53.16168399834538,57.883812167396485,64.44892357281691,81.89504706140961,81.703973369911
95.35695994073025,60.353592471838915,53.15964553279684,57.78259236035609,64.32617243859063,81.72296507820629,81.58945926853919
95.42755365695913,59.60410610722564,53.1549188553015,57.68034025034119,64.21015315237923,81.55583297405909,81.48156888475204
95.5046389860994,58.88671817557129,53.14760901601689,57.577220930102534,64.10096256803662,81.39433247434269,81.38059467721196
95.58771120149356,58.20204877366863,53.13781753160546,57.47339700527257,63.99863121916287,81.23914459844025,81.28683012416948
95.67627792286713,57.55064790324789,53.12563389023568,57.36902550615213,63.90313242903844,81.09090919313734,81.2005683189814
95.76983149218755,56.9329661526075,53.11114279256212,57.264237273817216,63.81440710329636,80.95019703738907,81.12207777916014
95.86785797035513,56.34934898344616,53.09442583571116,57.15912111904,63.73236842389996,80.81751643949795,81.05159610756094
95.96985030095964,55.80005505703937,53.07554604845963,57.05373602484473,63.65688413267538,80.69332029317759,80.98934958513084
96.0752890548616,55.28526331527561,53.05453429677409,56.94813914034474,63.587775004253594,80.57798689035425,80.9355577009492
96.18361875727769,54.80505159217415,53.03139874567113,56.84239637955847,63.524852866415934,80.4718054403046,80.89039958694192
96.29426941516353,54.359374656912195,53.00614568233939,56.736570907684985,63.46796544865421,80.37500352850303,80.85397558346622
96.40670753928298,53.9480732920573,52.97878216999336,56.63071612268255,63.41700291532345,80.28779062260043,80.82630891097195
96.52045250320982,53.5709029527631,52.949296926741276,56.5248850265591,63.371873914928074,80.21036354372599,80.80738025065735
96.6350414111257,53.227544128503254,52.91764640642504,56.41913750615564,63.332493571301185,80.14287403358846,80.79714312145286
96.74999521557703,52.917585205176316,52.88376436299585,56.31353047329297,63.29879320183695,80.085406615012,80.79549748545038
96.86483238545874,52.64051049290248,52.847579472345046,56.2081070543781,63.27072117857415,80.03798534513996,80.80225890046952
96.97910721135389,52.39571742735129,52.80901756750107,56.1029094380207,63.248218931458815,80.00057606684229,80.81716597016481
97.09241702160439,52.182540038158685,52.76799412874228,55.99800565064637,63.23119970880298,79.97306091545951,80.83991534639124
97.20437791501534,52.000245646886015,52.72441941062351,55.8934965945919,63.219560723363976,79.9552153697415,80.87017762791626
97.31462165910898,51.84801297379976,52.67821501764399,55.78949693219712,63.213212052968835,79.94672702714097,80.90758767644165
97.42282466638262,51.724927654657996,52.62931786141148,55.68611958438526,63.21207956288544,79.94724020528972,80.95175163477715
97.52871765624104,51.6300065098001,52.57766412908709,55.58348537950111,63.21607667925814,79.9563733643498,81.0022804820836
97.63204969695794,51.5622205714394,52.52317807905187,55.481740448611944,63.225084697298556,79.97369594025808,81.0588063421822
97.73255139440185,51.52048928148883,52.465788274763284,55.38105360714665,63.23896778442636,79.99871070851795,81.12095802081394
97.82994897130683,51.50366109723152,52.40545522310127,55.28159999054725,63.25759804384708,80.03087923420117,81.18832998735387
97.92401002825046,51.51051797605957,52.342176659849486,55.183557030977084,63.28085435747669,80.0696624592059,81.26048681483091
98.01455515384366,51.539810874925905,52.27596850607806,55.08711381318651,63.308602148625376,80.11452528793208,81.33699340885015
98.10141921522002,51.59028899349144,52.20685201185379,54.992473426617664,63.34068895032876,80.16490847930483,81.4174250123246
98.1844184325514,51.660691888879406,52.13486512357453,54.8998439850007,63.37696095866659,80.2202169119384,81.50134916230766
98.26336854430448,51.74972366625959,52.06007999547362,54.80943461935944,63.41726894182086,80.27984164887852,81.58832246344932
98.33812418017176,51.856053556295564,51.982600933709996,54.721460867339374,63.46144749077416,80.34317755350195,81.67791767357224
98.40858214800119,51.97835352393172,51.9025474552523,54.63614069674836,63.50929619248661,80.40960787912368,81.7697398447363
98.47465287593555,52.11533216257385,51.82004727584813,54.55367089968222,63.56059347821167,80.4784852331125,81.86340439490027
98.53625455771041,52.26572867718258,51.735243333435726,54.47420239034182,63.615126087208246,80.54914869340293,81.95850914711076
98.59334122049756,52.42828497506471,51.648293169063784,54.39783756332005,63.67269230156345,80.62096149615668,82.05464191203639
98.64591394715373,52.60174009264327,51.5593506935612,54.32464601877333,63.73307396961545,80.69331989610748,82.15141209238648
98.69398724484326,52.78485815535576,51.46855177451784,54.25467269114291,63.79601607370608,80.76562534112126,82.24845962635534
98.73755283848273,52.976453708847004,51.376025412004736,54.187925445327,63.861240888348554,80.83726756553128,82.345433350265
98.7765921215235,53.175382360790145,51.28191693399574,54.12436106860645,63.92847363237082,80.90765104354236,82.44197931502246
98.811119710362,53.380513298854346,51.18639186563573,54.06389421774626,63.997442262060304,80.97623131871082,82.53775586057837
98.84119390419973,53.59072408661863,51.089615674625705,54.0064218708778,64.06785576914277,81.04251255393692,82.63244196889923
98.86687730273388,53.80492743624629,50.99173638722268,53.951833078866066,64.13939378498617,81.10601615838826,82.72571628995337
98.88820279954787,54.02209476774141,50.892892205328785,53.89999748884221,64.21171444166735,81.16627050442914,82.81723523374299
98.90519184462278,54.241245569721194,50.79323154249925,53.85075924446705,64.28445564421172,81.22283497210613,82.90664497785858
98.9178965017895,54.461420132315354,50.692917776828345,53.803954228425305,64.35721785486173,81.27531691145803,82.993612164315
98.92640518274392,54.68167725229479,50.59212034083076,53.759432791208475,64.42955408713519,81.32335311857445,83.07782936134983
98.93081250693136,54.901124963026625,50.49101632779087,53.71706136143296,64.50099459282148,81.36658690236231,83.15899224328132
98.93120914669868,55.11894543091679,50.38980320525934,53.6767074573069,64.57108781912115,81.40468325762706,83.23679065850416
98.92770724962901,55.33438279185651,50.28869894739476,53.63823456986041,64.63941370703319,81.43736957406196,83.31093056735793
98.92045150468265,55.54671297802259,50.18792239289499,53.601513458139,64.70556387931603,81.46444997215033,83.38115194414176
98.90958577422423,55.75523579890333,50.08767689409577,53.56642971109608,64.76913049831016,81.4857774867926,83.44721448330968
98.89521817464768,55.959297511945486,49.9881603681405,53.53287566259138,64.82973205728766,81.50122939673199,83.50887528470383
98.87743780028569,56.15830969463268,49.88959075166076,53.50074294361857,64.88704812549516,81.51072723310487,83.56589695516705
98.85636383139277,56.35173534657949,49.79221429852375,53.46993423412814,64.94082106575036,81.5142759249459,83.61807673687575
98.83215964764315,56.53905862438233,49.696289263128605,53.440382203793504,64.9908319328827,81.51196728307026,83.6652529933405
98.80499507054873,56.71977763665102,49.60207345118463,53.412048636677085,65.03688954313265,81.50394962349871,83.70728372956593
98.77501337080552,56.89343013757416,49.509838822339375,53.3849039867319,65.07884034858046,81.49041598849209,83.74403907464516
98.7423496122014,57.059617026463016,49.41989596296818,53.35891324985697,65.11656909344674,81.47162556573795,83.77542356000168
98.70717079990978,57.217991916721964,49.33259444246646,53.33403807928568,65.14997579792745,81.4479123454819,83.80139060917755
98.66967946084638,57.36823196650174,49.24829814481901,53.31023723490415,65.17895711083354,81.41965266285244,83.82192221265855
98.63008443156649,57.510029264167834,49.16736400488289,53.28745403063426,65.2034209440931,81.38722786796822,83.83700340707375
98.58859385158074,57.64311335611881,49.09013540033498,53.26560844079131,65.2233163561918,81.35102766055269,83.84663506730747
98.54544182371501,57.767271959680414,49.01693422109823,53.24461185584251,65.2386368627262,81.31148043217493,83.85087446821339
98.50089912476102,57.88233986319639,48.94804145395939,53.22438910323194,65.24939343238188,81.26905699406748,83.84985020804994
98.45524237109665,57.98817177477371,48.88368082206172,53.2048793245733,65.25559786481232,81.22423499672979,83.84373907862023
98.40872311681173,58.08463855564238,48.82402326334236,53.186016728180256,65.25728200986703,81.17747533415248,83.83275284545127
98.36158159253648,58.17165572594085,48.76920404921267,53.167720719244244,65.2545247525831,81.12925003094938,83.81715969884989
98.31408363202253,58.249207976370535,48.71932720159914,53.14991201493585,65.24744865982564,81.0800856172947,83.7973006499269
98.26652451945654,58.317337698732395,48.674452454809995,53.13253370313284,65.23619458797674,81.03056265049885,83.773565954436
98.21919733833633,58.37611283167928,48.63459193651051,53.11554981143584,65.2209087877442,80.98127734554144,83.74635971294231
98.17237960645662,58.425615467912266,48.599737082482655,53.09893026520571,65.20174733287239,80.93282111617769,83.71609860471916
98.12635564925797,58.46596519028713,48.569893378018236,53.082650854483816,65.17887063634927,80.88579483819035,83.68323576033669
98.08142656783843,58.49734294665422,48.545087002846145,53.06670923182286,65.15241711245318,80.84081447339076,83.64826134941096
98.03787820317511,58.51998102954866,48.52534582930233,53.05113012860304,65.12248359835608,80.79847769337314,83.61167272833677
97.99594924282425,58.534133368448316,48.510684595592636,53.03594770826743,65.08913929941075,80.75932160621939,83.57395964319947
97.95584742889083,58.54006721303935,48.501103372679516,53.02118689342376,65.0524559056537,80.72381490118028,83.53562308502104
97.91778958889087,58.538087829873824,48.49658149057179,53.00686923919131,65.01251408620458,80.6923777319372,83.49718698979237
97.88200527879137,58.52856067939573,48.49705922833166,52.99303440115112,64.96938124223445,80.66538520156914,83.45917054755749
97.84870225134341,58.51189993153561,48.50242992265329,52.9797441436819,64.92309802832396,80.64314051771551,83.42204888214576
97.81804891486371,58.488544541819856,48.5125643217517,52.967059956377035,64.87369964091839,80.62585764675124,83.38624855862878
97.79019279660058,58.458960296521006,48.527348385947114,52.95502240884937,64.82124655719663,80.61368811821885,83.35217473819826
97.76526949569319,58.42366242413714,48.546694819871306,52.943654378324695,64.76582653702724,80.6067643467631,83.32022266397219
97.7433723217189,58.38321864247681,48.570521969127704,52.93297167231389,64.70753581453864,80.60520612690819,83.29075936385831
97.7245219768264,58.338220814162334,48.59873312297766,52.922976493427534,64.64647652384457,80.60909033302578,83.26411468760799
97.70868413171077,58.289260547645874,48.63122252432639,52.91364488605559,64.58277512323708,80.61843408481312,83.24059922931953
97.6958129679422,58.23693631556069,48.66789414260949,52.90493591941861,64.51658889888769,80.6332120028665,83.22051341883919
97.68586059323945,58.18186989050145,48.70866290278397,52.89681778437437,64.44808472058023,80.65336948050772,83.20412095341685
97.67874815597983,58.124696066288884,48.75343939910622,52.88927838366078,64.37741744815233,80.67880028637775,83.1916143454465
97.6743532263836,58.06603072610823,48.802126316068964,52.88230992789911,64.30473660166815,80.70931325432117,83.18311681777217
97.6725346854042,58.00645673160903,48.85463327325331,52.87589600725631,64.23020704262233,80.74462988289993,83.17871456933504
97.67314990045018,57.94654397380659,48.91088436851122,52.87002772295572,64.15400780465278,80.78440987796702,83.17846942479628
97.67603092792083,57.88686985941026,48.970802423128575,52.86473213292643,64.07630565028786,80.8282620335264,83.18239767681588
97.68095684397225,57.828006049548556,49.03428871319129,52.86007567834147,63.99723880582761,80.8757244827029,83.19045614678983
97.68767315166771,57.770486543169845,49.10122309353819,52.85613910052996,63.91693354763785,80.92625505509848,83.20255597132116
97.69594063612725,57.7147972675391,49.17147848518171,52.85299821900596,63.835528491884155,80.9792687367842,83.21857134220785
97.70555146356179,57.66139697090338,49.24492233608277,52.850734742732016,63.753170742781585,81.03419252329432,83.23831911318834
97.71630212854312,57.61073608525085,49.321397691416216,52.849457983084875,63.669989944570546,81.0904817846477,83.26153997464509
97.7279751249943,57.5632459704176,49.400708300143556,52.84930444721797,63.586086861781105,81.14759882950841,83.28792302522535
97.740353263849,57.519317582360046,49.482629529839315,52.85041894595596,63.50154974836282,81.20500216900199,83.31715820579899
97.7532276287365,57.47930399693754,49.566931385855796,52.85294746825861,63.41646996445996,81.26216449208248,83.3489597794617
97.76637123492742,57.443542783181364,49.65338380284487,52.85704640821445,63.330929623036816,81.3185847898642,83.38304842086607
97.77951552460736,57.412361145917465,49.74174400014284,52.86288140046293,63.2449739524484,81.37377139017352,83.41913991734093
97.79237513249824,57.38605134549601,49.83175218983676,52.87060468635414,63.15860177188052,81.42723040075265,83.45696668767104
97.80469714166388,57.36485075144967,49.92314327462744,52.88033662549617,63.07178450500009,81.47849642312939,83.49629577278094
97.81627256622757,57.348955317217055,50.0156531278597,52.892174907342145,62.984487597889114,81.52717553923543,83.53690908206003
97.82690485522684,57.33854360454017,50.1090054621368,52.906215256056264,62.89666929518641,81.57294699391609,83.5785721371722
97.83639180008973,57.3337732603283,50.202896248947006,52.922551632330546,62.80827193548547,81.61553080723479,83.62103814231058
97.84454524822411,57.33475590284853,50.29700014953728,52.94125428409251,62.71923533489307,81.65467469617029,83.66408150704255
97.85120530390007,57.34155007350362,50.39099415156149,52.962352742000355,62.629524303644224,81.69017632457044,83.70751120329537
97.85621645863715,57.35418548468607,50.48456938649271,52.985841605471606,62.53913455551395,81.72189752870301,83.75115020748237
97.85940259501973,57.372684783683106,50.577420230312356,53.011695520156564,62.44807015391013,81.74974095415861,83.79482092465857
97.86058675743199,57.3970536656654,50.66923429289019,53.039869481974065,62.356328987688585,81.77362604376599,83.83835836674393
97.85963167613313,57.4272587508832,50.75970607190898,53.07028880856153,62.263924572033005,81.79350957836932,83.88162015425901
97.85644340467617,57.46322853382136,50.8485604735274,53.10285227843172,62.17092016067056,81.8094279530284,83.92446408841677
97.85093703609887,57.50487467110477,50.93555565296637,53.13744653167624,62.07743325195479,81.82150301432814,83.96671645528399
97.84301715832021,57.55209864205331,51.02046389671636,53.173946409554745,61.98361416535757,81.8299074042933,84.00817669158964
97.83259466234898,57.604770800827005,51.10305780054163,53.212196117708366,61.889637772849575,81.83484614798311,84.04865573608801
97.81959961659854,57.66271248796681,51.18311524071286,53.25199826477613,61.79571825863672,81.83658643132168,84.08799583299107
97.8039579315708,57.725709711249635,51.26042606302022,53.2931343457024,61.70211446992492,81.83549224949486,84.12605194357874
97.7855658423519,57.793539932931395,51.334783810753535,53.33540066520331,61.60910604873643,81.8320109883744,84.16267626440069
97.76431007327493,57.865973759952766,51.40597514613219,53.378620879010775,61.51696533483538,81.82662971217025,84.19773372069596
97.74011329261286,57.94275113150044,51.47378749500859,53.422626077482796,61.42595650132502,81.81985617858393,84.2311176815497
97.71294385942956,58.02357032689096,51.53802575045982,53.46723472736245,61.33635259306475,81.81223020956458,84.26273414851106
97.68278484166906,58.10810961417736,51.598511292058596,53.512260355200134,61.24843463250226,81.80431950814877,84.29247700763227
97.64961703788835,58.19605122052589,51.6550618489501,53.55753240373464,61.16246512437702,81.79668087946507,84.32023475661498
97.61343796360865,58.28707456057302,51.707480878056,53.602897540392775,61.07867147230196,81.7898304517961,84.34592023450831
97.5742736904472,58.38083534383697,51.75557509167095,53.64820091878498,60.99726731350359,81.78426619202709,84.36947674317632
97.53215226388905,58.476968358004385,51.799180570998026,53.69327633137891,60.918486682921056,81.78051535906735,84.39084974232573
97.48707602376088,58.57511253573392,51.838166970985625,53.73795572512477,60.842586850357144,81.77914238386185,84.40996601888595
97.4390421462621,58.674920468185014,51.87242279660659,53.7820756785788,60.769821038044306,81.78070705950589,84.42674723725548
97.38809093754476,58.776038137162914,51.901850118743184,53.8254655864233,60.700421555670744,81.78572825688266,84.44112884438576
97.33431914522478,58.878087260460894,51.92637601345363,53.86793901175307,60.634611780742766,81.79469153131873,84.45304902306779
97.27785115615328,58.980678146264495,51.94595725485836,53.9093123017412,60.572620073706375,81.80806954715722,84.46242639902032
97.2188236837547,59.08343262323877,51.96056504576629,53.94943226178884,60.514669016971894,81.8263095458261,84.46917203848975
97.15740797649974,59.18598094748957,51.970170912661835,53.988177131134655,60.46095715734732,81.84980240904038,84.47323084749077
97.09382497983123,59.2879368616913,51.974756953290516,54.025431801903586,60.411665967651416,81.87888155956888,84.47459840670038
97.02831854682447,59.388890230500905,51.9743380491426,54.06107264814654,60.366984967150316,81.91385209309976,84.47329453176896
96.96112274622602,59.48843354961388,51.96896498575859,54.094983088107995,60.32711680835033,81.95500048679939,84.46933675584295
96.89247420912925,59.58618856470554,51.95870418543812,54.12707878377047,60.29225331077559,82.00256406161367,84.46274941931992
96.82265151714735,59.681800680214,51.94362360808499,54.1573094963616,60.26256029518132,82.05670351862675,84.45358608006795
96.75198012705171,59.774920710672866,51.92380775835974,54.185640336765296,60.23820020510417,82.1175222669372,84.4419247316527
96.68079453770589,59.86521250879575,51.89938451426788,54.21204278249706,60.21936497967272,82.18510820858793,84.42784400394694
96.60941183521373,59.95238279080826,51.87053061557898,54.236504243006074,60.206274831561494,82.25953991333687,84.41142541561216
96.538143021103,60.03619236774198,51.83745470870043,54.259032135958954,60.199148367712056,82.34085293433085,84.39278644718036
96.46730274954547,60.11643408968978,51.80038304946552,54.27963714981627,60.198185446730164,82.42902107548838,84.37209630260796
96.39718373876555,60.19291215325135,51.75955613326399,54.29831674010114,60.20357495635872,82.5239831488322,84.34955012912516
96.32802868047162,60.26545185627886,51.71522074618604,54.31506619836573,60.21549774639322,82.62567608779547,84.32533873168542
96.26004870414036,60.333918444480716,51.667609071091356,54.32990633972679,60.234104980382,82.73402758057499,84.2996542684723
96.19346936983881,60.39820889631278,51.6169207456212,54.34289038825855,60.2594948418357,82.84892488119358,84.27271612699765
96.12854074709959,60.458221612087854,51.563326495692586,54.354080869792206,60.291717465490976,82.97020728607123,84.24477175356446
96.06550307959053,60.513843409423735,51.50698446400205,54.363528828015994,60.3307971723083,83.097683796962,84.21607252254256
96.00456365428839,60.5649705208825,51.44804252221935,54.37128252672045,60.37673501627091,83.2311339718324,84.18686850105192
95.94591154276344,60.611531105851924,51.386621397793746,54.37741031303863,60.42948441360756,83.37027681012628,84.15742927338626
95.88972956153697,60.65347635248603,51.322804808799624,54.38200428303189,60.48893574881338,83.51474653855243,84.12804650780701
95.83616963992174,60.690755835166826,51.25665691845174,54.38516263789862,60.554937480086444,83.66411124823954,84.09899677554561
95.78532613825583,60.72331350031181,51.18824947175042,54.386978509550936,60.62732964157004,83.81790973902343,84.0705006282821
95.73725702543973,60.751105577438146,51.11766791155481,54.38754712676024,60.70594964895607,83.97565469513016,84.04272204642959
95.69203374639987,60.77410654630851,51.04499764291479,54.38697157173066,60.79061567538038,84.1368013408972,84.01580008307432
95.64975551836172,60.79228858904298,50.970318570090804,54.3853515713694,60.88112453029615,84.30073513685103,83.98986224410386
95.6105171174008,60.80560468790807,50.893721103083394,54.38277272308875,60.977270370673715,84.46680998350453,83.96500215925883
95.57438517318126,60.814003993073705,50.81532422149969,54.37931901902808,61.078851659458664,84.63439885954504,83.94126076195207
95.54141312326593,60.81746066860244,50.73527306560389,54.37509522132631,61.18564946088945,84.80290321504894,83.91863766077158
95.51165619004438,60.81597719289697,50.65372551506314,54.37022639329031,61.297404824330485,84.97173232235484,83.89710479207146
95.48514942273017,60.8095613138199,50.57085274064929,54.36483295167015,61.41382647124167,85.1403087120789,83.87659153922213
95.461879565144,60.798215755033546,50.486851261459535,54.35901258670498,61.53461594225577,85.30810847474567,83.85696312897252
95.44180089601548,60.78195990577588,50.401941129290535,54.3528469464506,61.659472179022536,85.47468242054839,83.83803555781995
95.42487871414997,60.760851351802884,50.316343993955826,54.34641340013742,61.78806856379868,85.63962896417479,83.81961944203198
95.41109868780396,60.734972877110124,50.23026516735234,54.33977894610354,61.920038120078246,85.80256204326734,83.80153999895236
95.40043272774868,60.70439853545155,50.1439010734906,54.3329898192556,62.054995878269864,85.96312198563679,83.78361742255396
95.39281575895554,60.66917953753349,50.057459700942644,54.326083106193906,62.19257644556823,86.12100849185047,83.76565049676906
95.38816067366217,60.62936377774867,49.97116434128793,54.3191108384982,62.33244296443676,86.27598107727295,83.74743187100147
95.38637252727979,60.58501729030094,49.885235203756466,54.31214431004713,62.474265641314425,86.42782261427838,83.72876671650405
95.3873281723528,60.53621493336918,49.79987252091229,54.30525471125434,62.617707100745136,86.57631360498779,83.70946064219952
95.39085367224628,60.48301248409372,49.7152604073131,54.298499687165226,62.762428888750925,86.7212409983059,83.68929412237583
95.39674774104967,60.42544009189144,49.631581772351765,54.29193690910102,62.908091989132394,86.86240837964601,83.66802647860496
95.40483193229018,60.363531038139136,49.549021404955404,54.28564793692037,63.054333784245706,86.9996166398676,83.6454286771792
95.41496380313139,60.29735144587447,49.46775893360958,54.279740648135764,63.20074763699887,87.13264365719479,83.62129844392075
95.42700240568345,60.22699662801946,49.387973407493554,54.27432963329963,63.3468954987312,87.26126634604094,83.59543778565165
95.44078354900897,60.1525709372368,49.309857674568455,54.26952277277104,63.492337954270525,87.38530552378147,83.5676311046166
95.45614289534075,60.074190099444266,49.233617190682494,54.265424335313604,63.63664089184466,87.50463563144066,83.53766509442315
95.47295115057005,59.99200630263852,49.1594490841149,54.26213404311535,63.779353113644305,87.61915160991875,83.50537344513552
95.49110959609652,59.90621792759796,49.08753092943425,54.2597283820359,63.919993701785465,87.72874579066522,83.47065384315468
95.51052021163298,59.81704716029243,49.0180425604786,54.258243212842984,64.05807794422604,87.8333297927586,83.43345224680805
95.5310868990804,59.72471775199229,48.95120063080396,54.2576825681687,64.19315709590907,87.93286823904565,83.39376372991823
95.5527516715326,59.62946563810831,48.887265950640284,54.25804395537281,64.32482782060434,88.02737422106925,83.35166396314051
95.57550738536696,59.53156559913527,48.826519887305196,54.25932676787027,64.45271168416036,88.1168760191602,83.30732483899874
95.59935924047068,59.431333258755814,48.769243248095314,54.26151566088516,64.57644224142267,88.20140520969956,83.26099091288012
95.62428318694002,59.32909996150604,48.71571704424815,54.26456980006599,64.69567358149772,88.28101448305237,83.21295465597822
95.65023699741698,59.22520018408975,48.66622727574692,54.26844378707178,64.81008497683392,88.35578079070163,83.16356008248819
95.67720669101399,59.11999090271449,48.6210524534839,54.273120121002165,64.91936304189691,88.42577302554531,83.1132077385918
95.70522151961653,59.013869984589384,48.58044483244766,54.278615402429416,65.02318184267472,88.4910247847515,83.06232720472975
95.73432078492662,58.90726117812854,48.544628114713255,54.28496144099868,65.12121082413289,88.55155200928512,83.01133531017592
95.76452673229056,58.800584929326924,48.51380594451304,54.29219408609373,65.21314220519926,88.60738989384436,82.96062620696986
95.7958566089221,58.69425400931061,48.488156735066354,54.30036059925377,65.29870019362473,88.65859448991439,82.9105952066493
95.82833533862696,58.58869351646793,48.467810550320486,54.309522789827945,65.37762313658156,88.70520746371561,82.86164776269618
95.86197016045395,58.484347351036554,48.452832512621704,54.31974091826687,65.44965544449855,88.74723475237958,82.81417205018212
95.89671812123964,58.38165441056811,48.443234908034235,54.33105721781238,65.51457417141533,88.7846633812091,82.76851427756966
95.9324998095204,58.28102553065385,48.43900455876834,54.343501750529356,65.57222009498206,88.81748017994782,82.72499026778635
95.96924709764149,58.18285218340898,48.44011254433166,54.35710881441153,65.62249354773608,88.84565788160482,82.6839077671023
96.00692064841385,58.08753010781214,48.44650259128764,54.37191485975286,65.6653250240562,88.86913436699807,82.6455567681076
96.0454783126091,57.99545894365599,48.458084625795045,54.38793769622254,65.70065927494444,88.88782760869559,82.61017377775183
96.08484747266711,57.90701563543294,48.47474392572761,54.40516979037929,65.72846205755246,88.90167165520968,82.5779232772869
96.12494377372757,57.82254021217213,48.49634662456001,54.42360526894365,65.74872236167614,88.91062202538825,82.54890958670951
96.1657055942919,57.742354682164176,48.52272808740439,54.44327336288949,65.7614334284491,88.91462371142731,82.523184558559
96.20709023345078,57.66678384301399,48.55368028067551,54.46423951368451,65.76657453845235,88.91359433510549,82.50072607033027
96.24903972076166,57.596143423108586,48.58896039191921,54.48657894495133,65.76412030591702,88.90745668762253,82.48141197161596
96.29147146757377,57.53071097555912,48.6283139726735,54.51036192725172,65.75406495409787,88.89618161096536,82.46502744947763
96.33430441057264,57.47071925022546,48.671483820354304,54.53567050534963,65.73642615112844,88.87978747248948,82.45129923445282
96.37747006736345,57.41637645343528,48.71819462324895,54.56262230705534,65.71122355180064,88.85830851072264,82.43991340652144
96.42088089002254,57.36787710303309,48.768137894840685,54.59136947338654,65.67846862449736,88.83178475797222,82.4305053443719
96.46439834149646,57.32538349678995,48.820983043040385,54.62208159096323,65.63819230581794,88.80028395760878,82.42265927147999
96.50785118974912,57.289006297286896,48.87640378212713,54.65494237577605,65.59048392224705,88.76391235119736,82.41593804561523
96.55108461234103,57.25881565113624,48.93408749653891,54.69015612320323,65.53549780224725,88.72278948414026,82.40991182209676
96.59397548334856,57.23486704471732,48.99372158865133,54.72793585692677,65.47343035358053,88.67702399982052,82.40415308007982
96.63639891784169,57.21720326791383,49.05498336445159,54.768470918522354,65.40450710375869,88.62673467313363,82.3982175704916
96.67820072302987,57.20582981662326,49.117552365909184,54.811903691217545,65.32899376658649,88.57209537869592,82.39165489493722
96.71921729671946,57.20070158337888,49.18113065654917,54.85833873776632,65.24720270800198,88.51334308724151,82.38404634648784
96.7593122467236,57.20174219520038,49.245445803677555,54.907868648840974,65.15947260878254,88.45074099044544,82.37502247624863
96.79837657094635,57.208866667388115,49.31023967004227,54.960580585688476,65.06614160730696,88.38455855631534,82.36424386664707
96.83629961668674,57.221973475236474,49.37526666524998,55.01653842480557,64.96754496627214,88.31510783300844,82.35138442208617
96.87296369031166,57.24092062953776,49.44030285691664,55.07576929215133,64.86403102642728,88.24278907048826,82.33614692586555
96.90827161013002,57.265523418627446,49.50514346381145,55.13826735830231,64.75596172368482,88.168083322869,82.31828513871888
96.94215718198278,57.29557601206121,49.569582917485285,55.20399422626309,64.6436901884317,88.09150857836079,82.29759614564553
96.97455188205399,57.33086185737298,49.633403536765776,55.27286046318181,64.5275500918599,88.01360369951793,82.27389989507246
97.00535011390696,57.371135949919726,49.696394600838204,55.34470661982667,64.40788279477765,87.93495302913945,82.24705384336313
97.03442351077462,57.41610697660772,49.75838221503289,55.41931078440323,64.28507561274411,87.85619818472983,82.21700122374916
97.06166623489607,57.46544992012604,49.8192337116152,55.49641664619647,64.15956711626295,87.77800796625856,82.18379801399043
97.08700802607312,57.518836165906656,49.878835739060044,55.57574806141487,64.03182130145211,87.7010534097839,82.14759822406555
97.11037995686814,57.575942715665896,49.93707792327664,55.65699802879092,63.9023106132311,87.62603279454648,82.10864051171015
97.13168782787413,57.636433092978,49.99386099719617,55.739822337549484,63.771523928368616,87.55371009884884,82.06726159777935
97.15083643163179,57.699945160812845,50.04911310334279,55.823866430390744,63.63997185052325,87.48490529491282,82.02390113953359
97.16777296816184,57.76610974307018,50.102788760619624,55.9088060522564,63.50816625724951,87.42044514797641,81.97906652606142
97.1824916664012,57.83457417233147,50.15485435449025,55.99435968609025,63.376593799679085,87.36113270361683,81.93328323969175
97.19500472128078,57.90499735209478,50.20528548326701,56.08026877390689,63.245714321473436,87.30775151012939,81.88707489546924
97.20533564869831,57.97702992045474,50.25407875549705,56.16627838455998,63.115977077983985,87.26106290340815,81.84097108616434
97.21354714586735,58.050316066479205,50.30125267826342,56.25213470780045,62.98782018633353,87.22177411804476,81.79550147479993
97.21975311601419,58.12451692829958,50.34682552928874,56.33758266528736,62.861645702917166,87.19051770376657,81.75116968124263
97.22408893771598,58.1993196403347,50.39078973659504,56.42234892233573,62.73780451770745,87.16787834632021,81.70845622571898
97.22668268236265,58.27441757419141,50.433105691903926,56.50612537262633,62.616615826959865,87.15443056696175,81.66786732642318
97.22767012485913,58.34949247481722,50.47370981372089,56.58857609750662,62.49839527055594,87.15073194966169,81.62996956165817
97.22722720428288,58.42422813156193,50.5125134175019,56.669359341448605,62.38345267168908,87.15728478973938,81.59536842678392
97.22556479277279,58.49833844812408,50.54939021436977,56.74813335183894,62.272065544996586,87.17452169099083,81.56467458157374
97.22289018459298,58.571570598857654,50.58417646025251,56.82453976102999,62.164469196108286,87.2028236010924,81.53851286624439
97.219391519021,58.64368060078734,50.61669257332332,56.89819469414234,62.06087992503097,87.2425224741483,81.51755612548537
97.21526002400168,58.71441997802226,50.6467624175591,56.96871074985575,61.96152033447591,87.29386430545364,81.50252633594616
97.21070115960156,58.78355528383402,50.67421098623208,57.035729859375735,61.866614614999534,87.35697373270634,81.49415459586558
97.20590683975844,58.85089079793565,50.698857367465386,57.09893260937132,61.77636819820108,87.43186696117313,81.4931443569482
97.2010299672653,58.91625926761389,50.72052944691505,57.15802816498935,61.69096575140014,87.5184937120479,81.50016245654226
97.19620398435387,58.97949348470379,50.73909175075354,57.21275735531143,61.610585268504515,87.61674856881878,81.5158355437345
97.19158014105298,59.040415905420936,50.75445437751935,57.262914136590815,61.535395803382315,87.72643947582193,81.54072188533584
97.18732682210474,59.09885091628822,50.76655695457461,57.30835563202729,61.465530527182864,87.8472672769102,81.57526296101882
97.18359627563164,59.15462843342644,50.7753541310963,57.34898406714816,61.40106750555636,87.97885765764484,81.61975378653673
97.18051502276145,59.20756345212324,50.78082057469921,57.38472202669221,61.34204383765743,88.12081167776742,81.67435856676116
97.17821165071177,59.257437888147145,50.782960811678976,57.415508137330676,61.28848123813938,88.27271497252725,81.73914613299414
97.17683210364899,59.30401268135976,50.78180264593217,57.441307048651396,61.2403854536705,88.43410835240624,81.81410186667539
97.17651320660731,59.347056290686716,50.77738160369679,57.462106382018604,61.19772259324081,88.60447297134388,81.89912098303866
97.17735520637456,59.386352625862344,50.76973917099812,57.477895230642794,61.16041146508879,88.7832465446999,81.99402065694383
97.17943937953538,59.42168230794375,50.75893366515243,57.48864897501067,61.12835000676874,88.96983219629878,82.09856820324943
97.18286668420185,59.45281148405798,50.745040764604255,57.494339441343065,61.10144444871782,89.16357899497966,82.21248414742479
97.1877602108856,59.47950991026857,50.72813596187784,57.49495582121919,61.079606743313896,89.36377054680129,82.33540843343059
97.19423233425015,59.50157216395054,50.708279500073075,57.49050772414449,61.06273520601966,89.56965375857105,82.4668595933941
97.2023698104094,59.518810290437,50.68552324899299,57.48100884011684,61.05071484503041,89.78047502790791,82.60621369528617
97.21225194538441,59.53103084534163,50.65992779009909,57.46646781130215,61.043435525437985,89.99547761376489,82.7527017513293
97.22395780098857,59.53803211876043,50.63156409978396,57.44689977711332,61.04079390252977,90.21387850925385,82.9054071360949
97.23753847188274,59.539625885136495,50.600499239021275,57.4223390124882,61.042669618397746,90.43487372845337,83.06326339649084
97.25299508894408,59.535650620436705,50.56678711943246,57.392831910829095,61.04890801607098,90.6576678222229,83.22508132329256
97.27030390108456,59.52595747029819,50.53047266089856,57.3584228409458,61.05933559294158,90.88147988889696,83.38960961119173
97.28946026335163,59.51039575283134,50.49159530836605,57.31915921585807,61.073786756865125,91.10551123202004,83.55558378695305
97.31048337030266,59.488829484464745,50.45018019495968,57.275111738949086,61.09210358761276,91.32891484372304,83.72172888492423
97.33338397131931,59.46117079529776,50.406230364006994,57.22637984688535,61.11411126991842,91.55080559271825,83.88673698693299
97.35815186825492,59.42738912399649,50.359740999412566,57.173072762317695,61.139608247233845,91.77029337549213,84.04925750534485
97.38478078030941,59.387489327649284,50.310726360570754,57.11529141119829,61.16838849534892,91.98649033350092,84.20790288712351
97.41328223805625,59.34149726823416,50.25922842703627,57.05313262909427,61.2002662004765,92.19848585594723,84.36124701070669
97.44365750136758,59.28947786040308,50.20530068733768,56.98670092697894,61.235070808684966,92.4053377716509,84.50781694888242
97.47586727667296,59.231557720640495,50.14899439146386,56.91610251975027,61.2726246076863,92.606111772444,84.64610868800368
97.5098467870324,59.16791644582051,50.09037034204952,56.84142809942796,61.31273462401776,92.79993217903268,84.77463507568666
97.5455444789604,59.098758073285175,50.02952358558948,56.76275111312741,61.35519853689323,92.9859890537842,84.89196826205742
97.58292652165922,59.02430204094784,49.96659188723449,56.68014442744817,61.399797309369745,93.16351034520846,84.99674535286897
97.62194517225686,58.944801162152736,49.90174670736194,56.59369004174206,61.44626902151353,93.33175539862557,85.08765706714017
97.66252493533786,58.86055163632681,49.83518923654313,56.50346846247027,61.49429496356139,93.49004564727497,85.16345278558876
97.70458423194307,58.77187331544265,49.76715464884196,56.40954859185134,61.54352231604527,93.63778648508067,85.222955771995
97.74804600802403,58.679087132161634,49.697905072825904,56.31200313360876,61.5936006277591,93.77445347484053,85.26505974251724
97.79280840245328,58.58252268262379,49.627706540999256,56.21093912338076,61.64419087554637,93.8995805140954,85.2887037664764
97.83871681419582,58.482543083746414,49.55681437996195,56.10650989274192,61.69494657574077,94.0127788739831,85.29285390661992
97.88558477789694,58.37954715607828,49.48548781308393,55.99889929546894,61.74550452973715,94.11375138763992,85.276515218802
97.93323930939624,58.273942183481196,49.41401566936066,55.88830547007993,61.79550379793696,94.20226756415283,85.23876020511655
97.98152990250149,58.16612493527793,49.34271883991985,55.77494682554954,61.84460734852369,94.27813265775806,85.17873849350508
98.03029915787396,58.05649683671999,49.271928252816004,55.65907560154861,61.89249841907767,94.34119862777817,85.09566517424444
98.07937082897833,57.945487896358024,49.20196828020472,55.54097200955235,61.93886726439969,94.3913994384666,84.98882967086773
98.12857424900612,57.833552785765185,49.133162058213316,55.420922051199824,61.983424139718096,94.42875285795063,84.85764891736171
98.17775848570183,57.7211477386936,49.06584117896082,55.29920730302077,62.025934259928356,94.45331951215087,84.70172653186442
98.22676522755597,57.60872657043712,49.0003373666818,55.17611885429592,62.06623211475089,94.46517363913635,84.52087734105247
98.27539989935215,57.49676236810421,48.93696445959305,55.05197281464573,62.1042002054288,94.46442532457256,84.31513475259901
98.32345062535971,57.385758024149034,48.87601717195497,54.92710242057898,62.139750214680426,94.45126035384432,84.0847639364345
98.37073387646143,57.27622373567997,48.81778871979027,54.801837517460015,62.172839497178984,94.42594031370504,83.83025800831228
98.41710460738946,57.16864944180234,48.7625799582347,54.67649886704058,62.203499128052854,94.3887693581933,83.55229701325582
98.46242488367055,57.06350583817394,48.71068570398536,54.5514061402164,62.23182978643247,94.34008304366685,83.25169575297619
98.50654589381708,56.96126273569129,48.66237973168901,54.426874589025125,62.25796678545965,94.28027184427795,82.92938131535229
98.54932531836175,56.862387789792834,48.617921704232096,54.303193464831296,62.28205651505581,94.20979065303236,82.58640578975182
98.59063669532021,56.767319605908746,48.5775741621713,54.18061065433742,62.3042683197975,94.12912587165773,82.22395724980069
98.63034094808891,56.67644993594651,48.54160141127075,54.05934638528895,62.32481582701987,94.03876024493087,81.8433390262967
98.66825937930322,56.590137736222,48.51024904064533,53.93962095117673,62.343952250188046,93.93918479624423,81.44593900776485
98.70419671764971,56.508729904300175,48.48373088417108,53.82166196475899,62.36194908836739,93.8309408376133,81.03322870463599
98.73799094980784,56.43255487505812,48.462239500840624,53.70568798967957,62.379092081062716,93.71463074102238,80.60678254613572
98.76952669664364,56.361898383480714,48.44596254007056,53.59189579281608,62.39569331831413,93.59088155377094,80.16827134583816
98.79870691595104,56.2969966779148,48.43507992214628,53.48046148717056,62.412086497747154,93.46031567574617,79.7194243505139
98.82543792356394,56.23805320298284,48.42974933593806,53.37153703279873,62.42859656774531,93.32357477396373,79.26200585989353
98.84964869748895,56.18524668147538,48.430108463322526,53.2652304459624,62.44551824724428,93.1813659537904,78.79783043900693
98.87130097614536,56.13871201715697,48.43629434196521,53.16158610749672,62.46313373071326,93.03446655576543,78.3287828248131
98.89036131464755,56.09852038038435,48.44844942038258,53.060588582776326,62.48174743180843,92.8836828155549,77.85680636406371
98.90677400120296,56.0646907184407,48.466701875710356,52.9621872472602,62.50169106124083,92.7298143260654,77.38387381773735
98.92048107326859,56.037221067753315,48.49114545644228,52.86631204015665,62.52329556282445,92.57365037763047,76.91197774836087
98.93146606573937,56.016099205977895,48.521842879652084,52.772865341156006,62.54687182121531,92.41596664211036,76.44314209173196
98.93976120775666,56.00128313228054,48.55883961678965,52.68171443829464,62.572722972780724,92.25749592587191,75.97941576175644
98.94541391883725,55.992687625881885,48.60216007018255,52.59271037101983,62.60116007984398,92.09890388775831,75.52283331743823
98.94846669690256,55.990203391824004,48.65178648988254,52.50571755592917,62.632489114201384,91.94080610487117,75.07537983531877
98.94897239311193,55.99372366584348,48.70764750880932,52.42062094307923,62.66698341635457,91.78379951517488,74.63898200415302
98.94700248089707,56.00314028679774,48.769632114514955,52.33731116970326,62.70487527372758,91.62845737865823,74.21549503563247
98.942618310462,56.018316280949236,48.83761198795624,52.255679633697575,62.746364909183605,91.47529659164228,73.80666202584592
98.93584408880156,56.039074861483115,48.911446060446515,52.175637180870446,62.7916157943857,91.32477273948027,73.414076240266
98.92668943681363,56.0652180387157,48.990972117918645,52.097131402780576,62.84072904125583,91.17731537722479,73.03919094051973
98.91519725850904,56.096542828458766,49.07600993787218,52.02013808728467,62.8937300737218,91.03335084453028,72.68336587422621
98.90145276116844,56.132826797375216,49.166374479976305,51.94463927963054,62.95059284385754,90.89327753167413,72.34788968209538
98.88554716479912,56.17380010985447,49.261874720514605,51.87061557357374,63.01127589543742,90.75742865367872,72.03395193913892
98.86755218296655,56.21914272034685,49.36229322579509,51.79805407933834,63.07572739911728,90.62606846091572,71.7426069893504
98.8475323307734,56.26851316351289,49.4673720672,51.72694859607481,63.14386072869352,90.49941018009036,71.47478162721477
98.82555567418524,56.3215719213922,49.57682614274368,51.65728366784359,63.21554207405823,90.37761188900325,71.23132147749787
98.80166968071224,56.37797072021037,49.69036688596565,51.58902825264345,63.2906119746069,90.26074625634314,71.01301901903213
98.77587571426042,56.43732791129306,49.80770358464387,51.52215942685805,63.368913062160736,90.14878883914872,70.82060352500964
98.74814976403945,56.499232105671254,49.92852249308628,51.45669161864728,63.450288401672054,90.04165202018896,70.65474234974135
98.71848864608477,56.56328156784984,50.052474223365124,51.39267499898095,63.53455979880836,89.93922871161267,70.51607393235231
98.68691983330628,56.629117163994444,50.179185766436134,51.33016693199527,63.621521174180046,89.84139467447267,70.40522099780678
98.65346853854024,56.69641436912459,50.308279577161784,51.269210773202616,63.71094993847228,89.74797677788764,70.32275132770086
98.61813815311386,56.76485443667261,50.43937671493373,51.20984163039525,63.80260580990584,89.65874024773764,70.26912353801407
98.58093038332164,56.83411468605288,50.5720919409573,51.1521023889832,63.89620657857333,89.57341282939136,70.24466458277614
98.5418622320361,56.90388243327782,50.706044016895,51.09604439810237,63.99141302944432,89.49170349847365,70.24957352605595
98.5009438132295,56.97386103256815,50.840875660832374,51.04172102774996,64.0878521392928,89.41328528868381,70.28391200951756
98.45815290221432,57.043750149080815,50.97625543221761,50.989200014310434,64.18515638646485,89.3377780287897,70.34756859997324
98.41345807174693,57.113225273492404,51.11185616093029,50.93858669718037,64.28297450006116,89.26477862318816,70.44022862767237
98.36686997016662,57.181948427985745,51.24733601953907,50.89002562891543,64.38095166910526,89.1939200112451,70.561379854063
98.31845558298369,57.24959969462744,51.38234391540397,50.843677284440695,64.47872039600894,89.12489572947472,70.71033950896786
98.2683073506678,57.31588875371853,51.51653626541367,50.7997042134753,64.57592377965298,89.0574345225677,70.88626680558228
98.21652402091883,57.38053458990272,51.64957677863797,50.758291662541474,64.67224129513347,88.99127982689502,71.08816519475913
98.16322969708384,57.443248555853984,51.781117919529194,50.71968089182532,64.76738174341857,88.92621825442798,71.31491145374508
98.10858781307158,57.50375014315817,51.91079187710427,50.684174142587345,64.86105601686971,88.86212382051029,71.56530915688792
98.05277399001415,57.56179468050726,52.0382273589616,50.65210817719015,64.95296759762424,88.7989579604677,71.83812004667747
97.99594247292853,57.61717464289218,52.16307201874254,50.62383088178526,65.04282543468129,88.73673012482654,72.13205658611895
97.9382380276566,57.669697614550266,52.28499227493001,50.599701736991136,65.13034738450195,88.67547585593746,72.44577229639435
97.87983714329256,57.719180781272094,52.403655492942086,50.58009913729285,65.21523951876985,88.61527087665506,72.77787844932699
97.82095605989223,57.7654772797042,52.518721933747834,50.565409576486694,65.29717901485925,88.55623839634717,73.12696392087
97.76181379850922,57.80849934231434,52.629852151761995,50.55600504353254,65.37582685416012,88.4985215937212,73.49158702278635
97.70260379068984,57.84820492158335,52.73670820745707,50.552234615449606,65.45085192794026,88.44225846743252,73.87025904689278
97.64350377953414,57.88456418279056,52.838939542856636,50.554430634387614,65.5219315441967,88.38760102550943,74.2614620510226
97.58468551835452,57.917548872344156,52.93617611977338,50.562904071743255,65.58873037673402,88.33475214817224,74.66369313431937
97.52628907662745,57.947158410813024,53.028047409754755,50.577922767448605,65.6508940407425,88.28396308597458,75.07548666481452
97.46839609797298,57.973447302560956,53.11420794628458,50.59969993941894,65.70807560197132,88.23549096582897,75.49540824899287
97.41105403995736,57.99651936392196,53.194339882492,50.62841352197246,65.7599675136594,88.1895679908898,75.92206759105757
97.35433200217372,58.01650683233678,53.268136186438944,50.66423436633384,65.80630476273765,88.14640525097224,76.35416426688265
97.29834093233701,58.03357131476371,53.3352927081961,50.70732854076748,65.84684903632116,88.10619548588497,76.79051563017153
97.24320634767693,58.0479207421949,53.39552307366563,50.75783804054432,65.88138744644442,88.06908626370553,77.23003219746238
97.18904852330361,58.059805727011586,53.44857961823958,50.81587225821975,65.90974679705606,88.0351552589829,77.67168155412327
97.13599755167144,58.069488160602916,53.494256784151084,50.88151788711994,65.93179385338404,88.004427417067,78.11450347875744
97.08420381523975,58.0772168024731,53.53238200975673,50.95484137189339,65.94741237723855,87.9769110194059,78.55766708783875
97.03381093386912,58.08323635897309,53.56281820762802,51.035867112016604,65.95648529454957,87.95260062653234,79.00049494595076
96.98492537824383,58.087809915773136,53.585478198036,51.1245484946116,65.95890736928978,87.93144835233751,79.44242269545126
96.9376323978596,58.09121704900509,53.60032639631519,51.22075735946002,65.95461062829878,87.91335533640574,79.88294608237483
96.89203972695442,58.09372762909366,53.6073594635128,51.324291492902894,65.94356532264698,87.89820372951921,80.32160476140142
96.84828629394993,58.09558915029869,53.60658892383342,51.434876889568876,65.92575681415434,87.88588491274703,80.75798555110558
96.80650688133662,58.09704577637966,53.598046667831234,51.552156858934396,65.90117814117717,87.87628731374286,81.19170438755177
96.7668077626728,58.09835801317476,53.58180075739761,51.67569438115498,65.869856892948,87.86927895413017,81.62237526964687
96.7292818072439,58.099792056919256,53.55795414177482,51.80500712414486,65.83188303277903,87.86473516556424,82.04960855608164
96.6940238573712,58.10159824178603,53.52662440815056,51.93960648544192,65.78740363138571,87.86258925747474,82.47303692169565
96.66110977241999,58.1040163110635,53.48793019700754,52.07900323675993,65.73660132095745,87.86284192576821,82.89231969548148
96.63056963367265,58.1073027517465,53.44200224833023,52.222687592258445,65.67969215759587,87.86552213060486,83.30710456766045
96.60240489623722,58.1117390666454,53.3890041829851,52.370115199870064,65.61693972333843,87.87065912006855,83.71698501033987
96.5766334062192,58.11760697795341,53.32913658884371,52.520708429207666,65.5486519847845,87.87830749300356,84.12150079756361
96.55330002047019,58.1251657731418,53.262628448014006,52.67385799837219,65.47515203510326,87.88859191155507,84.52017444649083
96.53244147405546,58.134660376636425,53.18974190130478,52.82891502913282,65.39675428307922,87.90171268248851,84.91253074834022
96.51405989276331,58.146337975370884,53.110790201768864,52.98518741674776,65.31377244935886,87.91791799239424,85.29808160084141
96.49813567930991,58.160437880659686,53.02614100243755,53.14195502168595,65.22654037091041,87.93749700502954,85.67631613599423
96.48464200315576,58.17716122002988,52.936195906371495,53.2984889102907,65.13540968987533,87.96079870585103,86.04671922063811
96.47352448077471,58.19666007324302,52.8413728900424,53.45405112812676,65.04072666030328,87.98822490933445,86.40878682436673
96.46467680535089,58.21906112240362,52.742116393318945,53.60788107225072,64.94282250853675,88.02018098235058,86.76200825583082
96.45796121074922,58.244488907880644,52.638919877112954,53.75919857311407,64.84202883664807,88.05703718497672,87.10583769333549
96.45325598564129,58.27305369067473,52.532325727755,53.90723360594732,64.7386896211713,88.0991459481697,87.43969924982066
96.45046788675343,58.30481810607815,52.42289834709287,54.05125218212765,64.63314867167347,88.14688174581444,87.76302316690595
96.4494991455811,58.339784785966074,52.311200297925616,54.19055158351118,64.52573663161995,88.2006392240016,88.07526361075344
96.45022214799968,58.37791924380512,52.19779084160238,54.32444054683423,64.41678937531026,88.2607883256304,88.37587948699304
96.45249105026375,58.41917355167106,52.083231386280026,54.452233262137455,64.30668097934763,88.32764169706034,88.6643188833615
96.45615465927288,58.46347614563511,51.968075878816805,54.57326005938367,64.19582814314073,88.40145805905586,88.9400367099695
96.46103656048173,58.510703136430365,51.85285502410988,54.6868759729703,64.08466412922576,88.48244350917912,89.20251707717425
96.46691368152973,58.56067381537564,51.7380787627919,54.792455111569296,63.973626159724766,88.57071935388437,89.4512648965937
96.47354153075864,58.61318134665639,51.62425306157971,54.88938438723634,63.86318079265708,88.6662853554181,89.68578538815174
96.4807053245886,58.66802133699367,51.51188261718544,54.97707904996029,63.75385338523485,88.76902415203011,89.90559648282583
96.48823201367625,58.724984191777956,51.401450897681165,55.05501316423413,63.64622075083842,88.8787390550415,90.11027029876166
96.49595336463273,58.78382781741832,51.293401677248866,55.12273340705542,63.54088167996942,88.99517220471171,90.29945208896832
96.50367795284744,58.84427623834373,51.1881442061139,55.1798497511741,63.438444659570294,89.11798127336728,90.47283835088625
96.51121183868655,58.906058515557774,51.08607028308559,55.226031094148226,63.33953156716636,89.24671629788669,90.6301548646277
96.51839546353784,58.968946964812794,50.98755488231659,55.26101984646016,63.24476519120351,89.38084210368552,90.77116524307607
96.52510422636878,59.03275455436823,50.892937529345346,55.284643529376595,63.15473413928866,89.51978789533189,90.895685395197
96.5312226283754,59.09731037074116,50.80251119895864,55.29680618654261,63.06996822387526,89.66296621006555,91.00357017190214
96.53664562682332,59.162456597031536,50.71653518077903,55.29748194797943,62.99095103044428,89.80975087142437,91.09468808849668
96.54131190370875,59.22806755735358,50.63525226971843,55.28673705936438,62.918147737299385,89.95946363760649,91.16892778645708
96.54521529681999,59.29405255771204,50.55888360009681,55.26475975586178,62.85200576026031,90.11139696289352,91.22623460441457
96.54837053581927,59.36032904279973,50.48760777739822,55.23186013203936,62.79292603323127,90.26483718635666,91.26662729634957
96.55078004690499,59.42680056672108,50.421551835264154,55.188445660593224,62.74124362731709,90.41905710141492,91.29017828500594
96.55245123517697,59.49336861288229,50.360800308662235,55.13500287882318,62.69724088907424,90.57331187118297,91.29700127981664
96.55344083341409,59.559956263389445,50.305401236232655,55.072087179664756,62.66116851078976,90.72687799408881,91.28727472909044
96.55386133554065,59.62650441277391,50.255356590737534,55.000301578495815,62.63324009417911,90.87910220509053,91.26126654860332
96.55383830902097,59.692943329041924,50.21061822283251,54.920261112637064,62.61360899832917,91.02940246908665,91.2193206404567
96.55347615100591,59.75918198057039,50.171114820669295,54.83255709085671,62.602362466880365,91.17722981169042,91.161827006761
96.55287468038965,59.825135358113734,50.136794240696986,54.73773202551789,62.59953638503163,91.32204827080052,91.08922416359216
96.55216485214864,59.890754153228954,50.10763996801564,54.63626661510404,62.60511958537469,91.4633515269277,91.0020283479615
96.55150769056057,59.95601816184678,50.08365421556359,54.5285806391403,62.61903457225452,91.60067504983778,90.90083713577788
96.55106210542371,60.020909514104254,50.06484385459524,54.415052146705406,62.64112310737244,91.73357457059491,90.78629197928511
96.55097553236841,60.08540565381709,50.051235154422855,54.29605261326978,62.671164398390324,91.86160710419682,90.65904424046445
96.55140839454582,60.14949357429963,50.042895901350526,54.171994486085595,62.70890704885952,91.98436286827305,90.51976539837639
96.55254387901675,60.213171087589664,50.0399303333931,54.04340645708425,62.75407529298406,92.10152555294721,90.36918251882723
96.55455872314671,60.27642232140691,50.04245098722122,53.91104202587719,62.80634956634374,92.21289242894616,90.20808813860219
96.55759695284434,60.33919822463493,50.050558721809395,53.77596709833917,62.86536064815847,92.31834158310964,90.03732236251209
96.56178672826671,60.401428483821775,50.064340335648666,53.639566106116575,62.93071670318933,92.41780280732827,89.8577766466678
96.5672721765394,60.463044266282935,50.08386367371663,53.50347583234927,63.002033033331315,92.51126469619182,89.67042892270172
96.57420853799358,60.523974877874394,50.10915806701932,53.36949654531495,63.07893021342414,92.59878186939626,89.4763572417365
96.58273055693638,60.58412103685243,50.14019875844968,53.239551460044765,63.161011882243486,92.68044893725687,89.276703280078
96.5929487542704,60.64334450406359,50.17691833295639,53.11578858689616,63.247855327944976,92.7563752291246,89.07262362587626
96.60498058401427,60.701492274669334,50.21923311974706,53.00080739096268,63.33901800625464,92.82670646305321,88.86527129519848
96.61896413919726,60.758422303120945,50.26704968257493,52.897814743802456,63.434034649866796,92.89166723146835,88.65579503285763
96.63503122005999,60.813996987324074,50.320243722586255,52.81057944710545,63.53239556325675,92.95155992711562,88.4453181782974
96.65328237500638,60.86806156253669,50.37864030060663,52.74328749832265,63.63353181661825,93.00671465019914,88.23490176115226
96.67379610589117,60.9204452457753,50.442019102367134,52.700445794079336,63.736833628791594,93.05745059706585,88.0255365612609
96.69664009034756,60.97098487511453,50.51013252084624,52.6868403225851,63.841686231931156,93.1040890659102,87.81817319116843
96.72184866773786,61.01953494408312,50.58270968278405,52.70746607881754,63.947482031130896,93.14698316056436,87.61374165520878
96.74939543328915,61.06594861285726,50.659447343360874,52.76741736607482,64.0536002271527,93.18651073125345,87.41312960269984
96.77921112408593,61.11005772079013,50.7400107118827,52.87186120217248,64.1593903446453,93.22304065172263,87.21715393590254
96.81123182698059,61.151678092689984,50.82404633764714,53.02617028762467,64.26419111102477,93.25692206488353,87.02656774301897
96.8454135341186,61.1906252666877,50.91118528447045,53.23606496951842,64.36736691913428,93.28850069413814,86.84208527278349
96.88169743507838,61.226710302908046,51.00102806939624,53.507573874502604,64.4683222503702,93.31811660606456,86.66438045024165
96.91998126414911,61.25971767114968,51.09313006585734,53.84683390238147,64.56649404650182,93.3460668424732,86.4940641100104
96.96013973607036,61.28939805460162,51.1870050767,54.25986096799598,64.6613534186217,93.37258029402238,86.33168531898869
97.00206304344964,61.315490423623416,51.28213656303074,54.752350093938134,64.75241926236082,93.39784923393731,86.17776170779128
97.0456575485631,61.337744614940924,51.37797507895536,55.32951759550102,64.83925546410318,93.42208584196841,86.03279232881822
97.09081478653341,61.35591603813672,51.47392374602734,55.996037409946275,64.92144418488708,93.44553554170119,85.89722935422648
97.13740337099084,61.3697501931858,51.56933596445878,56.756093347597435,64.99856446991119,93.46844141140076,85.7714431151956
97.18529451581642,61.37899328429876,51.66353893439014,57.61344353123542,65.07020078942419,93.49101978769907,85.65572151937634
97.23437216738667,61.38342530324046,51.755863797402114,58.571385306004565,65.13596422683433,93.51347929810483,85.55029273021769
97.28450291326801,61.3828750962043,51.84565481244143,59.63263701482021,65.19549233363529,93.53604291168291,85.45532762476915
97.3355080133433,61.37720268512314,51.932261680509995,60.79921230868397,65.24842940596288,93.5589300741604,85.3709168226861
97.38718184583497,61.36628344939681,52.015041425285766,62.072321841537125,65.29442377178876,93.58232255959881,85.29706196886211
97.43933196238352,61.35002536657851,52.09337590987574,63.45230783519662,65.33315837705344,93.6063607232428,85.2336963534287
97.49178407593523,61.32839921954949,52.16668406978066,64.93864433240896,65.3643822572153,93.63116290961742,85.18070007144496
97.54435413591422,61.30143952580847,52.23441674461611,66.5300425688783,65.38790840670903,93.65682119877549,85.13788235978006
97.59684252095047,61.26921540115581,52.296053366750115,68.22461830065947,65.40359260185835,93.68336265454136,85.10495351993961
97.64906373311284,61.231814867697004,52.3511232275641,70.02001042142558,65.4113307284014,93.71072271348415,85.08152510122797
97.70086107373571,61.189364890673765,52.399237451630974,71.91339463242242,65.41107677168574,93.73876912624696,85.06713556133614
97.7520787299562,61.14205309477957,52.4400968510984,73.90145401493108,65.40284778247067,93.76734568467842,85.06126183654581
97.80253494297735,61.090115198814516,52.47347040175463,75.98042777829362,65.38670087318428,93.7962782851492,85.06330805750292
97.8520419190982,61.033805876790346,52.499175113181835,78.14627140864413,65.36271172132714,93.82534381626162,85.07261083778918
97.90044634990281,60.97339299861788,52.51708036811103,80.39481470234308,65.33098458296263,93.85425643619243,85.08847825321533
97.94763306921219,60.90917563046625,52.527122088485754,82.72182357346374,65.291676844403,93.88270003933239,85.11022331861106
97.99349446739288,60.841488571743554,52.52930010293366,85.12301489278174,65.24499893353396,93.91036891179003,85.13715923164754
98.03792096457444,60.7706781789183,52.52366097747766,87.59408920973335,65.19118770352196,93.93696859275312,85.16858180092532
98.0808263061172,60.69708007341891,52.51028914141871,90.13074717100504,65.13049312827138,93.96219250561556,85.2037829225975
98.12215843409271,60.62102626275216,52.489311669574,92.72863306035416,65.06320314743819,93.98572419960976,85.2420894507696
98.1618687197218,60.54286340352964,52.46089837567205,95.38321874315241,64.98967721698135,94.00726507631725,85.28287971326948
98.19988174462891,60.46294636832052,52.425246661055276,98.08971193804275,64.91034607080736,94.02653990973562,85.32556507943033
98.23611117780487,60.38160728820709,52.38256945751868,100.84309987309116,64.82568503929893,94.04326315787623,85.3695802775451
98.27049756790069,60.29913750138093,52.33310619226393,103.63833864305553,64.73619963439083,94.05710707425348,85.4144063316583
98.30301161058979,60.21580299431392,52.277141614007014,106.47051696013081,64.6424293373812,94.06771239457169,85.45958908452803
98.33362468816539,60.131864715638436,52.21500207958908,109.33485465729183,64.54493958777584,94.07472306870588,85.50471949120858
98.36230101187907,60.04757028385259,52.147028994263174,112.22661337567015,64.44429029945412,94.07779344520345,85.54940050033119
98.38902540908373,59.96313049224567,52.073559235788665,115.14105292549353,64.34101108530369,94.0765612160912,85.5932428417918
98.41381744804903,59.87871702292386,51.994933144556775,118.07348598519917,64.23561164933548,94.07063544573289,85.63588394559058
98.43670299417079,59.79448431149265,51.91151429194037,121.01943721920591,64.12860756102577,94.05962992874485,85.67698775729235
98.45768469611382,59.71058163824481,51.82369126157084,123.97485597222452,64.02051992279016,94.04320493366646,85.71621623410131
98.476759391905,59.627137942564005,51.73185926650404,126.93632480607303,63.91184708130063,94.02106858163533,85.75321034179248
98.4939599605067,59.54424646042051,51.63640348828898,129.90124946953782,63.80304652341131,93.99295091101708,85.78760030168502
98.50936164775429,59.461978221763516,51.53769697689363,132.86798520442733,63.694547360161565,93.95859915210822,85.81901573186379
98.52305112011962,59.38040912989819,51.43610492149732,135.83587343932368,63.58676779818623,93.91779918819813,85.84707280246872
98.53511423459415,59.29962392586525,51.33198131652629,138.80521118951322,63.480107125818684,93.87038102138959,85.87136726248839
98.54565865298218,59.219694438706945,51.225661782634404,141.77711750611832,63.37492314157985,93.81618980422711,85.89150937357913
98.55482222732955,59.140667166514866,51.117466921227326,144.75329029310348,63.271529945483955,93.75505893196592,85.90717806549507
98.56273872853963,59.062579156943976,51.00770987716566,147.7357616518607,63.17022175765249,93.6868203813782,85.91813830944295
98.56950254490626,58.98547572357632,50.89668824781007,150.72673068712834,63.07128872509013,93.6113298421358,85.92421630690212
98.57518031629729,58.909400772221204,50.784660799871624,153.72844736915926,62.97500275261727,93.52846163196716,85.92528057191996
98.57984850549121,58.83437401876067,50.67183295061421,156.74309100460266,62.88159889549971,93.43807660331994,85.9212492392357
98.58359893082317,58.76039083456726,50.55837069182439,159.77262212263668,62.79128489314217,93.34000705528776,85.91209017222893
98.58650883264885,58.687447351623355,50.44443074131028,162.81863241591603,62.70426606819718,93.23407492299256,85.8977905132924
98.5886272156418,58.61555419033452,50.330175379783036,165.88222497045658,62.62074806430072,93.12010934537487,85.8783264652711
98.58999477868177,58.54471871359187,50.215767336787025,168.9639205150643,62.540915213239096,92.99793621247127,85.85367618559091
98.59065395319321,58.4749241172422,50.10136999983028,172.06357747582098,62.46492217103009,92.8673669802822,85.8238634337872
98.59062118295486,58.40613706527657,49.98716088718704,175.1803628336821,62.39291807357893,92.72822542144435,85.78897486041483
98.58985842751785,58.338330648555264,49.8733365937596,178.31280988500384,62.325072291035184,92.58039293826894,85.74912874407636
98.58828927156792,58.27148748612026,49.76009685517924,181.45891022910087,62.26156661186998,92.42381915919843,85.70443793258087
98.58583968411025,58.205581143039595,49.64762687046373,184.6161550262421,62.20256610465106,92.2584925804355,85.6550171802361
98.58244591638363,58.14057078712625,49.536100319836706,187.78151028556596,62.14820613764739,92.08442362558822,85.60102495138007
98.57802487886171,58.07642638535887,49.4256946178643,190.9513846917075,62.09860204400297,91.90167331365319,85.54268219460813
98.57246020714315,58.013154262874615,49.31659217794766,194.12167715733779,62.05385152579128,91.71039136917973,85.48025025596051
98.56562537943468,57.95078983779081,49.20896467604496,197.28792004578702,62.01401350786844,91.51081374602241,85.41401274243778
98.55740026255098,57.889371653203796,49.10296754877443,200.44543622629018,61.979090254273444,91.30323212046508,85.3442870220678
98.54765005714944,57.82893674595733,48.99876257523428,203.58948215105775,61.949044197842575,91.08798443726212,85.27143285368977
98.53620428115883,57.76954338798644,48.89654616833567,206.71541011636882,61.923833765204186,90.86547154174646,85.19582936107558
98.52288222708715,57.71128419136022,48.79655063661349,209.8187904363929,61.90342413185281,90.63615682114128,85.11784712807777
98.50754101445006,57.65426901001565,48.69902250292063,212.89540704373857,61.88776730104176,90.40053065616961,85.03785971354706
98.49008541759973,57.59860770491676,48.60420723134823,215.94116312044392,61.87679420008699,90.1590796416356,84.95628426313067
98.47043707484139,57.54442436544994,48.51234946227258,218.95198520141375,61.87044395005568,89.9123004372877,84.87359512412038
98.44851900508843,57.491884467352236,48.42369059248908,221.9237418931529,61.86869748481992,89.660735275911,84.7902942591067
98.42427631179116,57.4411941462346,48.33845190786881,224.8521566511211,61.871574542796516,89.40497435608681,84.70688153641727
98.39768907386771,57.39256950200375,48.256818422524454,227.73272864314717,61.87910470195444,89.14561918452382,84.62385047491227
98.36874719449129,57.34621595082064,48.17894229256794,230.5606860935344,61.891312252433075,88.8832571760869,84.54168222075292
98.33742483436077,57.30234132227918,48.10495621290822,233.3309632095127,61.90822346167,88.61847796610184,84.46081395830461
98.30370032610294,57.261174587492654,48.034970911635774,236.03817761772416,61.92986680052544,88.35189718263413,84.38160736108323
98.26759822199557,57.222954432025375,47.969053775614725,238.67662199874042,61.95625022667213,88.08414427353588,84.30435574286204
98.22919377981765,57.18789814240994,47.907215244862726,241.24031252777024,61.98734358975563,87.81582930100451,84.22931811887491
98.18857718606219,57.15619005525825,47.849423641156186,243.72309412489733,62.02309561830678,87.54753444713256,84.15673037992167
98.14583292099725,57.12800271476594,47.79563282517686,246.11873818275518,62.063465305657175,87.2798340978518,84.08678406906637
98.10105675851788,57.103519708449284,47.745791956952075,248.42097151632618,62.10842481054304,87.01330186706042,84.0196181219682
98.05436755982699,57.08292925579927,47.699835608285696,250.6234509726171,62.15793160089064,86.7484858350984,83.95534574528548
98.00588155489349,57.06640391031549,47.657678743609395,252.71976931119355,62.21191107068507,86.48589024071237,83.89407742793468
97.95568503508683,57.05410029542834,47.619225260016044,254.70356083539033,62.270275660706986,86.22599852326218,83.83590573066886
97.90385364153397,57.04617384640058,47.58437134561515,256.568689815675,62.33295313408331,85.96930776430386,83.78088150629046
97.8504966140093,57.04277466475228,47.55299237923656,258.3094498519101,62.399884304986195,85.71632399461612,83.7290312369291
97.79576386012312,57.04402085888925,47.524933038632554,259.92070441540267,62.47099803237433,85.46752521158037,83.68040492465609
97.73981113948392,57.04998717995201,47.500023792188166,261.3979283690393,62.54620128469377,85.22334406175703,83.63509685837631
97.68277905493447,57.06073074518779,47.47811187434621,262.73715822616856,62.625391045221996,84.98419032383254,83.59322568060061
97.62480887413153,57.07632112869994,47.459072241842385,263.9349145196169,62.708457716575154,84.75047284881258,83.55492013857625
97.56605346623407,57.096835015183586,47.442789652777925,264.988178879257,62.79526543150888,84.5225838278815,83.52033312389403
97.50665182650994,57.12232689088338,47.42914009919177,265.8944343116785,62.88563840384878,84.30087114221293,83.4896481889552
97.44670223941996,57.152815781541136,47.417996421184384,266.65168061742736,62.97938200722054,84.08564320006879,83.46304876963909
97.3862819543184,57.18829618588963,47.409245844002136,267.2583823246857,63.07631654342124,83.87719453640435,83.44067741683091
97.32549338145463,57.22874191735927,47.40279106461411,267.71344567700714,63.1762800069999,83.67580363371951,83.42263176816635
97.26447516652053,57.274084351247,47.3985336849074,268.01631456694923,63.27909831333695,83.48169647666545,83.40899332112745
97.20337123226315,57.324189309812176,47.39636533226172,268.16711275675044,63.38456363939966,83.29502602001216,83.39983874871973
97.1423122187736,57.37886120875354,47.396179843703905,268.16670453835894,63.4924467525556,83.11590270473435,83.39521741101375
97.08143282851209,57.43786389861701,47.39788969601123,268.01665655238423,63.602520235935806,82.94444039877793,83.39513514219522
97.02088295770116,57.50092503086209,47.401425013527415,267.7191566740095,63.714557575598455,82.78076048478597,83.39956690921126
96.96080091698073,57.567718154166315,47.40672228391647,267.2769220805728,63.828317311881236,82.62495845394561,83.4084664420296
96.9012844937511,57.63785410200387,47.41372706864776,266.6931037627056,63.94354820213618,82.47708518828685,83.42174373823424
96.84240710187422,57.71090293846855,47.422409833691134,265.9712115538884,64.06001443286905,82.33716036701932,83.43923372733072
96.78425922021749,57.78642209875373,47.43276848791143,265.1150833474234,64.17750235273174,82.20518074362258,83.46069735308689
96.72695677709102,57.86395743865019,47.444809305720156,264.1288656045729,64.29579466611695,82.08109798773518,83.48584972059177
96.67061060295012,57.94302773939471,47.458532605199096,263.0169532104698,64.41464467488512,81.96479677044708,83.51437212125575
96.61530756915177,58.02313028251743,47.47394706622134,261.78389864397377,64.53378084256994,81.85611154720146,83.54590139618217
96.56112517390926,58.10377168179496,47.491096185557964,260.434347283759,64.65292604365538,81.7548643850904,83.58003773924067
96.5081409534747,58.18448589113963,47.51006366384856,258.9730331690898,64.77179517389109,81.66087300854251,83.6163847842721
96.45640907625494,58.26481975878273,47.53095874649684,257.40482869280885,64.89006880835124,81.57392317220317,83.6545802699943
96.40594132610356,58.344319298453954,47.55390749660603,255.7348203428839,65.00737775392064,81.49375983144637,83.69428379203023
96.35673644645784,58.422553626192474,47.579054047301305,253.96837079349646,65.12331903899666,81.42013324398917,83.73514869634894
96.30883015806323,58.49915958330322,47.606553164524115,252.11114160831232,65.23747864703425,81.35285644315054,83.77682771100795
96.26230276738184,58.57385771195087,47.636547848661074,250.16907070507577,65.34942892389896,81.29180998148564,83.81900818616711
96.21724196248587,58.64642770416802,47.66915124320534,248.14830618362546,65.45871108682164,81.23689956121906,83.86142522296267
96.17371909940961,58.71668283925267,47.704454065034334,246.0551348086736,65.5648378895043,81.18802589660433,83.90384010484296
96.13180590084943,58.784474074767466,47.74254746611012,243.8959464372846,65.66731964429172,81.14509636948642,83.94602908701039
96.09158985472556,58.84970333987155,47.78352788679632,241.67720439708293,65.76567935716271,81.10804431303876,83.98780505841323
96.05315116896482,58.91231224292087,47.82747493422091,239.40537966443725,65.85943909223637,81.07681489293766,84.0290352875855
96.01652664142458,58.9722544009948,47.874432564312926,237.08687228249187,65.94810492190396,81.05133466370988,84.06962054565311
95.98169346150594,59.02948737697382,47.92442026706622,234.727955025952,66.03118094816806,81.0315068092238,84.10945929913937
95.94856449326332,59.08398955835871,47.977458811318265,232.3347311340164,66.1081981592994,81.01722528747183,84.14844476522649
95.91699241097834,59.135767424492975,48.03357586607088,229.91309300761097,66.17872062591367,81.00836680336641,84.1864919594015
95.88679283013361,59.18483437468057,48.092789133368605,227.468701255265,66.2423240147846,81.00475795343397,84.22354499414969
95.8577858158079,59.2311879752489,48.15509485675661,225.00700200095693,66.29857938792019,81.00616458360305,84.25955077883293
95.82991077599104,59.274814768696096,48.22047123113576,222.53325928191006,66.34706505082069,81.01233242517598,84.2944432670784
95.80345680657065,59.31570897532797,48.288876470962876,220.05256599951616,66.38738728714246,81.02304004053984,84.32816259822229
95.77928075497981,59.35387011253122,48.360230667403705,217.56984066420128,66.41917913631532,81.03810736691717,84.36067231787113
95.75893403253606,59.389274925077395,48.434401300771704,215.08986008959073,66.4420827590987,81.0573668843936,84.39193991521587
95.74488787882272,59.421855551853156,48.5112118192389,212.6173431037168,66.45575311830255,81.08065121672404,84.42190645409835
95.74093603487417,59.45150786312494,48.59045973635519,210.15703538198437,66.45990064744429,81.10781236828188,84.45049281861944
95.75249570449593,59.47811321622179,48.67191730297102,207.7137469884185,66.45433906987222,81.13873149262362,84.47763696768918
95.78660835229746,59.50154182964021,48.75531324818815,205.29232666394353,66.43899612560053,81.17329745014423,84.50330978929985
95.85174170746558,59.521639223582724,48.84032274032397,202.8975836071509,66.41389750966282,81.2113983078836,84.52749192382262
95.95749419431303,59.53822822265228,48.926588399498016,200.5342075581791,66.3791628369899,81.25296591516354,84.55015162949678
96.1142229567458,59.55113691964144,49.013757386505375,198.20673742933178,66.33501396219891,81.29803234583454,84.57125125300244
96.33268163462162,59.560219713666775,49.10149792644927,195.91956924267834,66.28176388147821,81.34673154802319,84.59075663395016
96.62377087971883,59.565344959181836,49.189489269429856,193.6769691328817,66.21978054442225,81.39925491237113,84.60862058310714
96.9983857547403,59.56637020336477,49.27741167755691,191.4830750087434,66.14945770893276,81.45582599421358,84.62476338672458
97.46725169983851,59.5631457947635,49.36494799575963,189.34186421861102,66.07121652691295,81.51671522672318,84.63909404387938
98.04071710121595,59.55555269249996,49.45178112461654,187.2570791337777,65.98551805983627,81.58224578977213,84.65156099129257
98.72861977514876,59.543533503713974,49.53757751858134,185.23215037688615,65.8928557369927,81.65275783897735,84.66217260908117
99.54029417490169,59.52708286043056,49.62197355363238,183.27014186129972,65.79374520026421,81.72857103459268,84.670968135541
100.48457939051924,59.50621488793414,49.70458727025173,181.37369143416348,65.68876304260762,81.8099930555802,84.67798609557397
101.56971212859636,59.480950714425866,49.78504821254735,179.5449359163676,65.57863074141602,81.89735207941156,84.68327187235433
102.80317641699645,59.45133838899916,49.86301402584932,177.78546077245034,65.46426663373774,81.99099500078535,84.68690529974826
104.19156928671714,59.417471652919126,49.93816253664097,176.09631797037082,65.34675729288696,82.09124415120472,84.68900169164081
105.74044419849884,59.37947693362002,50.010183181124425,174.4780913975718,65.22727912013683,82.1983668252901,84.68968369071838
107.45412193851323,59.33748489114042,50.07878957863731,172.93094146762007,65.10701685072209,82.31259428751599,84.68906674960864
109.33551558467214,59.291623971668336,50.143739375502705,171.4546186784319,64.9871063997101,82.43415363205467,84.68727278398998
111.38603098411429,59.242040425945746,50.20483607845929,170.04850410381582,64.86863934343064,82.56325798020828,84.68443461620974
113.60558180642717,59.18891003420159,50.26191936703983,168.71168599119784,64.75276078391833,82.70006488953423,84.6806691234564
115.99268609249565,59.132421160392525,50.314866991343735,167.4430162944722,64.6408117521008,82.84465685756035,84.67605701724163
118.54457356045872,59.072758517555236,50.36360835553127,166.241120971233,64.53440345542533,82.99705814537396,84.67067336818597
121.25727735861165,59.01012651099459,50.40813204656183,165.10438899826656,64.43537978222933,83.15724593960904,84.66464504931398
124.12571000775945,58.9447995524963,50.44847699088662,164.0309645309872,64.34572928321653,83.32513305681154,84.65816990014336
127.14371342793343,58.87714533922122,50.484717800491566,163.01873801306817,64.26752438670532,83.50056272559304,84.65148500304593
130.30409218628236,58.80760157740751,50.51696563212033,162.06532108264642,64.20292758798313,83.68334804212303,84.64483563853912
133.5986650772145,58.73664833451155,50.54538245863853,161.1680144934813,64.15423829781065,83.87331499011238,84.63847713972578
137.0183552252088,58.664813255410934,50.570181605035025,160.32379962295227,64.12390124090489,84.07029574483391,84.63268025822178
140.55328869122792,58.59268759034028,50.591604822935686,159.52936214280132,64.11445326641514,84.27409072813903,84.62770638281391
144.19285250687295,58.520912493407124,50.609899407680615,158.78112597268589,64.12848017851557,84.48445948231978,84.62377552233308
147.92572707099407,58.45014041380119,50.625317809279615,158.07529014424964,64.16862726467014,84.70115178622692,84.62107338908572
151.73995699018633,58.38101119434148,50.63812882389365,157.4078884625827,64.23760601116723,84.92392761956971,84.61978988251157
155.62305656387556,58.31415764011524,50.64861391499224,156.77486728765953,64.3381435037267,85.15253477412786,84.62013389914881
159.56207897732216,58.250211192777975,50.65704657070512,156.17213606974497,64.47293953735914,85.386683728076,84.62230876658374
163.54363009455383,58.18977981640185,50.66367361959848,155.59557517466743,64.64474516486672,85.62606369233337,84.62649266298602
167.55390065063162,58.13341240230211,50.66870675901495,155.04106195868675,64.8565343699944,85.87037440169236,84.63285122115339
171.5788184046323,58.081586960879484,50.67231718862029,154.5045763874395,65.11159473307669,86.11932091382869,84.64155140532111
175.6043133797849,58.03473148372731,50.67462560652242,153.98234262712515,65.41346117358397,86.37257547884168,84.65274233135315
179.6165357276739,57.993242293536916,50.67568879081895,153.4709106894624,65.76579639627184,86.62975739570082,84.66652368214852
183.60191985082446,57.95746957560135,50.675492099395235,152.967174465857,66.17232101216281,86.89044760678176,84.68295104100406
187.54716525253662,57.927686303146245,50.67394985917766,152.46838436732514,66.63682090841665,87.1541977347895,84.70207819941679
191.43921249784606,57.904077401402546,50.67090185068871,151.9721474699187,67.16320842865062,87.42050632247685,84.72397933465788
195.26520920754658,57.886757211304825,50.6661043268448,151.47637683448218,67.75554139991486,87.68879818787413,84.74872185148426
199.01247028278422,57.87578516744294,50.65924120084133,150.97920895039132,68.4179232463863,87.95844997336826,84.77633072265102
202.66848533440046,57.87115448167678,50.64997378064112,150.47894629831205,69.15432463894663,88.22883811935081,84.80679516690434
206.22100269053792,57.87277084834155,50.63799930977412,149.97405354945136,69.96839798653595,88.49934948465167,84.84010884338451
209.65813343421104,57.88045840606448,50.62307243774502,149.4631708284895,70.86331420719974,88.76934168746489,84.87628875188683
212.96839974658621,57.893996858693946,50.604988152254,148.94509126661555,71.841641944743,89.03809946864072,84.91535676247267
216.1407368147263,57.9131495707268,50.583563584210474,148.41871945367794,72.90529455079188,89.30484041155461,84.95732575721715
219.16451312251795,57.93765579949596,50.55864248563912,147.8830757508688,74.05554026301228,89.56877163559717,85.00220846915235
222.02958497485386,57.96721346157231,50.5301075511275,147.33735329493865,75.29301875481632,89.82914501714944,85.05001477030979
224.72633794821044,58.00148905258209,50.497875197640866,146.780962952308,76.61771582277353,90.0852859698878,85.10071738956565
227.24570404299945,58.04014580064724,50.461875146931426,146.21353222953226,78.02891180259016,90.33662443874054,85.15421878594907
229.57923225989285,58.082851287227356,50.42203935090321,145.6348888794575,79.52513757194325,90.58272745592579,85.21036254618019
231.71925045709852,58.129257761482464,50.37831133095844,145.0450528134674,81.10415610596483,90.82329422264202,85.2689792182044
233.6590089355214,58.178995339393566,50.33065887122295,144.44421876076882,82.76299114672656,91.05812138259364,85.32990868411548
235.3927058019359,58.231703485727785,50.27906957296095,143.83271146634777,84.4980148576429,91.28708727060024,85.39297496535387
236.91546349418067,58.28706650602736,50.223533704304245,143.21093822281142,86.30507378193063,91.51015726138753,85.45795639151332
238.22336430208367,58.34481075858661,50.164033505313824,142.57939086912432,88.1796216168563,91.72736730716062,85.52459494483571
239.31351723573468,58.404679981692176,50.10054676411731,141.9387060073453,90.11684855640478,91.93877934409197,85.59262852100555
240.18405707352844,58.46643934819537,50.033056434087,141.2897202940191,92.11180932857158,92.14444741100944,85.66179882560496
240.83405350875387,58.52991532240813,49.96155499007681,140.63346009740584,94.1595340939139,92.34441641146952,85.73183099769054
241.2633918833516,58.595020233670155,49.88604819531609,139.97107820951163,96.25509919132361,92.53873645074536,85.80242804938668
241.47269402403217,58.66173014183014,49.80657089321766,139.30378458311347,98.39365624778985,92.72746850707232,85.87329458510867
241.46330302036444,58.73005130828246,49.72320363302667,138.6327899802796,100.5704312088554,92.91068521967952,85.9441511081052
241.237292165835,58.80001745777345,49.6360681052282,137.95926369750023,102.78069081639784,93.08848377083427,86.01471399212569
240.7974529412394,58.87170500785835,49.54530748569248,137.2843200507089,105.01966743177796,93.26100120312326,86.08467149995329
240.14727727849308,58.94522622641463,49.45107807139552,136.60905876541443,107.28246729027745,93.42841854341751,86.15369291962531
239.29095190625193,59.02069484735804,49.35356163049387,135.934648317661,109.56401324894968,93.59097068717556,86.22145606942533
238.23332708875466,59.09819932967602,49.252978698739945,135.2623870605098,111.85903756810113,93.7489719694657,86.28765059406109
236.97983528973774,59.17780789684057,49.14958340997595,134.59371676143311,114.16210038813426,93.90283096674014,86.35195752446492
235.5364019342313,59.25958333054311,49.04365277898848,133.93023810971636,116.4676266953593,94.05303284513064,86.41404735185121
233.90939724225845,59.343573113010564,48.935493133568094,133.27374136974157,118.76996852244066,94.20010829898933,86.47360626411073
232.10562196241358,59.42978086415882,48.825454153439814,132.62622038903964,121.06346407708092,94.34464441113867,86.53034956363473
230.1322827725259,59.51815799614669,48.7139237628116,131.98988990184668,123.34245797496679,94.4873837037309,86.58399851635177
227.99693741419296,59.60862899165533,48.601302426161496,131.36723381146305,125.6012886768455,94.62937772114536,86.63425431420607
225.70744097948207,59.70111391939445,48.48798516128891,130.76102737705253,127.83426455455343,94.77211995021614,86.68081119827576
223.2719244193076,59.79551459659679,48.37437641888157,130.17427282088303,130.03564278900677,94.91762750882025,86.72339428572747
220.69877753805702,59.891680700147,48.26092403925767,129.61008602518325,132.1996347138117,95.0684499062878,86.76177151403677
217.99659752230914,59.989395245051035,48.14813222864085,129.07160043631396,134.32044218485916,95.22758114963511,86.79573338822452
215.1741246645399,60.08838988130772,48.03654261372641,128.56189360680216,136.3923022674362,95.39830922520123,86.82508538011034
212.24020300547917,60.188360630576135,47.92671266644129,128.08390854086045,138.40956292489645,95.58407193453851,86.84966851319294
209.20375241001506,60.28896020181334,47.819213711934275,127.64037424841476,140.36682015715684,95.78837161845816,86.86936857637626
206.0737306010668,60.38978790927026,47.71463530060421,127.23375790334896,142.25904001458485,96.0147783438543,86.8840890554295
202.8591160209158,60.490411727358094,47.613574074219635,126.86624516407036,144.08157010786607,96.26699657161335,86.89372173367808
199.5689529875745,60.59041365224191,47.516616368998875,126.53970693635127,145.83006504329893,96.54891075739405,86.89816114662479
196.2124296751186,60.68941320447795,47.42434225967523,126.25563926633647,147.50041028045032,96.86458993386687,86.89735280529497
192.7989021913105,60.787049638465795,47.3373474088514,126.015104640734,149.0886878901705,97.21831840805078,86.89131716529204
189.33783524800248,60.882953916480005,47.25624841567377,125.81869552602224,150.59117146303458,97.614642414475,86.88012500548643
185.8387250149646,60.97675102925208,47.181657089539186,125.6665192104434,152.00431663665077,98.05835749414956,86.86386548693525
182.31105740110223,61.068090851068916,47.11414496313477,125.55821122786568,153.32474946817845,98.55442933617134,86.84264926155281
178.76427342203596,61.15666503415428,47.05422215089992,125.49299997824953,154.54928740174645,99.1078668508012,86.81663103227045
175.20770314036955,61.24219214523072,47.00233077212979,125.46983040733834,155.674990386933,99.72357096409411,86.78600800736267
171.65049504411488,61.324412193249444,46.95883960129817,125.48750486972054,156.69919352944015,100.40624806674298,86.7509952770384
168.10158297622948,61.403126396151286,46.92403608651205,125.54476364251202,157.61949799441663,101.16043471388592,86.71182148413783
164.56966776862828,61.47824899489328,46.898122391054876,125.64028924971957,158.43374725982324,101.99052421199403,86.66875383215445
161.06316681707838,61.54981438245467,46.88121838752173,125.77272387323778,159.1400205873153,102.90068508704783,86.62210958138286
157.5901414477891,61.61794101174088,46.87336547860626,125.94074984349268,159.73665708528918,103.89472312023234,86.57222823044086
154.15824606354062,61.68281228934157,46.874524741418576,126.14314934647504,160.2223229865623,104.9759921632735,86.51943427903896
150.77470811157468,61.74472112807613,46.88457881322962,126.37878483101098,160.59614577771038,106.14736885184256,86.46403114849765
147.44630729413666,61.804145067294456,46.90335542223046,126.64656033043613,160.85789546277147,107.4112442503032,86.40631929579723
144.1793365600711,61.861771262331054,46.930663479082284,126.94540049957722,161.0080997003804,108.76951317840216,86.34659705815172
140.97957527261835,61.918446287829056,46.96630860714853,127.27420821497664,161.04800982071197,110.22360526815552,86.28513506663505
137.85230703164038,61.975099251840696,47.010079574239775,127.63179196506341,160.9794885809773,111.77457343371107,86.22215894407304
134.8023580379544,62.03268796753883,47.061736960610574,128.0168073905791,160.80493082649852,113.42314681561267,86.15785671143881
131.83410872357413,62.09217485359636,47.121031905991316,128.4277330207768,160.5272245475262,115.16969231370233,86.09238352132877
128.95148197000805,62.15450934529791,47.18773824915319,128.8628490191928,160.1496926370195,117.01417182311712,86.02584236763846
126.15795181435753,62.22060778720767,47.261661158159136,129.32019360689395,159.6759999185542,118.95614921385591,85.95826373157752
123.45658035725782,62.29134881568859,47.342619215483296,129.79751688160448,159.11006864880633,120.99476412999444,85.88961904879784
120.8500381515066,62.36758268199646,47.43042829578611,130.29226014570364,158.45602278904357,123.12862088734649,85.81985875669437
118.34058039708897,62.450120645041515,47.52490181948043,130.80155862947475,157.71813085128377,125.3556715877347,85.74892967806781
115.93000700690303,62.53969246247882,47.62585300129709,131.32225356490721,156.90072695671054,127.67317262106735,85.6767606204748
113.61965537650394,62.63690195149067,47.73308041906516,131.8509133504516,156.00813537959777,130.07768561393408,85.60325697059181
111.41044416327968,62.74220949600716,47.84634241886378,132.38387032326497,155.04464168275157,132.56505188281986,85.52832630566944
109.30292995340214,62.85593821100862,47.96534972103229,132.91727787497953,154.01452328662072,135.13034530179053,85.45190016284285
107.29732729382236,62.97828346299798,48.089793508134406,133.44719000036122,152.92209483900248,137.76790023409214,85.37392085938609
105.39350687445594,63.109328197152955,48.21939170218747,133.9696626006447,151.77170998793122,140.47147349705708,85.29432127288503
103.59102723812846,63.24909856785052,48.35393244203388,134.48088360276904,150.56772573895444,143.2344601749356,85.21304121092575
101.88919856342432,63.397658269577036,48.493308188732215,134.97731736170678,149.31448360323458,146.0500607898888,85.1300669761229
100.28711877004899,63.55516867259153,48.63752439656271,135.4557893454904,148.01631588950508,148.91139607769392,85.04544145416321
98.78366384152044,63.7218658439215,48.78666914185482,135.91345900145546,146.67753341715098,151.81159866693724,84.95923596307436
97.37747812408448,63.897994827702064,48.940859598227384,136.34773222438952,145.30238692886817,154.74387692849123,84.87153035208253
96.0669874824836,64.08378004241588,49.10019382331776,136.75619757464239,143.89504486983788,157.70153024554767,84.78242616425442
94.85040349222187,64.27948266422939,49.26473144881025,137.13660988557615,142.45959866487374,160.67792020814485,84.69206025793555
93.72570058628193,64.48551205355454,49.43451539264157,137.486883676955,141.00005399965198,163.66642700718936,84.60058643745708
92.690598077811,64.70249786729215,49.60962233265637,137.80506133636797,139.5202870974631,166.6604000811121,84.50814644510127
91.74258157711397,64.93128654576469,49.79021890705195,138.08927222101786,138.02399920143353,169.65310718618778,84.41487245791049
90.87896458346387,65.17289940956594,49.97663485327936,138.33771826261162,136.51470091508878,172.63772152302366,84.32091565815364
90.09696127556191,65.42847428122312,50.16948930897803,138.54868257099608,134.99570989397913,175.6073764283171,84.22645331076636
89.39372276023728,65.69920724805776,50.36983280700906,138.7205243217823,133.4701354639928,178.55523965429336,84.13166108616917
88.76632998295455,65.98638424041691,50.57919245756501,138.8516495742983,131.94087041202587,181.4745309782267,84.03669216468059
88.21181961664324,66.29157934227786,50.7994905526303,138.94050471368178,130.41062543700568,184.3584826919081,83.94168825550896
87.72728482079202,66.61690164774703,51.03294039429218,138.985646454933,128.88198569322762,187.20030742974433,83.84679183410834
87.30996476265646,66.96507746931202,51.282017959807746,138.98587370592634,127.35743293606494,189.99322814314883,83.75212828921714
86.95725314281475,67.33934660861806,51.54948512040678,138.94035780476574,125.83931741371352,192.7305823917952,83.65777968766426
86.66667946994004,67.74332144686508,51.83837108655291,138.84873002256853,124.32982353969585,195.40596963170762,83.56379187185335
86.43591042774821,68.18088950373767,52.15190259634077,138.71110305172897,122.83099277116756,198.01340200057913,83.4702090718906
86.26273394523778,68.65616151505685,52.49346474668005,138.5280187840907,121.34480824062089,200.54742043897826,83.37708798275337
86.1450040449598,69.17350286772721,52.86660883732712,138.30035983335998,119.87325810878475,203.00311720287283,83.28447694964174
86.08059823426096,69.73764049024734,53.275025659082715,138.02927762228387,118.41832183687026,205.37605215352588,83.1924023878066
86.06743518407922,70.35370732521055,53.72246500408154,137.71615608481406,116.98193445360506,207.66214953698008,83.10089020024049
86.10351732733093,71.02711767701919,54.212711818674535,137.36258653061032,115.56599490232931,209.85765972832044,83.00999032742025
86.18692922854592,71.76334761926977,54.74967399170632,136.97032758006864,114.17239471595566,211.95917563945315,82.91976629729221
86.31579199433745,72.56779392680029,55.337460092978546,136.54126775570137,112.80300758449603,213.96365186968654,82.83026721334335
86.48823393241076,73.44578468683521,55.98035651254607,136.07741629866223,111.45964116202826,215.86841365051637,82.74152869820382
86.70240088502918,74.40261798791366,56.68278054511079,135.58090751503792,110.14400410721771,217.67116047204132,82.6536043620455
86.95646412928471,75.44347381923556,57.44926734977069,135.0539850210255,108.85770768050537,219.36994044326212,82.56658017359796
87.2485919269629,76.57321311213634,58.28444339150946,134.49896087913308,107.6022626370325,220.9631025098987,82.48055427889012
87.57692188779683,77.79619828870733,59.192944711212505,133.91819610762226,106.37904109513481,222.44931046575866,82.39562226425899
87.93958830863833,79.11625263669572,60.17929015891863,133.31413619746994,105.18922777099192,223.82763927468827,82.31189189204561
88.3347783691941,80.53678953893692,61.24777714810361,132.68934602829447,104.03380130691276,225.0976284886305,82.22949520917304
88.76074358801205,82.06100496724794,62.402469929324226,132.0464792841924,102.91354660720535,226.25921456353996,82.14856740272494
89.21576588060044,83.69196587546736,63.64723840543562,131.38820952646216,101.8290600608143,227.31262126273992,82.06921621652063
89.69815527646358,85.43258002414586,64.98575896059349,130.71719064662386,100.78072939695404,228.2582791834966,81.99152565596857
90.20631737651514,87.28558959546494,66.42146449276319,130.0360666912169,99.7687270907935,229.09674625949322,81.91558803183969
90.73882893331965,89.25367713917227,67.9574520451678,129.34749706752464,98.793065356279,229.82860092439986,81.8415146850429
91.2944409933188,91.33961834024763,69.59635306532579,128.65416718963442,97.85369134193722,230.45434309796252,81.76941163548572
91.87201513381113,93.54631547862864,71.34022415139509,127.95878298254483,96.95055146851197,230.97436305543556,81.69936277799765
92.47045921804795,95.87661941491368,73.19050297319842,127.26404608331458,96.08361667122323,231.3889920301339,81.63144540864543
93.08868852908304,98.33303673986484,75.14798555812689,126.57261213678218,95.25292827496483,231.69857299491693,81.56574586915227
93.72558249027497,100.91746331824335,77.21276707209489,125.88705032903334,94.45866693330755,231.90349310019775,81.50234399740873
94.37992443268733,103.63101831061931,79.38415715010727,125.20980910870307,93.70117560527846,232.00420794538482,81.44129081302843
95.05036422427204,106.47405565825,81.66063392729711,124.5431813738983,92.98091447243208,232.00130976138988,81.38262306801228
95.73543412461325,109.44637408467449,84.03988390362815,123.88927370792987,92.29840060388126,231.89560858166342,81.32640437925333
96.43357833061647,112.54748497704699,86.51889660245918,123.24999974644781,91.65417688331175,231.6881605036478,81.27273814539872
97.14314513729637,115.77676480746872,89.0940443230348,122.62711106869655,91.04879852246287,231.38024093341042,81.22173536628318
97.86236379318036,119.13341686184587,91.76111996142045,122.02223888646485,90.4827995868036,230.9733101527911,81.17348046990205
98.58936118704422,122.616273443106,94.51534488560937,121.43690513139892,89.95663214506934,230.4689940363351,81.12803499663484
99.32221539133924,126.22357063991583,97.35138197371784,120.87251341716465,89.4706076327024,229.86906837488357,81.08546522610472
100.05899067285041,129.95280977228637,100.26338793307453,120.33037522242553,89.0248598694731,229.17544842817708,81.04584958324976
100.7977238237469,133.8006827569724,103.24508963766111,119.81177830410907,88.61931872637295,228.39020875770296,81.00926113550346
101.53639657736596,137.76299158047345,106.28986828522457,119.31802575593998,88.25368503724366,227.5156389912731,80.97576892217528
102.27295443060115,141.83457647480375,109.39085634573802,118.85039996627606,87.92742426901417,226.55428757341417,80.9454707295122
103.00537354621832,146.0092971553859,112.54100515658739,118.41009011630432,87.63978940098932,225.50894072961876,80.91851029188744
103.73170767666463,150.2800619618746,115.73309506448369,117.99813308745838,87.38984039617345,224.38256744120417,80.89504933871632
104.45008721942435,154.63893367235656,118.95975081058458,117.61537879733835,87.17642896245896,223.17829939811188,80.87523128597154
105.15872362177564,159.07737081256838,122.21350564019951,117.26247326724672,86.99816959544587,221.89943188879673,80.85918614474916
105.85594283257312,163.58656842984513,125.48685515851793,116.93985488110113,86.85344477417574,220.5493880377782,80.84706681378854
106.54019673927488,168.15777054380214,128.77223791877623,116.64776139363772,86.74045894036222,219.1316677605572,80.839061161694
107.21002186259265,172.7824052376965,132.06196901069092,116.38623237409554,86.65729826680925,217.64984169508568,80.8353604007976
107.86399201374812,177.45199096531084,135.34818840334742,116.15508439320973,86.60194689275812,216.10757418324746,80.83612510312524
108.50072889988634,182.1579342978435,138.62285001400258,115.953862892813,86.57226792897352,214.50862791417393,80.84148660640763
109.11896376846757,186.89135244011396,141.87776630075908,115.78180407920046,86.5660011984462,212.85686844944462,80.85156660405451
109.71757727786608,191.64294395887413,145.10470966711028,115.63784488345766,86.58080507134355,211.1562951248182,80.86647495047089
110.29558978598544,196.4028989496735,148.29551023679178,115.52068964545361,86.61430933926138,209.41105947356635,80.88629081724667
110.85216052140173,201.16085511107178,151.44208751293064,115.42889280425676,86.66413782589306,207.62544710477874,80.91107001361699
111.3866255842662,205.90588422701683,154.53643187068266,115.36092724306549,86.72792087753454,205.80389163089944,80.94088044510964
111.89851523089132,210.62647750442156,157.57059557328307,115.31525214389804,86.80334384321431,203.9510701896244,80.97581683340253
112.3875101860138,215.31053197085023,160.5367392876928,115.2903739987769,86.88821635925007,202.07198770945962,81.01597493112988
112.8533887817778,219.9453703494634,163.42722590004834,115.28487223534808,86.98050398211859,200.17194826121488,81.06142399817146
113.29602689971816,224.51780051213942,166.23469334655317,115.29739506172575,87.0783155761897,198.25647172576987,81.11220788241032
113.7154332018387,229.01422158109352,168.95207322795426,115.32666840375869,87.17989669657122,196.33126133761374,81.16835090318258
114.11175121898404,233.42086798970715,171.57261227436595,115.37155835249972,87.28365104527425,194.40220827759663,81.22983738443395
114.48520322864933,237.72421656473048,174.08993217991042,115.43115707490055,87.38815551039063,192.4753524592103,81.29658309042817
114.83602357077027,241.91135064197428,176.49807684780413,115.50480407445494,87.49214195585319,190.55678361865864,81.36844030020991
115.164437193276,245.97012187652086,178.79152186527926,115.59202400758682,87.59447699287264,188.65256511925026,81.44523207158846
115.47067727263571,249.8891976899101,180.96519100922407,115.69245796639184,87.69417731581115,186.7687652491536,81.52676697410978
115.75498730425069,253.65807446644615,183.01449587797842,115.80583642509968,87.79043295062242,184.9115556133659,81.61282058715513
116.01758449616946,257.26702541428955,184.935367454192,115.93195734138754,87.88258685048473,183.08726409688126,81.70312557900084
116.25861299548248,260.7069916943357,186.7242710164739,116.07063873869376,87.97007653018431,181.30234830805804,81.79739311297075
116.47810938421895,263.9694788278807,188.3782360952394,116.22168526717674,88.05238874007199,179.56331876520005,81.89533239526418
116.67597326716354,267.04650073131916,189.8949328258939,116.38490508831065,88.12905399252752,177.87662424316645,81.99663750860127
116.85193907193234,269.9305749390162,191.27276560310187,116.56013922601582,88.19965338304031,176.2485012922084,82.10096717041414
117.00557582117776,272.6147467581019,192.5108965089862,116.74725788836162,88.26379928856177,174.6848059570732,82.20796203671902
117.13634352132757,275.09261076940845,193.60916403574487,116.94615612113466,88.32109928287956,173.1908751399037,82.31728870885938
117.24367784294651,277.3583021471385,194.56796051659316,117.15681026606057,88.37114750416431,171.77148762491402,82.42865545467791
117.32704608210521,279.40645549647746,195.38813047959877,117.37937790271761,88.41355323459318,170.43094848905363,82.54178314620374
117.38597841212751,281.2321668948301,196.07090170031256,117.61425139361958,88.44796198191501,169.1732064903102,82.65637604094428
117.42011261673574,282.8310045991458,196.61784097767145,117.86202453498291,88.47404257045055,168.00188271415172,82.7721337302001
117.42923323118755,284.19907510257246,197.03082229765633,118.12343357265286,88.49148137093106,166.92019854463106,82.88878497661689
117.41325953528042,285.33313752805,197.31201010721162,118.39933107819863,88.50002076040701,165.93087160518448,83.0060938480892
117.37219271382247,286.2308065656071,197.46387521330013,118.69066162261637,88.49950518914021,165.03603396376323,83.12383796239293
117.3060795756373,286.8908231952519,197.4892488540693,118.99839453898302,88.48988474764988,164.2372139118486,83.24180577446585
117.21502992658573,287.3132194498294,197.39139745013003,119.32344066730107,88.47118970041154,163.5353846874904,83.35982162791497
117.09925881393613,287.4992820520324,197.17408122259786,119.66660356071007,88.44353137306982,162.93100992255313,83.47775278144704
116.95909514345375,287.4514608141069,196.84156453935296,120.0285631483551,88.40715556498799,162.4240385611088,83.59547530320451
116.79495594847671,287.1733701767733,196.39856748852347,120.40985189698378,88.36250183562318,162.0138822785157,83.71283719480095
116.60733914914043,286.6698252547095,195.8501792194505,120.81082798079898,88.31020619156077,161.6994000128167,83.82966543301613
116.39684415882157,285.94677842845016,195.20177670020374,121.2316930783895,88.25106352302532,161.47888253887268,83.94580455630762
116.16416992439284,285.0111450774363,194.45895904216505,121.6725416754787,88.18600341080362,161.3500582908061,84.06113020716228
115.91007024051954,283.8706106375827,193.62747594942866,122.13337600654819,88.11607113885206,161.31014278456462,84.17551922909719
115.63531688652287,282.5334744186435,192.71315841438374,122.6140723392697,88.04237482733248,161.35589682071958,84.28881964010137
115.34071971516902,281.0085116915098,191.72186887096217,123.11433644575766,87.96600914521683,161.48366174083253,84.40085817028633
115.02717519456743,279.304837942035,190.65945923997484,123.63368142449038,87.88800754697773,161.6894206789844,84.51146576153188
114.69567329057666,277.43178660190415,189.53174045606826,124.17143764647558,87.80934966536974,161.96892725282353,84.62047761366821
114.34725074544258,275.3987952872354,188.34448747527594,124.72678557031348,87.73098625747498,162.31782643484783,84.72770989300281
113.98295686554161,273.21529780475373,187.103455387765,125.29879639270655,87.6538276689077,162.73167251051495,84.83295845042018
113.60388746991853,270.890662057518,185.81435120098908,125.88645712342345,87.57870314897585,163.2058723158358,84.93603003616934
113.21124979972176,268.43421232589765,184.48276073919584,126.48865623318099,87.50634575501803,163.73566195754088,85.03675981177574
112.80637813346975,265.8553001231589,183.11408334124368,127.10414335690511,87.43741756585808,164.31615425993772,85.13498621456615
112.39070044952012,263.16333132654137,181.71350577678083,127.73151016868857,87.37252583090051,164.94238071591215,85.23051773826062
111.96573108894627,260.3677049289487,180.28599581856992,128.36920724354894,87.31219451641027,165.6092683777416,85.32314018242164
111.53310680497006,257.47772553350313,178.83628982719426,129.01555284555732,87.25682954150614,166.3116026843538,85.4126562885629
111.0945956466777,254.50260784067035,177.36889198599923,129.6687060889625,87.20674510619845,167.0440629393614,85.49890330532276
110.65203890520398,251.4516013579449,175.88812860588416,130.3266419489265,87.1622496268781,167.80135045383236,85.58172824352778
110.20727911899824,248.33411732379938,174.39824586163286,130.98716290184063,87.12370579745823,168.57833143352914,85.6609608571331
109.76213733741581,245.15978747374865,172.90346653954452,131.64793444360856,87.09151518161067,169.37009351747318,85.73642047439
109.31842619731952,241.93850312301052,171.40795707499242,132.30652969161764,87.06608122330559,170.1719214500046,85.80793830489418
108.8779368335645,238.6804159490932,169.91575502180015,132.96048215766984,87.04780685256408,170.9792766105283,85.87535461658453
108.44238215289363,235.3958291171345,168.43073114852908,133.60733031564246,87.03710207019368,171.7877945389631,85.93849424085832
108.01334816667057,232.0950105814941,166.95659929795923,134.24463082239396,87.034359176225,172.59325577436155,85.99716465407518
107.59229791383441,228.78801515684447,165.496930805968,134.86993586719544,87.03991273194147,173.39155536555091,86.05118662214372
107.18059988719804,225.48454965542516,164.05514584462338,135.480747875292,87.05402572609994,174.17873091374508,86.100413506236
106.77952428029332,222.1938673139197,162.63450179466952,136.07448001034535,87.07689608214234,174.9510146151315,86.14471414481478
106.39020862399516,218.92467161384735,161.23810216125622,136.6484648487944,87.10864383954156,175.70482987806537,86.18395270719019
106.013644222863,215.68504217660828,159.86892887236013,137.20002218918924,87.14927448224904,176.43673894523323,86.21800177812926
105.65069697102665,212.48243351950205,158.52988303833757,137.72653046200716,87.19866215884949,177.14339994943015,86.24677068340574
105.30211628307416,209.3237531179904,157.22379446175725,138.22545560226033,87.25657692097208,177.82155131816808,86.27020632421646
104.96850380142318,206.21544633494102,155.95338077165474,138.69436570367773,87.32271746275609,178.46801060070766,86.28827071699823
104.6502790724504,203.16355853996765,154.72119133928973,139.13096332649414,87.39670616053196,179.07966784199365,86.30094241566623
104.34768739187562,200.17381402894574,153.52956622505525,139.53311658149215,87.47805394221682,179.65345238412988,86.30825078039136
104.06083369872256,197.25170091559568,152.3806020059904,139.89887099714568,87.56613528414537,180.1862829073354,86.31029455622043
103.78969177890441,194.4025066779463,151.27611315483855,140.22645298811358,87.66021567716618,180.67503560490934,86.30721759667519
103.5340905840465,191.63128674053394,150.2175956952477,140.5142737590192,87.75952873161538,181.11653878368227,86.29917801926482
103.29374101583751,188.94279654679357,149.20620066278298,140.76092662297611,87.86333872822661,181.5075923386055,86.28635259974723
103.06832311946249,186.34142557558332,148.24270578931825,140.9651694151808,87.9709541557447,181.84506801797076,86.26896183156941
102.85755836703564,183.8311294096121,147.32747265656113,141.12589997708184,88.08172629373273,182.12612126575877,86.24726992714893
102.6612054886856,181.41534516909024,146.460400488321,141.24214395276852,88.19504912897696,182.34838970961513,86.22155727777051
102.47902521312913,179.09691514751677,145.64090342235895,141.3130623996712,88.310336519679,182.51003480515627,86.19210961690985
102.31078848060692,176.87803684744966,144.86793468017316,141.33797765434318,88.42697620268915,182.60964995770027,86.15923763985491
102.15631901837108,174.7602205785392,144.1400503102363,141.31642867092103,88.54430233338803,182.64614218542667,86.12328630046237
102.01550452140773,172.7442402693,143.45546678254138,141.24826059054172,88.66162243942593,182.6186478137047,86.08460704548575
101.88826379943113,170.8300869713226,142.81209142894338,141.1337152854544,88.7782744081593,182.5264954359585,86.0435242430439
101.77452225700648,169.01694365521712,142.20756711946754,140.9734781460666,88.89364942822097,182.36920365332034,86.00033972357942
101.67422031439305,167.30320576255218,141.63935734550202,140.76866427697084,89.0071619370686,182.14649640717013,85.95536605076488
101.58731618432795,165.68656354741847,141.10482701710436,140.52076488608267,89.11821503585712,181.85834034731124,85.90893808423066
101.51375567878347,164.1641242785649,140.60127167277676,140.23158512324562,89.22620509712526,181.50499292832595,85.86139182960224
101.45345233933585,162.73254353210962,140.1259045070942,139.90317133956833,89.33054653266844,181.08702833339612,85.81305377382307
101.40632550507836,161.38816358941074,139.67584174931847,139.53771947159032,89.43067291967317,180.60537929019125,85.76425831879335
101.37235747958321,160.12716205931787,139.24812696353976,139.13749665195084,89.52601570989759,180.06144267376988,85.71535532390122
101.35159844619604,158.94574188836003,138.83981446829452,138.7048069564162,89.61599226627857,179.45715825164902,85.66668071794324
101.34412423692426,157.84039954035845,138.44809809719717,138.24197783708325,89.70000569835395,178.79495409348928,85.61851875666348
101.35000723653232,156.80817877845928,138.07043844221803,137.7513255500682,89.77743827166259,178.07760129192715,85.57109838583877
