HandOpen,HandClose,Wrist Flexion,Wrist Extension,Supination,Pronation,Rest
110.05283287034023,136.03493714815497,65.23638376468597,65.93959525008997,55.97834531869,103.15584683488521,87.31651995165532
109.85509378168553,135.27396358863814,64.65716549479264,66.14441041717262,55.74527019634607,102.5679023399672,87.33318927643197
109.65844402375812,134.47000410699505,64.09067099535774,66.37587623717371,55.5263761499674,101.994291846521,87.35200209245924
109.46409471226119,133.62294390309137,63.53761638598206,66.63313130615586,55.32176177879223,101.43518404799956,87.37292096979536
109.27324736824205,132.73284596232398,62.9987475975444,66.91526682043757,55.131478409012104,100.89071252879286,87.39585969089727
109.08709648414815,131.7999559737522,62.474813449862886,67.22132102939666,54.95556339888901,100.36097391284838,87.42071915661441
108.9067881293327,130.82466893748204,61.96655571530816,67.55027542440934,54.79404836967312,99.84599208569036,87.44741381029952
108.73336928183335,129.80750448449726,61.47470059804581,67.90102963149711,54.6469373465668,99.34570078533709,87.47585437626677
108.56776629796367,128.7491124970864,60.999943779822644,68.27237993852235,54.51419513537579,98.85996256532009,87.50591881875428
108.41077559166888,127.65028183032165,60.542939813531156,68.66303353775152,54.39577312048654,98.38858373973598,87.53745918617602
108.26303843066822,126.51192255962485,60.10429945365216,69.07164083224204,54.291644835290015,97.93129444152697,87.57033548213893
108.1250277271995,125.33503397823652,59.6845825557262,69.49680384117636,54.20180930899592,97.48772271979173,87.60442523008537
107.99709820112147,124.12069418601784,59.28427857301119,69.93705977418507,54.12626842365803,97.05740428471918,87.63959758801545
107.8795805514098,122.87008862830022,58.903787611943415,70.39087467455035,54.06501796785713,96.63981681078091,87.67570056683915
107.77283540230117,121.58456055579529,58.54342062218351,70.85665838632747,54.01806098486227,96.23439205278659,87.71258653924092
107.67723224903729,120.26565010157718,58.20341147644112,71.33277457911052,53.98541090086053,95.84049468273511,87.75013388667463
107.59311911137661,118.91510050046256,57.88391490894888,71.81752745678317,53.96706660928737,95.45741166481193,87.78822759165803
107.52085660815851,117.53483372277297,57.58498462613118,72.30914483815255,53.96298786285879,95.08438788292189,87.82672806150588
107.46088797074687,116.12691026360805,57.30655616338674,72.80578215466033,53.97310333404795,94.72067971870409,87.86547479492766
107.4137528133964,114.69348435796897,57.04845637301928,73.30553467067942,53.99733668603493,94.36557292176735,87.90431492505544
107.38001929552703,113.23676394548173,56.81042632788336,73.8064310344935,54.0356095125567,94.01836397302478,87.94310810067766
107.36019686617584,111.75898944339575,56.59212805197805,74.30641349793004,54.08781546425925,93.67835125496597,87.98170018987776
107.35468769088888,110.26243882521888,56.39313504175013,74.80333717271455,54.15380573073872,93.34485308238125,88.0199095292264
107.36377088410016,108.74944027700396,56.21293067550868,75.29500424696263,54.23341359612177,93.0172178236213,88.0575449454674
107.38758251266793,107.22236278404473,56.05091860945117,75.77920827108488,54.32648879538146,92.69480152602121,88.09441881118221
107.42609887885735,105.6835871173631,55.906425273433506,76.25375484560008,54.43289753948334,92.37694177574355,88.13032523190743
107.47916733924546,104.13549061103964,55.778689616085884,76.71646615399618,54.55249626144384,92.06296703281626,88.16501091283432
107.54657089166308,102.58045880296729,55.66686710876875,77.16520358105106,54.68512161672477,91.75223058529932,88.19818205723999
107.62805547446709,101.02089499290223,55.57006532311318,77.59790934268669,54.830604231169616,91.4441226986126,88.2295373531349
107.72330216167369,99.45920114519326,55.48738143059843,78.01263189769128,54.988771266050385,91.13804876632628,88.25877782577312
107.83189976798332,97.89774877959968,55.41790530881111,78.40752249063956,55.15942127164669,90.83341652632184,88.28558438475768
107.95335358132402,96.33887692928779,55.36069672941419,78.78082956681953,55.3423031689613,90.52966692607113,88.30960694322904
108.08710146230176,94.78491431812725,55.31477394897532,79.13091062053093,55.53713192252457,90.22631864946287,88.33048691267196
108.2324998906188,93.2381841279799,55.27913476231095,79.45624665625203,55.74362172888842,89.92297406296679,88.34787867393004
108.38879897897559,91.70097488274466,55.25279127093736,79.75544101178974,55.961491488051344,89.61928889495357,88.36143802474145
108.55515563501292,90.17551134293267,55.23478451194477,80.02721675712434,56.19043821847518,89.31495302009759,88.37079947031968
108.73067869370342,88.66395661944898,55.2241777895135,80.27043281743171,56.43012095823598,89.00970052284893,88.37558627685351
108.91444527234432,87.16842804626872,55.2200525172127,80.48409998308189,56.68017995236125,88.70331609538474,88.37545062865286
109.10546702737116,85.69098915611228,55.22150998812871,80.667366392273,56.940260359582986,88.39561270446694,88.37009416737172
109.30265888420635,84.23361670691361,55.227663481876625,80.81948111856524,57.21000281451443,88.08640636090436,88.35925249026869
109.50486044065704,82.79818014926879,55.237619944709124,80.93977622653789,57.48901321800034,87.77552444474424,88.34268527904685
109.71088412586306,81.38645342476045,55.250472483149395,81.02769409432665,57.776850818753125,87.46283611401178,88.32019419675555
109.91952755939721,80.00013101643513,55.26532054613154,81.08283635548216,58.07304056779035,87.14825954300969,88.29163466559407
110.12954693373935,78.64081536752752,55.281302486404826,81.10498290778249,58.37707777057717,86.83173437445319,88.25689464646172
110.3396468122131,77.3099868582896,55.29760771817578,81.0940666382128,58.688408013856595,86.51320253492511,88.21587039848966
110.54850757562835,76.00899844041137,55.3134633222079,81.0501353370648,59.00640860215095,86.19263411667198,88.16848541488059
110.75480650422152,74.73911219922869,55.32812507166979,80.97332878234474,59.33040062212487,85.87007058847658,88.11474124746458
110.95720086906353,73.50154011788584,55.34089320573039,80.86386826639662,59.659676801052974,85.54563175183014,88.05474002773876
111.1543126247677,72.29744487657415,55.35113307161989,80.72204312947794,59.993507162060574,85.2194859940546,87.98866009528636
111.34476459359595,71.12791165531651,55.3582730677991,80.5481988233504,60.33111879965346,84.89182964010507,87.91673120260343
111.52724197121212,69.9939361774336,55.36178798406737,80.34274560629774,60.67168678663109,84.56289341624398,87.83923872133188
111.70051261104712,68.89644181019241,55.36119600875089,80.10618060403485,61.014359592959764,84.23294488775633,87.75652714196379
111.8634015009761,67.83629084260076,55.35607246666237,79.83909145904762,61.358292512585564,83.90226423791036,87.66897281272935
112.01477676966036,66.81426360372829,55.34605485937818,79.5421339626836,61.702650237403496,83.57112117181185,87.57694934635073
112.15357094354427,65.83102906463769,55.330826592811455,79.21601178978374,62.04658342340195,83.23978698969422,87.48082812524285
112.27879511135006,64.88714535433341,55.31010130411447,78.86147950369593,62.38921685760444,82.9085621334562,87.38100647945923
112.38951602087675,63.98308731241762,55.28363257525717,78.4793536027151,62.72966253161487,82.57777386093834,87.27791390816824
112.48483581517401,63.11926086152215,55.25123752519096,78.07050629871,63.06703093358199,82.24774426419202,87.17198249160778
112.56392207482591,62.29598541248193,55.21280106189047,77.6358476764156,63.40041988467636,81.91877309354498,87.06362310930491
112.62606101944064,61.51347193373713,55.16825419563995,77.17632543020592,63.72890033422825,81.59115680335724,86.95323430709188
112.67066873881218,60.771826106116436,55.117555489838125,76.69294903584363,64.05152774929881,81.26521135589019,86.84121544790793
112.69725839528073,60.07106520104107,55.06070055577969,76.18680910499485,64.36737045757233,80.94126421423876,86.72795170582589
112.70542344755161,59.411118170917966,54.997746508553,75.65907014421764,64.6755203521409,80.61963416652206,86.61378867190797
112.69486044946852,58.79180939956798,54.92881780697421,75.11095732630639,64.97507942194841,80.300638660566,86.49903537793827
112.66538439550057,58.21285413420215,54.85408765404017,74.54376814830204,65.26515769204694,79.98462140875498,86.38399048182464
112.61690065226024,57.673870940058,54.77376274103084,73.95889837902911,65.54490721025486,79.67195579183561,86.26894844265404
112.54937112427311,57.174385715865846,54.6880878707347,73.35784344716916,65.8135633126057,79.3630135141245,86.15417625580534
112.46282784390537,56.713815443305556,54.59735313554995,72.74216850262026,66.07045137801835,79.05814253546221,86.03990098034485
112.35741561041714,56.291454755051056,54.501883909044174,72.11348553212419,66.31496523916937,78.75769060246512,85.92632852757403
112.2333985737451,55.906492383227665,54.40202506483802,71.47346671170676,66.54655529659878,78.46204618994562,85.81365961813424
112.09111711970375,55.55804761870587,54.298142119955806,70.82387098449989,66.76473691748085,78.17164317281909,85.70207160363323
111.93094996374971,55.2451880138207,54.19063220688742,70.16654302379712,66.96909272903596,77.88692951790652,85.59168996853184
111.7533217367449,54.96691609987195,54.07991750985378,69.50338748023354,67.15925197962359,77.60834679529384,85.48259406765037
111.55872530419224,54.72215943324433,53.966417159177105,68.83635220658151,67.33486858961376,77.33633754736525,85.37485304326025
111.34771082478775,54.509794360596835,53.850524780203735,68.16742425831315,67.49562600339902,77.07134735081978,85.26854201256121
111.12085875455857,54.32868408987024,53.73261205282532,67.49861176584236,67.64125867385016,76.81379771597473,85.16371952198031
110.87878986070548,54.177689483489075,53.613042072860786,66.8319047501868,67.77155475858828,76.56405422331329,85.06040684019567
110.62220505816818,54.05564984581997,53.49216488694952,66.16924226836743,67.88633324916155,76.32242238197102,84.95860678857017
110.35189367056682,53.96137778821436,53.370298968742674,65.5125076167748,67.98542851760536,76.08916122361946,84.85834192557226
110.06869129423963,53.89370064760635,53.2477245878781,64.86353417530765,68.06870434088495,75.86447894654182,84.7596649071184
109.77344066647471,53.85151817665057,53.124694342588874,64.22409137704598,68.13607384762277,75.64850483011136,84.66264009841451
109.46700546124802,53.83382030761435,53.00143858072449,63.595853617834386,68.18749426054286,75.44127525652075,84.56734115399365
109.15031154286686,53.83966354614885,52.87815371029762,62.98037978544756,68.22294911881798,75.24276312468503,84.47387559508365
108.82435117662199,53.868155392754105,52.75499560076901,62.37911094233003,68.2424553716476,75.05292217436805,84.38239371016026
108.49014396973605,53.91846545244766,52.632101520846774,61.79336532688499,68.24609656784372,74.87169681235339,84.2930580560421
108.14871105142316,53.989826805913225,52.509622934141284,61.22431711419886,68.23404175748165,74.6989998271404,84.20600908248015
107.80108633128839,54.081503640125455,52.387733516445756,60.67297607407516,68.20652889000324,74.53470290658763,84.12137208045768
107.44832080868792,54.19275559640243,52.26661230993836,60.14019470936869,68.16384030937675,74.37865568264212,84.03929489125696
107.09144805169495,54.322834480622475,52.146435029108716,59.626699165020966,68.1063022389359,74.23069958383653,83.95996195551652
106.73145012656639,54.470999480605194,52.02739030532904,59.13310929403526,68.03429919846042,74.09065284958396,83.8835669614704
106.3692737900953,54.63651176089963,51.909698504778845,58.65993185879414,67.94827090748934,73.95829788950591,83.81028561182467
106.00587427467975,54.81860368189975,51.793606680821185,58.20755448679882,67.84868581734207,73.83340845060866,83.7402770041953
105.64222309322149,55.016458778066,51.67936816153391,57.77626887000763,67.73602199466717,73.71579349525291,83.67368750237523
105.27927301998805,55.22922829233089,51.567231738098585,57.36630760349889,67.61077692988407,73.60530597473665,83.61062774929017
104.9179352948128,55.45606146702377,51.457442800016004,56.97785687881668,67.4734847680497,73.50181571283272,83.55114404677661
104.55909428564331,55.696108916388205,51.35023916724107,56.61103736128444,67.3247095921528,73.40519245106516,83.49522524152731
104.2036180654509,55.94849980229723,51.245835358505886,56.2658812904822,67.16502113346097,73.31531738637962,83.44283743805893
103.85233093128309,56.212330037543616,51.14441260964992,55.94233094670634,66.99498403312738,73.23208999237298,83.39393750703
103.50598244237703,56.4866737076886,51.0461317906397,55.64025114579211,66.81516768363883,73.15540486278667,83.34845416913052
103.16526186229666,56.770587981207825,50.95115531325602,55.35943259384081,66.62614992708309,73.08512576481274,83.30628210673547
102.83083818812901,57.06309209934955,50.8596484939362,55.09958833852772,66.42849886568656,73.02109513702757,83.26731351298919
102.5033642934533,57.36314259139317,50.771758024236426,54.8603617852373,66.22275729987615,72.9631669495078,83.23146727793232
102.18343938193692,57.669632494267965,50.68759611668455,54.64133961484934,66.00945653489657,72.91121566095289,83.19867671300226
101.87158725626442,57.98140758173808,50.60725274117014,54.44204890857867,65.78914280031803,72.86510951728351,83.16886043124205
101.56827703676298,58.29727097186006,50.530821782077545,54.26193812575371,65.56237907373861,72.82469327322565,83.14192604071773
101.27394150130037,58.61597109292657,50.45840829558923,54.100362263276104,65.32971945582636,72.78981859626282,83.11780421372866
100.98895676178034,58.93620346927443,50.390113290952975,53.95659157219405,65.09169178173984,72.76039292756113,83.09646210459113
100.71362327896986,59.25664497923077,50.32602263832083,53.8298374206985,64.84881272159636,72.73638859252678,83.07787648939116
100.44820115606474,59.575990926689975,50.26621024548649,53.71926713569101,64.60161300726499,72.71780949020096,83.06200699366508
100.19297137984502,59.892958994686616,50.210736992874814,53.62399882800472,64.35063713790996,72.70466947278878,83.04880684105522
99.94825022619261,60.206273174639506,50.15963473170619,53.543103065882526,64.09642168847904,72.69701284792507,83.03825212125274
99.71435077952454,60.51467094602035,50.11289410991786,53.475633735873124,63.839484282653046,72.69494082587141,83.03034487716968
99.49155556690135,60.81694274053052,50.07047662610574,53.420667593880594,63.58033067095948,72.69859868812877,83.02509068158963
99.28013043694014,61.1119617123848,50.0323377394987,53.3773159557471,63.319454929374935,72.7081379787313,83.02249572019164
99.08033516433886,61.3986724072849,49.99843030347295,53.344707883966926,63.05731982388866,72.72369958002335,83.02259364461182
98.89239341813375,61.67606109419944,49.96868471005955,53.32197925507055,62.79434152705432,72.74542198602292,83.0254568143645
98.71645733779343,61.943146322767504,49.94299585794115,53.30828795705059,62.53090566973633,72.77343600954738,83.03116490986935
98.55261835187552,62.19899253212828,49.921240189797366,53.30283335629704,62.26740056875258,72.80783105512891,83.03976705856095
98.40094760278708,62.44271650925433,49.90330479986656,53.30485248737577,62.00422812001045,72.84863145334512,83.0512875617052
98.26150391422702,62.673472729275865,49.88909472654921,53.313605964030955,61.74178432726105,72.89581790464361,83.06576671299395
98.13429726663193,62.890445960244314,49.878519451054316,53.32838458388072,61.48044665697261,72.94936698236768,83.08327846932643
98.01926133313249,63.09287714513359,49.87148702865195,53.34853269097964,61.22059683301347,73.00925580145054,83.10390396842881
97.91626646411542,63.2800997116331,49.86791267669902,53.373455656710895,60.962654114295994,73.07543086542215,83.12770412865173
97.8251354647542,63.45154577868679,49.86772004970388,53.40260163343643,60.70707734996558,73.1477896909078,83.15472395178107
97.7456247420008,63.606722201419544,49.87082433514831,53.435446977890344,60.454340641426064,73.22619909384197,83.18500354826956
97.67740237655168,63.74519487022344,49.877118425204,53.471512528697644,60.20492224248839,73.31051616379443,83.21856156346486
97.62007317729004,63.86660273248909,49.88648596489323,53.51039377149907,59.95931756094133,73.40057628369948,83.25536709567841
97.57323114185238,63.970675326851726,49.89882893470103,53.55176639915448,59.71804420917645,73.49616803630728,83.29534406312119
97.5364748872839,64.05722193538563,49.91407531269757,53.595364172498805,59.4816187707082,73.59703743917828,83.33840581009267
97.50937553746424,64.12610447371192,49.93215948793839,53.64096334988073,59.25053131748262,73.70291771297374,83.3844688437937
97.49145218161478,64.17723031526175,49.95300447052375,53.688392071271224,59.02524846529025,73.81353944411097,83.43342723182067
97.48218704803452,64.21057108835349,49.976527962812334,53.73754134171768,58.80623154107231,73.92860495324567,83.48513328375996
97.48104404099091,64.22617466278597,50.002656159573746,53.78835066355387,58.59393384655064,74.04776725358656,83.53942463174472
97.48745183055262,64.22414923055847,50.03131855985289,53.84077914391916,58.38877304836902,74.17065163711763,83.59617002658528
97.50077827693323,64.20464338753612,50.06242886462916,53.894789747141026,58.191114507906086,74.29689599927349,83.65527852424788
97.52034583916348,64.16785345497344,50.09587802804145,53.950346313553865,58.00129270142523,74.42615781472614,83.71667439439338
97.54547589198609,64.11404743492666,50.131544417216205,54.00740088438111,57.81964710632953,74.55808510405089,83.78029132223274
97.57550294010137,64.04356873526994,50.16929949618036,54.065868488478614,57.646528072612476,74.692302009026,83.84609977103813
97.60974385777797,63.95681267824747,50.2089967744061,54.12561696500773,57.48227102397204,74.82844015328634,83.91411931837598
97.6474729866317,63.85420958446574,50.25046248205786,54.1864921684508,57.32717911104423,74.96618135843656,83.98438542864966
97.68794462979177,63.736236219860935,50.293509107060885,54.248355514351616,57.181536908855456,75.10526090073377,84.05690520486597
97.73043600236112,63.60343049581699,50.3379589734969,54.31109300947707,57.045631063091356,75.24543846093671,84.13165099174756
97.77425602734783,63.45637870484261,50.38364716225538,54.374594060249215,56.919746841842716,75.3864855796203,84.20858596640828
97.81872122461048,63.295689170380385,50.430399935786646,54.438737266779974,56.804151835855926,75.52820155490265,84.28767058192464
97.86314959504054,63.121988945998645,50.47801753601537,54.503402761731174,56.69909842744444,75.67041813398531,84.36883013188819
97.90688556753916,62.93594597596751,50.52628485341192,54.568486771668724,56.60483990214318,75.81297207511433,84.45192383427265
97.94931127093567,62.73828030388464,50.574995604071546,54.633891595234516,56.521626117321354,75.95568352312188,84.53675544636975
97.98981841555734,62.52974508491608,50.6239581288667,54.699502602675345,56.449673348751084,76.09837838713331,84.62310736041373
98.02777806267255,62.31110502970728,50.672981076056665,54.76518039278288,56.3891450285393,76.24092821972158,84.71075037359113
98.06255447225239,62.08314341936367,50.7218645897297,54.83077009539648,56.34017085768181,76.38325326535376,84.79942709343244
98.09354780346924,61.84668468070019,50.77040483030692,54.89610449115189,56.30287917885709,76.52528804145511,84.88885328396402
98.12020787755114,61.60259493504005,50.8183930659026,54.960989736181624,56.277398833544005,76.666962293547,84.97874780804682
98.14200334527641,61.351754064815424,50.86559967420926,55.02519518961094,56.26383187341301,76.80822381001538,85.06884842415872
98.15839481826158,61.0950334164864,50.91176280178232,55.08847172644938,56.26223601990225,76.94906261814884,85.15889070835013
98.1688534411748,60.83330284242577,50.95660435500771,55.15058379229915,56.272630454572834,77.08949346333326,85.248586108863
98.17290038921021,60.567445012338915,50.99986153927278,55.211318118290095,56.29499702639006,77.22951955927788,85.33763870633854
98.17011451693313,60.298345033077915,51.0412991125889,55.27046455769717,56.32925959546738,77.36912773846403,85.42578217804393
98.1601078857742,60.026864264950376,51.080693211075726,55.32780240711105,56.37526816358706,77.50831285038173,85.5127878982569
98.1425178693553,59.75383594670905,51.117815546630716,55.383112585672414,56.432816644666424,77.64708253947865,85.59844443628216
98.11702997487971,59.48009168319946,51.15244270666055,55.43619405715128,56.501675374444716,77.78542439478774,85.6825564368286
98.08338874177865,59.20648147578166,51.18437616609614,55.486857829460114,56.58159624474733,77.92327874193627,85.76497313184767
98.04137173518251,58.93385734217533,51.21344318863927,55.53490966539187,56.67228663251973,78.06055799996209,85.84560041415905
97.99076297299578,58.66304115047523,51.239480610154146,55.58014948965998,56.77339303696349,78.19718720871234,85.92437120733895
97.9313671168212,58.394818991194605,51.26233066011735,55.62238701971201,56.8845230534279,78.33311006644536,86.00120992483181
97.86304556406976,58.129968947464874,51.28185642910671,55.66144748062357,57.00527974313259,78.4682591186674,86.07603363463843
97.78572410035171,57.86928202366781,51.2979507425604,55.6971574798527,57.135265315689836,78.60254786544942,86.14877667166446
97.69937024370277,57.61354457952712,51.31052200991484,55.72933674622686,57.27405714397334,78.73591746219671,86.21939251080393
97.6039860181829,57.363503035649615,51.319477907225256,55.757822024104485,57.42119523849392,78.86839231329681,86.28782959049305
97.4996283037646,57.11985414084745,51.32473249665085,55.78250526059129,57.576194511684854,79.00008403412767,86.35402462710346
97.38641526451366,56.88326928499717,51.326226927501374,55.803344681389206,57.738553137235286,79.13115635623434,86.41792712166747
97.26449592699437,56.65441501823926,51.32393321223629,55.820345354230874,57.90773622392372,79.26180867051622,86.47951489650589
97.13402025108643,56.43393894580261,51.31783597347183,55.833547772113384,58.08315729051369,79.39228883181379,86.53877412380035
96.9951539920383,56.22243965548619,51.30792035464749,55.84304629052319,58.26418745693019,79.52289083786589,86.59567387714488
96.84812062156554,56.02045923270886,51.294186294239054,55.84901109401651,58.450180524291014,79.65391713664617,86.65017499654516
96.69321172194309,55.82850249335967,51.27667050693534,55.85167993980323,58.640477047126424,79.78564683436663,86.70226071502304
96.5307523019095,55.64704750130478,51.25544643721603,55.85132828301604,58.83438243377028,79.91834909505155,86.75194210621784
96.36107227143026,55.47652631860049,51.23060592764235,55.84825148265382,59.03115747452515,80.05231436002066,86.79923284349498
96.18452472102243,55.317303897188246,51.2022505015497,55.842766086198345,59.230048494320414,80.1878494318243,86.84413875521619
96.00152226722443,55.16969093692478,51.17050024500774,55.835205781916386,59.43032863386862,80.32523703813952,86.88668062960932
95.81253759943783,55.03397885035945,51.135499136793214,55.82589829008466,59.63130537613344,80.46471168177301,86.9269096181789
95.6180728278843,54.91045166691145,51.09740233122021,55.81514132308262,59.8322993019893,80.60647767909494,86.9648831299839
95.41865043265423,54.79936224368498,51.05636219104164,55.803198001629404,60.03263657982609,80.7507318172595,87.00063043419534
95.21483725338693,54.70090997419767,51.012535476153886,55.79030189775875,60.23166811433506,80.89764782067432,87.03415517982144
95.00725284538282,54.61524790650842,50.96610210667173,55.776648753857266,60.42878236069978,81.04734037266262,87.0654682947339
94.79653534187536,54.54249644162783,50.91726606774528,55.76237670248426,60.62338890582518,81.1998555243229,87.09460041139398
94.58330718250136,54.4827310470548,50.86623492542027,55.747561068615916,60.81489690317381,81.35518897140356,87.12158082962483
94.36819182443341,54.43595511569965,50.81320904502267,55.73223774346567,61.002719771908204,81.51328984887259,87.14642650305977
94.15186238643936,54.40209536875405,50.75840192923295,55.71643352285882,61.18629625912562,81.67403279825301,87.16916066629268
93.93505516090917,54.38102583010157,50.702069453467956,55.70017289813303,61.36509415821549,81.83719424193426,87.18982214828313
93.71853056298293,54.37258441965921,50.64451370022065,55.68346727102149,61.538591141451704,82.00246904293417,87.20843712689094
93.50303893118415,54.376559171127155,50.58606430879785,55.66631764453659,61.706264889839,82.16950801101987,87.2249862052287
93.28933743755454,54.39266945610098,50.527065454074275,55.648733415868534,61.86761618799306,82.33792822645,87.23941379268659
93.07822575242292,54.42057549106319,50.467875607690544,55.630737703901154,62.02220171980876,82.50729320110418,87.25166944486807
92.87054106551251,54.459905949783696,50.40886159751244,55.61234858482121,62.16963747327212,82.67710824742686,87.26172513470702
92.6671180558533,54.5102657875229,50.35037889390082,55.59356578011914,62.3095752157224,82.84684940406402,87.26954778333456
92.46877129130081,54.57121590214404,50.29275928089288,55.57438885145626,62.44168866460344,83.01598571310228,87.2750688115965
92.27631409484584,54.642258256688805,50.236327523599044,55.55484737748905,62.56568283842147,83.18396240924179,87.27819313334788
92.09056496801256,54.72285084388148,50.181430965826955,55.53500554592714,62.681300078722316,83.35017341209459,87.27883262710186
91.91231460053598,54.81243069062163,50.12844472583934,55.51493938358135,62.78830265294428,83.51396668018624,87.27691553192957
91.74229486898709,54.91041259726221,50.07774601045068,55.494720881198205,62.88645279842029,83.67467501195671,87.27236491767758
91.5811929467302,55.01617071475385,50.02968857564717,55.47443076904853,62.975518665948506,83.83162785622923,87.26509048558475
91.42968371048313,55.129035343957675,49.98460132561599,55.454178050935475,63.05529575217632,83.98413039794879,87.25501212192061
91.28842436234561,55.24831108330236,49.94279838922639,55.434094618681,63.12561025439608,84.13144750852196,87.24207672030983
91.1580161344626,55.37328708527864,49.90457496686777,55.414314335187335,63.18630001652792,84.27282681913256,87.22623886687654
91.03898952125199,55.50322313893593,49.87019110530005,55.39497039961031,63.237208528639805,84.40753982436189,87.20743430779115
90.93182742851126,55.63733772300029,49.83986759379271,55.37621362707939,63.27821595000593,84.53489298196284,87.18558876957567
90.83697745293057,55.77482719251887,49.81379902882759,55.35822009901352,63.30927728808136,84.6542053302939,87.16065088266006
90.75482462945189,55.91490114782124,49.79216185741055,55.34117345407132,63.33042437503512,84.7648008955301,87.13260044328794
90.68566385428892,56.05679465736105,49.77510397630916,55.32524803679358,63.3417383240399,84.86604392139448,87.10142392038071
90.62971565549398,56.19975149671928,49.76273505452481,55.31061957810547,63.34333326166708,84.95737956821473,87.06710089071817
90.58716181848372,56.34301478402733,49.75514052637094,55.29748731066555,63.335364408762196,85.03833280808666,87.02962197825465
90.55814624793517,56.485848213950824,49.75240546251333,55.28607195659523,63.31803377891556,85.10847912369618,86.98900320491728
90.54274354757817,56.62756185538589,49.7546165588363,55.276587397306194,63.29157415318726,85.16743533109826,86.9452681657734
90.54094857998741,56.76750870531023,49.76184216393938,55.269220339252584,63.25623114522671,85.2148779314704,86.89842700138615
90.5527003293646,56.90506283774897,49.774117632763286,55.264142064744085,63.212270134554316,85.25054917637094,86.84849429588985
90.5778930475582,57.03961825814238,49.79144560799321,55.26153262520685,63.15999643772553,85.2742306155621,86.79553056110514
90.6163489866623,57.170618078343516,49.81379362303559,55.261581572651046,63.099753926413086,85.28571885075935,86.73965425557425
90.66779432677812,57.29757783275346,49.84107917906359,55.26446423421716,63.0318979121368,85.28484372481678,86.68101797173262
90.73188250951897,57.42007322035684,49.873160896453825,55.27032323171461,62.956778899381696,85.27151090942571,86.61979637302485
90.80823900063442,57.53771104047658,49.909854068646204,55.279267364924344,62.87476378197699,85.2457133515012,86.55620447721189
90.89646903811648,57.65012306159907,49.95095480187292,55.29136928648841,62.786269315878776,85.20750090995392,86.49050675507668
90.9961278941983,57.75699007468147,49.99624273663029,55.30664995259526,62.69176528166158,85.15695900073385,86.42298778399872
91.1067075729566,57.85806019597132,50.04546207242931,55.325068453156895,62.59175007521323,85.09423107971028,86.35391395287381
91.22765862661218,57.953132448668256,50.098311534451774,55.346537055030694,62.48673734935781,85.01955166212196,86.2835307924416
91.35840334917255,58.042024176267745,50.15446420950531,55.370946585497116,62.377265412374186,84.93324257942247,86.21208821935986
91.49831075315645,58.1245626563036,50.213598849933014,55.398170994144856,62.26389980600594,84.835684346514,86.13984572614129
91.6466699918063,58.200609877503744,50.27540952359205,55.428049180414064,62.14720856606545,84.72730853524234,86.06704688198677
91.80271047449531,58.270084805045755,50.33959294782561,55.46037733427766,62.02773185564155,84.60861493803297,85.99390593645975
91.96565196381404,58.332951470312715,50.405840316881296,55.494937115481896,61.90597855755695,84.48017201927587,85.92062784240154
92.13472278288397,58.389188549098876,50.473842435221,55.5315378386332,61.78244561815982,84.34258292197258,85.84742460209722
92.30912909024512,58.438781051037616,50.54328925264493,55.57003059306739,61.65762447208978,84.19645545857729,85.77449487293724
92.48802719783198,58.4817445463386,50.61385321480528,55.61029334479683,61.53198190819857,84.04241498263809,85.70199250961005
92.67054470520453,58.51814610705897,50.68517598215455,55.65222224142115,61.405948989490426,83.8811369546964,85.63002810347761
92.85582518256128,58.548090735931645,50.756880788359105,55.695740298439695,61.27994735213676,83.71334524157041,85.55869651516998
93.04303890370309,58.5716913411113,50.82859863126669,55.740797888357086,61.15442725066677,83.53977157824868,85.4880842612018
93.23135743174603,58.589064119189054,50.899976323064166,55.78735093906598,61.02987127510228,83.36112788499621,85.4182481532637
93.41994372817493,58.60035760752095,50.97066038766078,55.83534217388952,60.90676560049719,83.17812502769138,85.34920703114655
93.60797599532728,58.605775895677596,51.04028510593672,55.884713338500696,60.78558367176639,82.99150393682496,85.28096453523524
93.79466290483633,58.605563427602476,51.108487740729586,55.93543329081241,60.666804141011625,82.80202922357991,85.21352554877433
93.97922120896014,58.5999708664351,51.17493566343887,55.98750385051745,60.5509327169292,82.6104560412614,85.14687713107183
94.16085096853641,58.589246170051425,51.23933263933412,56.04093828933906,60.43849386950623,82.41751778306131,85.080962359262
94.33875427179288,58.573662230018336,51.30140187689178,56.09574642660073,60.330005889379876,82.22393992985745,85.01569072643314
94.51217939401474,58.553542411886866,51.36087531752539,56.151948528496085,60.22597392356553,82.03043937023703,84.95097578590034
94.6804333401647,58.52924961417663,51.41750472608788,56.20959458102757,60.126899553506185,81.83769250407471,84.88674982043679
94.84285628592966,58.50115909844766,51.47107466206235,56.268755217337684,60.033275120301354,81.64631094673312,84.82294337562107
94.99880896539366,58.46965426943545,51.52139601987899,56.3294911409305,59.94555581146231,81.45686194832545,84.75947222602323
95.14769386847969,58.43514299451502,51.56829369180743,56.39183506538157,59.86414457343013,81.26990735968063,84.69625488695098
95.28896803578566,58.39805854125546,51.611614689762845,56.45579545568244,59.78941662407903,81.08600666180074,84.63322780277035
95.42211787895351,58.35883423267636,51.651250362939415,56.52135690537234,59.72175608417531,80.90568274306767,84.57032708509092
95.5466331052662,58.31788524749569,51.68714260652122,56.58846168356316,59.66155835928071,80.72940379181152,84.50746007146115
95.66202588153861,58.27562419146035,51.719267235274685,56.65699402876607,59.60919881088324,80.55761064232775,84.44451040572237
95.76787438949458,58.23248647103733,51.747619967882116,56.72679045031677,59.56500994379509,80.39075216690141,84.38137176449919
95.86383212696029,58.18892621620888,51.77222453491335,56.79766043362311,59.529289259367694,80.22928189932368,84.31796225275177
95.94959739046935,58.14538834034391,51.79314824239418,56.8693856600396,59.50231211420788,80.07362914515905,84.2542070427625
96.02489518015157,58.10229911212433,51.81049879310364,56.941697825037345,59.48432001583497,79.92419134709027,84.19003195008742
96.08949446098848,58.06009000451796,51.824405148320565,57.01426842367769,59.47550006892813,79.78135274165008,84.12538933007684
96.14322131654684,58.019217518999724,51.835007340017334,57.08673184546746,59.47598982691176,79.64548771907212,84.06027804774375
96.18593706875056,57.98014507804056,51.84246052178273,57.15871891356698,59.485900526800876,79.51692997577176,83.9947242296182
96.21751443752905,57.94330549683115,51.84693281529264,57.229865067993416,59.50531946308023,79.39594411090187,83.9287503608186
96.23785733022129,57.90908863018943,51.84858688119083,57.29979663966242,59.534282590151946,79.28273700753621,83.86237820013334
96.24694461976374,57.877864701017245,51.847564378592246,57.368127131214145,59.57275409651515,79.17748906964721,83.79565720723343
96.24483890372744,57.850003845050054,51.8439928413744,57.43447191338445,59.62064134355628,79.080356179919,83.72867033899333
96.23165439793843,57.82585836201981,51.83800166683753,57.498457669432135,59.677822616575924,78.9914365121056,83.66150918876632
96.20753721363336,57.8057270387735,51.82971926089048,57.55971277306868,59.74414764143456,78.91075005507024,83.59426501100695
96.1726815060788,57.789845456293484,51.819250526003245,57.61786002824975,59.81941278742106,78.83826428181143,83.52705736191994
96.12734057942302,57.778412618221964,51.806663100653665,57.67253747704324,59.90335212340656,78.77393351250603,83.4600575562551
96.07180099122093,57.77161563681409,51.792002683064474,57.723433480052776,59.99566681800297,78.7177011114406,83.39346815693634
96.00635504240677,57.76961787812665,51.775320736832114,57.770297581508906,60.096063549493124,78.66947200181791,83.32748450855111
95.93132075081382,57.772527670766216,51.75668283003157,57.81292026674559,60.20426127247206,78.62910345182206,83.26228670359163
95.8470898884425,57.78039183295145,51.736157484873466,57.851116495670375,60.3199732513353,78.59642411685725,83.19806005384734
95.75414138678474,57.79322519411469,51.71381381667704,57.88473817775568,60.44290335351998,78.57124199347408,83.13499946010953
95.65301178335255,57.811037586563764,51.68973748252095,57.913694983721896,60.57276272405603,78.55331992963781,83.07328470987402
95.54427748727633,57.833824045741856,51.66404190789854,57.93794972276208,60.70927247294194,78.54235168542951,83.01306552925168
95.42857198273487,57.86153411150632,51.63685809958476,57.957492183406835,60.85213716746279,78.53797617813483,82.95447870919891
95.30659297942536,57.894061897875126,51.60832162601241,57.97232508086917,61.00102166868809,78.53981295505352,82.8976647108849
95.17906811183413,57.93127013336939,51.578581465941824,57.98247420150161,61.155563108940946,78.54747026019324,82.84275037712997
95.0467193138214,57.97301418548699,51.547819347586035,57.987996702366694,61.315399189042616,78.5605191138721,82.78981905961916
94.91027383174759,58.01913235618477,51.51624869830235,57.98896498556145,61.48017126207355,78.57848159687774,82.73891653386742
94.77049844367636,58.06941778554586,51.48409070624359,57.98544133840256,61.64949989314767,78.60086443635164,82.69009362613187
94.6281977860838,58.12361299443717,51.45155526322195,57.97747271246542,61.82297200144727,78.62720137600039,82.64343037770988
94.48417428010885,58.18143632649912,51.41884383267231,57.96510665049927,62.000163857609415,78.65705416115256,82.599014489046
94.33920221310808,58.24260501585804,51.38615811231634,57.94840063445232,62.18067386735994,78.68998391656864,82.55691693670123
94.19403670951822,58.30682464486153,51.35369241800924,57.92740924025109,62.36412538494674,78.72554315470462,82.51720958619542
94.04941824630797,58.37376086455101,51.32161860589584,57.90216871322856,62.55014405918358,78.76329805240951,82.48000483792447
93.9060437968841,58.44303388657337,51.29008833822225,57.87270383013618,62.738345135041335,78.80283970275195,82.44546524966825
93.7645395688168,58.514247826328976,51.25924961105335,57.83904755984113,62.92833712021846,78.84376098374597,82.41378111224105
93.62548227581355,58.58701956670695,51.2292493099714,57.80124292601734,63.11971494382841,78.88563327738973,82.38516378630565
93.48944774613072,58.66097314670018,51.200214839461914,57.759322319211094,63.31203427643382,78.92802345347698,82.35986619453836
93.35702341324509,58.7357147895074,51.172244061532304,57.713294374767976,63.50479726090608,78.97053313944191,82.33818619952491
93.22877604489548,58.81082997361767,51.1454260431302,57.66316124577307,63.69747401381282,79.01280875260159,82.32043152886656
93.10522845685603,58.88591333606435,51.119871550108215,57.608947383715964,63.88953674512018,79.05451527889397,82.30688356850058
92.98687066252282,58.96059546492698,51.09571802562465,57.55070482092221,64.08046676742268,79.09531774912423,82.29779920081256
92.87416699193616,59.03453389405786,51.07311037282114,57.48849360479404,64.26973575173942,79.13489235370223,82.29343541026452
92.76752880560672,59.10738356207422,51.05218817457555,57.422368015727955,64.45679868862095,79.17293583023688,82.29404910533104
92.66728727269549,59.1787880144913,51.033091116783964,57.35238494872329,64.64111538400263,79.20914538511587,82.29986317194867
92.57371331907466,59.24840409617847,51.01596156608203,57.2786156103697,64.82217186389155,79.24319186620636,82.3110406624602
92.48706465645563,59.31592537662428,51.00092785149916,57.2011396642063,64.99947208135137,79.27472490636771,82.32769226512825
92.407597621225,59.381070663926636,50.98808550999463,57.12003557113504,65.17251542533305,79.30340545621966,82.3498881082677
92.33553504640071,59.443552887355686,50.977500112206755,57.03539398476353,65.34079475023252,79.32892097051403,82.37764125778853
92.27104460308927,59.50307084536184,50.969222126328226,56.94734577705359,65.50381446759538,79.35096314551427,82.41088268495872
92.21425508627354,59.55933711507429,50.96328671802085,56.85606896648548,65.66109586829964,79.36920488103365,82.44947204184884
92.16527091914584,59.61210654355012,50.959696945178194,56.76176552623359,65.8121575908042,79.3833187482901,82.49323957176395
92.1241493649425,59.66117110157781,50.95841688343732,56.664638361623666,65.95650163513342,79.39302183688706,82.54200641863635
92.09087198990972,59.70633858638873,50.959391292778264,56.56489400691452,66.09363262178904,79.39809364355787,82.59556340864721
92.06535885631429,59.74743452348844,50.96257253251781,56.46275799346598,66.2230897797226,79.39835453113986,82.65365006731508
92.04750872995183,59.78432742119683,50.967924610517585,56.35847399545154,66.34445151339217,79.39365229279072,82.71597284373385
92.03720729964773,59.81693942774292,50.975406322287824,56.252287559226204,66.45731316323491,79.38389033356161,82.78224286352923
92.03429684438086,59.84522656104233,50.98496023955362,56.14444135508825,66.56127916460392,79.36906353316274,82.85218657812557
92.03855929490392,59.869159607811795,50.99651656957079,56.03518830157633,66.65599241961458,79.34925348008302,82.9255308486708
92.04973685756998,59.88873418759839,51.00999420757386,55.92479749636829,66.74117061126033,79.32459433215874,83.00200885941668
92.06755129705579,59.90399195789125,51.02528636738044,55.81353830715603,66.81660983870648,79.29525681319781,83.08139361334007
92.09168837815629,59.91501718441196,51.04224610042688,55.70166451140625,66.88216496923663,79.2614582152723,83.16350998387118
92.12177667403446,59.92191078804041,51.06069490749787,55.589425024524516,66.93774296379999,79.22345954876857,83.24820057776337
92.15740567865174,59.92478016126166,51.08044791444145,55.47708908672167,66.98331173568494,79.18153041143948,83.33528347298765
92.1981678705143,59.92376016254967,51.101324649569165,55.36494973589867,67.01889521056808,79.13591560752225,83.42454946215466
92.24366922494187,59.91903152972748,51.12313624063966,55.25329917431041,67.04454565810234,79.08684320147935,83.51579175496089
92.29349957883672,59.910804588302796,51.14567662605554,55.14241100195802,67.06032366631852,79.03455988680733,83.60881697368744
92.34721329950914,59.89928382872546,51.16874131762958,55.03255612607403,67.06631177811177,78.97934304340906,83.70341807658761
92.4043473228554,59.884653648819146,51.192156402493346,54.92403055895993,67.06264030658842,78.92147564685682,83.79934826127736
92.46443880957328,59.86709788185329,51.215783544462845,54.81715637205486,67.049485759101,78.8612262191967,83.89633138138055
92.52700740733847,59.84682082126178,51.23949932208234,54.712256894394514,67.02704363962647,78.79886682545262,83.99408942705378
92.59153348745164,59.82403847107091,51.26317875450027,54.60964137048525,66.99551451281701,78.73470215126099,84.09234487569316
92.65748159924388,59.79895633031442,51.286700820042476,54.50961358408724,66.95512129955358,78.66906536487545,84.1908027766628
92.72435272258275,59.771770294259895,51.30996113019684,54.412478895478145,66.90612952172621,78.60228852931787,84.28915996256505
92.79170343123454,59.742689654063454,51.33286962835084,54.31852683250517,66.84884043825242,78.53469134105609,84.38714802481789
92.85911912508296,59.711945073982584,51.35533934682947,54.22800393095507,66.7835720181533,78.46659531244808,84.48455688648396
92.9261930189691,59.679766946159816,51.377291213784936,54.14110539954889,66.71066102796279,78.39832447479733,84.58120930959468
92.99254134513914,59.64636607666027,51.398674300287915,54.05798734979423,66.63048173941402,78.33017407646098,84.67692570766555
93.05781872516147,59.611945598429,51.41947228680441,53.97877355963001,66.54344627527792,78.26238271302198,84.77152946834366
93.12169764708989,59.576724751630856,51.439684996887244,53.90354184807672,66.44997786670368,78.19514449075633,84.8648828044223
93.18384135039345,59.54093697400803,51.45930979685126,53.83230966784062,66.35049115612956,78.12864149731452,84.9568986511916
93.24391826852835,59.5048041955892,51.478346909467966,53.76504536827245,66.24540864627356,78.06304800587687,85.04751150335713
93.30164282265105,59.46852669536127,51.49681764605502,53.70169781804835,66.13519292502387,77.99850138878385,85.13664935923649
93.35678443242611,59.43230534331332,51.51476738281949,53.64221017885136,66.02035227796529,77.93508743388037,85.2242372674857
93.40913508741987,59.39636238335938,51.53225086362638,53.58650629285031,65.90141683556598,77.87287075343373,85.31020684619013
93.45848711993983,59.360927188078705,51.54932214626917,53.5344797577486,65.77892070250454,77.81193547297781,85.3944776143959
93.50464921839405,59.32620151993736,51.566036773840395,53.48601195327804,65.65340564216082,77.75238631363604,85.4769263714106
93.54746208522823,59.29234566672874,51.58245007457332,53.44099957689727,65.52542195323853,77.6943193376672,85.55738911548175
93.58677736161306,59.25950125242852,51.59860245231272,53.39935721526732,65.39550684320777,77.6378121861193,85.63569562408966
93.62243077610754,59.227818132688824,51.614507876579815,53.36099934416512,65.26415944000652,77.58294638352766,85.71168744597745
93.65425886709878,59.19744974492151,51.630163897128355,53.325833747828504,65.13184141379084,77.52982142688352,85.78519915636475
93.68214352392403,59.16853212814849,51.6455712101999,53.293773180861415,64.99899634205302,77.47853712364642,85.8560415249514
93.70602356874846,59.14118546698319,51.66073427129566,53.264739505547,64.86605384044584,77.42918010816496,85.92401568350704
93.72586050087281,59.11553805792417,51.67564155510224,53.23864604173,64.73340819298527,77.38184961328557,85.98893083629481
93.74161155693675,59.09173510035217,51.690255973991334,53.21537925041104,64.6014001313402,77.33669232092974,86.05059098041085
93.75324902651006,59.06991773135246,51.70453436038266,53.19480554531776,64.47032605361099,77.293896561538,86.10877134809105
93.76079488991924,59.05020603484308,51.71845394554805,53.17679418047807,64.34045772837747,77.25365460874092,86.16323199999547
93.76431923504305,59.03271660891083,51.73201467901064,53.16122360953243,64.21203962736162,77.21614074908776,86.2137630062125
93.76391085269587,59.017592582589856,51.74522244371599,53.14796476279963,64.08526482267455,77.18151643517692,86.26020435450857
93.75967260147311,59.00500315081388,51.75808147499695,53.13687449512153,63.9602643275346,77.14992794747249,86.30241844064085
93.7517492306225,58.99511279291257,51.77060309015374,53.12782332008493,63.83712918004606,77.121477152755,86.34025885914258
93.74033674472781,58.988061899048084,51.78280983237547,53.120730984086265,63.7159393962035,77.09619456571522,86.37357952578384
93.7256473776054,58.983979539736396,51.79472103330703,53.115568899131965,63.5967662077969,77.07405031114558,86.40226775803738
93.70787292227533,58.98299828285021,51.80633755272704,53.11233434760072,63.47965801441813,77.05498924904312,86.42625283541656
93.68719598514248,58.985238326824266,51.81765077461281,53.111037817562014,63.36464647901127,77.03894230794617,86.44548637221554
93.66383121430486,58.99077433310556,51.82866637228071,53.111721158360744,63.251774513847806,77.02580170513133,86.45993818993058
93.6380357926172,58.999624515182425,51.83941031116981,53.11447764586945,63.14110926086207,77.01540454562009,86.46962018925618
93.61007525176076,59.01177343859422,51.849912105494866,53.11944286420017,63.03272456121002,77.00756137966829,86.47459727129876
93.58019497608456,59.02719393743633,51.86019078917763,53.12676770302893,62.926685629072495,77.00210093500388,86.47496104524394
93.54863571910238,59.045835174278494,51.87025473477054,53.136604291100504,62.82306598536767,76.99887917917289,86.47079973579537
93.5156644485399,59.06759103025835,51.88009898340577,53.14910719580133,62.721975642095835,76.99775448424512,86.46220559688955
93.48157041083456,59.09228921559129,51.889688969192754,53.164426340151955,62.623560827212,76.99857225824536,86.44930683604663
93.44663487981343,59.11971502224503,51.898946057702084,53.18268327137287,62.5279774651785,77.00117275653237,86.43227507064148
93.41112720823415,59.149638473515495,51.90775572127546,53.203953651137624,62.435377265012654,77.00539182903394,86.41130085691209
93.37533418923327,59.18181305853153,51.915991647377794,53.22827778594251,62.34592369557117,77.01103546560272,86.38658161214502
93.33957123914725,59.2159601277689,51.92352725894829,53.2556835970401,62.25980943506384,77.01785430452438,86.35833826009168
93.3041519731633,59.251774262037806,51.93022539320943,53.28618915576601,62.17724543133832,77.02555234281066,86.32682087563394
93.2693610443162,59.288950572253384,51.93593066372866,53.31978458174478,62.09843481151517,77.0338189956166,86.2922770608659
93.23547224494482,59.32719828511249,51.94048596698546,53.35642425450077,62.02356507712612,77.04234054615203,86.25491551464953
93.20278331894967,59.36622407719378,51.94375757462899,53.39604399643798,61.952820374323444,77.05077875472575,86.2149113073646
93.1716132591129,59.40571567188408,51.94563928525067,53.43858128997894,61.88638284832776,77.05875842215494,86.17244525845207
93.14226846127548,59.445356296956014,51.946037223522055,53.483973513565225,61.82441003496665,77.0658998952015,86.1277218313749
93.11503063262322,59.484852712918254,51.94486103864093,53.53214368712539,61.767018432465015,77.07186846024109,86.08094153375073
93.0901766225578,59.52393833673956,51.94202833456048,53.583000795927155,61.71430303579648,77.07638746227,86.03226863039907
93.06798333413883,59.562349338217274,51.93746384384589,53.636453916320825,61.666372073861346,77.07921558030296,85.98183909346471
93.04869396840385,59.599809980425235,51.931083903754654,53.69241258360086,61.623352087114576,77.08013326726756,85.92979504326993
93.03248678035413,59.63604853085573,51.922783986443896,53.75076469588949,61.5853613731714,77.07895408747802,85.87629537455052
93.0194922551551,59.67081889148108,51.912448329457874,53.81136006319894,61.55249531822213,77.07552920636482,85.82149455348684
93.00983775441024,59.70389576649309,51.89997081342725,53.87402502748887,61.524847828780224,77.06972614837343,85.76553507234107
93.00365868360103,59.73505304952948,51.885260139722696,53.93859029425604,61.50253868340662,77.06141535219703,85.70857230497818
93.00106412204138,59.764058695463525,51.868225326148874,54.004896696897134,61.48570945274182,77.050497304813,85.65079244439696
93.00210924573882,59.790689515584795,51.848766116808285,54.072781626364396,61.47450071207608,77.03694102101456,85.59239682045688
93.00681390600111,59.81473557415771,51.82678640365637,54.142078900566275,61.46904944261717,77.02078404979719,85.53358218491857
93.01519799888307,59.8359807244989,51.8022152218548,54.2126378679869,61.46950687084403,77.00210033400705,85.47454702080007
93.02728103599654,59.854187188814294,51.77500807954236,54.284331052297475,61.47603893617416,76.98098433183974,85.41550245171267
93.04305223787529,59.86911163290393,51.74512880798004,54.35703334028901,61.48879576487466,76.95756531585644,85.35665582791256
93.0624649196042,59.880535842152206,51.712537357845285,54.43059565127892,61.507883884814554,76.93201283795081,85.29818760191648
93.08546586124207,59.888273418979345,51.67719918751712,54.50484195041538,61.53337220986827,76.90450763426729,85.24026918216116
93.11200871681906,59.89214864872719,51.63910221838589,54.57958418383835,61.56531346044048,76.87520946846143,85.18311417307804
93.142022750576,59.89198497583463,51.59825879408052,54.65462519895892,61.60374166823547,76.84426259425086,85.12700079171735
93.17537887147607,59.88762603785141,51.55469886064346,54.72974059423526,61.64864616547009,76.81182600880904,85.07224117652247
93.21190489641977,59.878961219625296,51.50847882357752,54.80466634572064,61.69996141188664,76.77808032908754,85.01914345616821
93.25143358731657,59.86592069242383,51.45970165302171,54.87911524640286,61.75759028823177,76.74320028006274,84.96801081077164
93.29381985590439,59.84845223547878,51.40851827574593,54.95280428243927,61.82142859700609,76.70733927352764,84.91916084628821
93.33890906503113,59.82651729616567,51.355103599184574,55.025459184599235,61.891357496707165,76.67066082476363,84.87292029058945
93.38650837400938,59.80011079460243,51.29963497299779,55.09679675731517,61.96721872056621,76.63338094042213,84.82959529103884
93.4364053897903,59.76927081449451,51.24229602734897,55.16651702629156,62.048807775279506,76.59576692582095,84.78946254207496
93.48840670506713,59.734060331615645,51.18329233835774,55.23432130214435,62.135885509043916,76.55810220759052,84.75279315161433
93.54234052481938,59.69454875930781,51.1228496324391,55.29993402537344,62.228177302258906,76.52067112751416,84.71986502299949
93.59802572849075,59.65082303935563,51.061192330595055,55.36310184677581,62.32534895845338,76.48377829311941,84.69093584542547
93.65526040522064,59.60301260581902,50.998525784287004,55.4235815806722,62.42698751003684,76.44776028156265,84.66620906933645
93.7138446517817,59.55129038635399,50.935033767907804,55.481147041417096,62.53261314575277,76.41296106729389,84.64583528674929
93.77359221571804,59.495846600678874,50.870878468196224,55.53561007509662,62.641705448007926,76.37970168201417,84.62993900674051
93.83430439774737,59.436872209044694,50.806191567273444,55.5868232590394,62.753708553049655,76.34828416241386,84.61862495298016
93.89574491495524,59.37457421155357,50.74107083473805,55.63465673069446,62.86801542732141,76.31901623831445,84.61195564214894
93.9576578730008,59.30919606515033,50.67560255810059,55.67897705105268,62.983966190799215,76.2922102519164,84.60994224400257
94.01980478795697,59.24101032520464,50.609895863200435,55.71965031854851,63.10087696652093,76.2681479214854,84.6125665269343
94.08196734691265,59.170296021759626,50.544093334163065,55.756556227535654,63.21807124894764,76.24705605640418,84.61979626871891
94.14392038974714,59.09733523359171,50.478352043381335,55.78958548895514,63.33488233114942,76.2291264777398,84.63156692006208
94.20542887137417,59.02242889397367,50.41282755265974,55.81861979291104,63.450638858032484,76.21454948246472,84.64775964642794
94.26627962557252,58.945898196940135,50.34768687749207,55.84352294413058,63.56466762863574,76.20351105374614,84.66821598582924
94.32629681794742,58.86805957699929,50.28313305519531,55.864160115764854,63.67631532783433,76.1961595856063,84.69277458825866
94.3853129204868,58.78920523148617,50.219406071372966,55.880422384059145,63.784957981941226,76.19259045552963,84.72127997839985
94.44313802104969,58.70961884799492,50.15676104216455,55.892226822783854,63.88998547203632,76.19286376212112,84.75355587750883
94.49957830219428,58.62960772659138,50.09545716456477,55.89950163878878,63.990789537766226,76.19701771092808,84.78939071707391
94.55448389993846,58.549508276504724,50.035767545305816,55.90218656694965,64.08678343007558,76.20505359607736,84.82856047545287
94.60776122868772,58.469659760548744,49.97798176990827,55.9002485449296,64.17743567076444,76.21692660526033,84.8708509916218
94.65933437711229,58.39038669111828,49.9223843338507,55.89368410449329,64.26227732564561,76.232577321092,84.91604276881986
94.70911042607639,58.31201499597538,49.86923162352062,55.88249988952049,64.34087977502563,76.25197462777297,84.9638825110649
94.75699449743387,58.234893776681915,49.818753185391245,55.866700707538016,64.41284262520381,76.27511866433724,85.01408716140295
94.80292793042283,58.15938668409066,49.77116753070277,55.84631061108559,64.47781527714153,76.30200837807995,85.0663747023637
94.84689236353951,58.08584457893292,49.72668326041049,55.82140686149177,64.53552455693982,76.33262232517563,85.12047429251346
94.88887938326098,58.01459751744751,49.685479664786705,55.79212719007481,64.58577275494035,76.36692946028087,85.1761056874072
94.9288776821883,57.945971183715876,49.647693278230406,55.75864857267112,64.62841743916597,76.40489403108377,85.23297080192131
94.96689287704643,57.88029345822475,49.6134325825052,55.72117192135742,64.6633689222014,76.44644918806041,85.2907762057934
95.00295557164922,57.81787344685376,49.582804879958566,55.679930931124204,64.69060551324957,76.49146831527698,85.34924797978726
95.03709191122816,57.758982917747566,49.55592228943894,55.635204463020784,64.71017316427817,76.5397740664815,85.40810852649612
95.06929519585753,57.703870786476635,49.53288517121006,55.58730771005942,64.72215824244671,76.59117427708023,85.46704483226364
95.09954167614559,57.65279146035825,49.51377017583023,55.536573060107095,64.7266649436881,76.64547600740802,85.52571734216536
95.12782860335226,57.606006199540936,49.49863434700538,55.48335060974373,64.7238271986416,76.70246241236225,85.58380402403402
95.1541795194714,57.56375605206144,49.48751819144289,55.42802656486662,64.7138367009935,76.76187545894736,85.64102402930791
95.17861565379388,57.52624578989682,49.48043514239106,55.37102512687742,64.6969454880421,76.82344181254625,85.69712150770485
95.20114484403571,57.49366095861375,49.47736488915626,55.31278124602761,64.67344127593944,76.88691374796453,85.75184695852647
95.22178351466643,57.466189046864415,49.478270723138486,55.25371510268239,64.64363520185995,76.95207284022868,85.80495667324284
95.2405676001302,57.44400951555379,49.48312359731897,55.194237826553234,64.60788071836079,77.01869940346687,85.85620800958816
95.2575263492605,57.42726536087796,49.49190103813502,55.134773120962656,64.56659192909628,77.08655649724993,85.9053330914109
95.2726571796175,57.41605439349242,49.50456473531271,55.0757569310322,64.52022925171548,77.1554056260028,85.95201206896952
95.28594437579703,57.410445060604246,49.52104943980211,55.017609695534595,64.4692686265707,77.22501757672042,85.99588176618725
95.29739835533994,57.41048320749924,49.54127742435249,54.96071379477588,64.41418854272393,77.29515121408342,86.03657284300589
95.307059281031,57.41617226017175,49.56517623243578,54.905418272185464,64.35547398241876,77.36552791977482,86.0737269488904
95.3149637675708,57.427454992982135,49.59267537051729,54.85205167142186,64.29360849600471,77.4358433238249,86.10698114096017
95.32112728188294,57.44422838291084,49.62369359010495,54.80091488029876,64.2290467036941,77.50580767146094,86.13596203125027
95.32556134567297,57.46637685345472,49.658143770586925,54.75226254293588,64.1621977288173,77.57516402649051,86.16031074649295
95.32828364352817,57.49378258484792,49.69595086489645,54.706301638299045,64.09344522327532,77.6436654345378,86.17970416202093
95.329293733213,57.52630569473945,49.73705404679467,54.663206164128674,64.02318079759038,77.7110541987534,86.19384237486058
95.32855227642803,57.56377161636367,49.78138711532948,54.623119822529,63.95180797073796,77.77708374327348,86.20242698183716
95.32600700700003,57.605989927830734,49.82886587844749,54.5861383359069,63.87971560233865,77.84155777897956,86.2051734054442
95.32163960265416,57.65277782010325,49.87940638220593,54.55229770367779,63.80726154928291,77.90433451795194,86.20184956272712
95.31547391933638,57.70395362881927,49.932955799907425,54.52159180662097,63.73479069377617,77.96529696041357,86.19228913726175
95.30754505875721,57.75931174288222,49.989498411502886,54.49400339915774,63.662660526072784,78.02433661410055,86.17636460896146
95.29788493172397,57.81861514814105,50.04903447379522,54.46951407806255,63.59123775299126,78.08136592378017,86.15396606670794
95.28654292926468,57.8816103876751,50.1115639925327,54.44809028395832,63.520876440893815,78.13632194625502,86.12502233027729
95.27359695321299,57.948033232097195,50.17708886043432,54.42967491656668,63.4519155883327,78.18913816188333,86.08953750245676
95.25912657341354,58.017589094511294,50.2456126154136,54.41420130206627,63.384699228819244,78.2397177367647,86.04759471085772
95.24318702492486,58.08993556675614,50.317123099581295,54.40161081223756,63.319584216774814,78.28794760429282,85.999333734238
95.22582918271013,58.164696436548645,50.391576246602995,54.39184945215282,63.25691911433973,78.33373642212092,85.94495096592757
95.20714167313207,58.241492529842326,50.46890385453615,54.384850997107634,63.19702152444459,78.3770251569277,85.8847266044172
95.18725583705451,58.31995082624641,50.549034456596914,54.38053437480722,63.14018341074693,78.41776008890386,85.81903097215059
95.166311847261,58.399686080194414,50.631896492210295,54.378817338023595,63.08669118659399,78.45587745667784,85.74828813333626
95.14444122858157,58.480291090343236,50.717398994372694,54.37961882523928,63.036824596346406,78.49133795325699,85.67293434914579
95.12178581935248,58.561358603687154,50.80541920530777,54.38283865043073,62.99083018410763,78.52417702638807,85.59341499672414
95.09850889131651,58.64250727134777,50.89581870924449,54.38834168615339,62.94890497974226,78.55451118812003,85.51021046731168
95.07476824182282,58.72337645959648,50.98846903078637,54.395974597928294,62.91121606270221,78.5825014535072,85.42384133656937
95.05068865163412,58.80360168887985,51.083254712789646,54.40559979479804,62.87793242377819,78.60832774073393,85.334838463153
95.02638023342158,58.8828091059194,51.18005740946543,54.4171073425157,62.84922905476822,78.63219836485624,85.2437208412874
95.00198131962829,58.96063535840111,51.27875157883164,54.43039971900156,62.825266795439774,78.65435926535245,85.15100710489128
94.97766669709956,59.036739017411485,51.37921879720567,54.4453799815642,62.80618375963903,78.67507248324723,85.05722692412263
94.95361667612707,59.11078404696921,51.48135372817353,54.46195646769399,62.792104635495775,78.69459426766473,84.96289810458133
94.93000021850632,59.18242269840514,51.58504570435743,54.48004371133544,62.78313815295601,78.71319427824866,84.86849302297311
94.9069931250226,59.25130994359957,51.690158075444955,54.499544280869316,62.779351417604474,78.73119292488701,84.77444044147165
94.88478835163292,59.317135547108,51.79653212544845,54.52032703379734,62.780752261993406,78.7489618750198,84.68115740534215
94.86356734318089,59.37963284652042,51.90400599049423,54.54222534926348,62.787307887700585,78.76688725065965,84.58905990335518
94.84346917801868,59.43855628926173,52.01241774080346,54.565051875851715,62.79897861501114,78.78534523765708,84.49853812399573
94.82460548603557,59.49366378075243,52.12158669507945,54.588603512861305,62.81572370154348,78.8047095060861,84.40994279813775
94.80710015625235,59.544729542785944,52.231301835051894,54.61264658441643,62.83747627833227,78.8253541246572,84.32361050030327
94.79109385836549,59.59156457798243,52.3413419795295,54.6369068701295,62.86412753675033,78.84762457856019,84.23989050702137
94.77670986568852,59.63401059627311,52.451510296431344,54.66109157984659,62.895545729153355,78.87180644275487,84.15913343161532
94.76403697547782,59.671915350565875,52.561644954618515,54.684929451309685,62.9316043136045,78.89813295644046,84.08166523076902
94.7531516242067,59.70512532703775,52.67160223180828,54.708188763753206,62.97218064155007,78.92681802439532,84.00779563351136
94.74413424191877,59.73350343238724,52.78124396431618,54.730665332651995,63.01713130669577,78.95806336580931,83.93785423611914
94.73704581967455,59.75693941247584,52.89044446555321,54.752174490127786,63.06628194332996,78.99202644207975,83.87220002871085
94.73190046747057,59.775333018477475,52.99909573937716,54.77257013278382,63.11943986536711,79.02879394827825,83.81119047685137
94.72868342616957,59.78857513191977,53.10709332921689,54.79177004694174,63.17639780268939,79.06839774974632,83.75515590034912
94.7273955888672,59.79655708781336,53.21432137513757,54.809754838930594,63.23691219332723,79.11084695248593,83.70440571652112
94.7280636121412,59.7991955389156,53.320662350296594,54.82654446608204,63.300685380024106,79.15612710881109,83.65923486333502
94.7307083364462,59.79643583306778,53.42601905278934,54.8421842082639,63.36738210682295,79.20417047997636,83.61989898983674
94.73532482907883,59.7882282981242,53.53031613785376,54.856747769784896,63.43666212101756,79.25484807612152,83.58658182588918
94.74189814831497,59.77451316536666,53.633480170722244,54.870332209708515,63.50818731637706,79.308001606424,83.55939945870495
94.75041468835923,59.7552384113973,53.73542768792686,54.88303327461723,63.58159999923989,79.36347064400132,83.5384362014472
94.76083723070866,59.73038532491976,53.83607261153042,54.89492670285669,63.65651171907234,79.4210811626609,83.52375987505856
94.77307751970493,59.69996577831126,53.93533132944867,54.90607979633088,63.73252736193469,79.48063039038311,83.5153959359992
94.78701284597463,59.66400062552069,54.03310940640028,54.91657598430347,63.80927717015218,79.54191011215086,83.5133003359306
94.80252677850658,59.6225203007817,54.129287097495265,54.92651582453067,63.8864175557796,79.6047433451086,83.51737143003908
94.81951581030788,59.57559704763644,54.223727324208326,54.935991157821675,63.963608315731165,79.6689829186959,83.52748520593983
94.8378575027777,59.52336890120337,54.316297260546854,54.945066656433106,64.04050471269484,79.7344759901703,83.54350657009047
94.8573928819835,59.466025169533275,54.406873028894395,54.953792263091735,64.1167726768041,79.80104486049375,83.56527305724947
94.87794573129369,59.40377504550941,54.49531996998346,54.962226144976235,64.19209648227779,79.86850272051325,83.59259547664358
94.89933837595487,59.33683777510055,54.5814751477545,54.97043575664701,64.26616159846301,79.93666596445523,83.62528688044617
94.92137117184477,59.265457884206754,54.665157207594746,54.978482631818736,64.33863858450759,80.00533479302975,83.66317609067433
94.9437984953229,59.18991306918234,54.74619164014554,54.98641975548346,64.40919698577805,80.07427497996514,83.70607994666531
94.96634974143404,59.11049601838106,54.824417575453424,54.99430318092943,64.47753278553118,80.14323885996255,83.75376823780944
94.98877764030695,59.02749448194959,54.899670445563004,55.0021932655741,64.54337013679692,80.21199969655738,83.80596815670478
95.0108719467415,58.941198688883894,54.97177045613796,55.010136308918,64.60643420954455,80.28034950698708,83.86240084023619
95.03242862579569,58.85192375913923,55.04053633461157,55.01814759729489,64.66643304752755,80.3480661493156,83.92279621645585
95.05322835021762,58.76001088505174,55.105806745818654,55.02621813234219,64.72307501874569,80.41490047494607,83.98686633140701
95.07305224490494,58.665801110888005,55.167443610197516,55.03433477146147,64.7760999870498,80.48060097011393,84.05428008962893
95.09169662270355,58.56961522883299,55.22532301380582,55.04248320957634,64.82528523148487,80.54493539973565,84.12467850632262
95.10895251965442,58.47176353546312,55.279338616013085,55.0506298704676,64.87042710551152,80.60767928864028,84.19770911604769
95.12458193091067,58.3725638074253,55.3294162641867,55.05871373573707,64.91133177876043,80.66860380839321,84.27303276586983
95.13833946637577,58.272335322608164,55.37551296371009,55.0666681174176,64.94782384408637,80.72750198457832,84.35030666707341
95.15002149373409,58.1713772176729,55.417593733377856,55.07444983314017,64.97974687225592,80.78422714373177,84.4291933289638
95.15948035074462,58.06996559285655,55.45561424347114,55.0820419303598,65.00694221851137,80.83869092471845,84.5094037199361
95.16659282625113,57.96837410062822,55.48953110335918,55.08943312518309,65.0292302392414,80.89082272314596,84.59072260211383
95.1712346411606,57.86688381220553,55.5193218074424,55.096604861907615,65.04642227112843,80.94054318059521,84.67299050198532
95.17328898672991,57.765763700377605,55.54498389754104,55.103535255083244,65.0583511571997,80.9877804854747,84.75608236972482
95.17265536027958,57.665250371933695,55.56651729801683,55.11019806515913,65.06488061397862,81.03249559575895,84.83991542129077
95.16922707512582,57.56555924803076,55.58391827752677,55.11654506075254,65.06588482455886,81.07467446437799,84.92445868253763
95.16286623138842,57.466912825898405,55.59719127039696,55.12249506529874,65.06123658457847,81.11430414619673,85.00970864068624
95.15342244830454,57.369545943606106,55.60635434542363,55.12795549317105,65.05083323896504,81.15137678656959,85.09565104766284
95.14077941043438,57.2736809265216,55.61142313975112,55.132860415135625,65.03463429133015,81.18591655586208,85.18225692251086
95.12486842639098,57.17950730140456,55.61239280995709,55.13718417888871,65.01266746456646,81.21798296701611,85.26951074448444
95.10563731931714,57.08719148054135,55.6092441614787,55.14092369531687,64.98500667006576,81.2476368227277,85.3574182391725
95.0830267253251,56.99689707392352,55.60196589804048,55.144085225672086,64.95175880060657,81.27491092901882,85.44597610013122
95.05698292335487,56.90878277960114,55.590561332529234,55.146698347404964,64.91306861657061,81.29982315370319,85.53514828988601
95.02747127955958,56.82298201316541,55.57503145769856,55.1488332765801,64.86911471540077,81.32240933843978,85.62487957378656
94.99445596448889,56.739601588584755,55.555363128951505,55.15059119988594,64.82008391167423,81.34272659410502,85.71511498916057
94.95787580015866,56.65875317861189,55.531548177677955,55.15207786173209,64.76615172884718,81.36082517284406,85.80578631975166
94.91766438120099,56.58058157298956,55.503617400788634,55.15339129375885,64.70749557765285,81.37673405658379,85.89678408971848
94.87379812089932,56.505257692056745,55.471653010491174,55.154627942310945,64.6443213696748,81.3904777820028,85.98796458376557
94.8263114948778,56.43295727364827,55.43577523985753,55.15588393645696,64.5768647114484,81.40208719325113,86.079191049357
94.7752689389974,56.36386247876271,55.396129304982445,55.157239507473236,64.50536520514986,81.41157485960937,86.17035345845416
94.72074461834744,56.29818188048943,55.35288382485332,55.15874606133994,64.4300509264664,81.41890175095722,86.2613452194202
94.66283576979782,56.236152840174576,55.30622546125864,55.16043787471204,64.35115639526954,81.4239775035633,86.35204104694432
94.60167177386978,56.17801616022506,55.25633904270527,55.162354756962515,64.26894980715187,81.42668991326666,86.44230841358255
94.53738814150613,56.123994404804975,55.20338743299962,55.16454333328844,64.18373236579693,81.42691879952405,86.53202360976998
94.4700995349433,56.074297296298404,55.14751119957101,55.16703530127807,64.09581562640261,81.42451658211832,86.62105703050156
94.39991838763261,56.029133139514244,55.08884216485942,55.16983586237814,64.00551241019932,81.41929483804134,86.70924905903445
94.32699929748692,55.98869517292675,55.02750544665064,55.1729435658269,63.91314733464511,81.41105433729534,86.79642355123764
94.25154892038344,55.95313150182129,54.96360354723502,55.176379327772324,63.81905741998776,81.39963298422802,86.8824325962123
94.17379325793901,55.92253808228719,54.897206541388925,55.18018990538006,63.72356818492726,81.38491780224321,86.96717602511222
94.09395472549937,55.89698814924651,54.82836897201116,55.18442867295984,63.62697101589145,81.366818788163,87.05057433565433
94.01226616696673,55.876560146550496,54.75715809990017,55.18914514605201,63.52953002576687,81.34525473716417,87.13253763897768
93.92898551149251,55.86132751077316,54.68366125362957,55.19439239102926,63.431503668410066,81.32017534321346,87.21297091582426
93.84437695257469,55.85132657860646,54.60796920134997,55.200228452791116,63.3331434879415,81.29158229063256,87.29179826058129
93.75868773392646,55.84654637146271,54.530163529312716,55.206697574376804,63.234666786976035,81.25951295120545,87.36896196956573
93.67216779289873,55.846951758182364,54.45032430816048,55.21381300898626,63.13624264113397,81.22400979385635,87.44439758418062
93.58511480284183,55.852504497203746,54.36854131817367,55.221564753592745,63.038020365622685,81.18511752581121,87.5180324073004
93.49788262458374,55.863151718314704,54.28490793293307,55.22993694819412,62.94017506972612,81.14290101766676,87.58982013063908
93.4108430227637,55.87879915606784,54.1995069114912,55.238904569319764,62.842922174049384,81.09744181213209,87.65976232166184
93.3243551047659,55.89930847046781,54.11241204969328,55.248410457029664,62.746496404275376,81.04880407413366,87.72788653755688
93.23877300957587,55.92452690824831,54.023703562615935,55.25835205602533,62.65113300174356,80.99701196975653,87.79422108295529
93.15445529066493,55.95431279124878,53.933472053561225,55.268595189944364,62.557070423757175,80.94207066039766,87.85881228045885
93.0717400324433,55.98852505422567,53.84180333979947,55.27899682946414,62.46455265104413,80.8840015532281,87.92176283438653
92.99091533466142,56.026994059535575,53.7487679646877,55.28940895456261,62.37380986747803,80.82284292266134,87.98323697768599
92.9122345011851,56.06951518572162,53.65443666276046,55.29966747357503,62.28503253711975,80.75862062212592,88.043432256054
92.83596055558267,56.115874964000234,53.55890508094665,55.30959150490158,62.19836820556527,80.69133891909617,88.10256718407979
92.76237823428791,56.16587354271277,53.462295394495726,55.31899440262949,62.11394113709367,80.62101325009942,88.16089679491081
92.69176037437643,56.21931180055924,53.36473589320878,55.32768347473195,62.03186358808057,80.54770545119337,88.21871434808668
92.6243407314488,56.275959731680366,53.266350016298674,55.33544237591903,61.9522201643826,80.47151850020624,88.27631661986942
92.56032450594526,56.3355476507822,53.16726967159265,55.34202218451987,61.87504662903359,80.3925672001489,88.33396566731315
92.4999015898983,56.39779166014158,53.06765092701958,55.34716305281548,61.80033357776281,80.31097048103263,88.39188673406557
92.44322634245222,56.46241754215852,52.967667095523176,55.35062703964634,61.7280484941013,80.22686905224319,88.4502901677276
92.39039237370817,56.52915031859111,52.86748861458392,55.3522053564363,61.6581414367679,80.14042915316364,88.50937194073259
92.34145208663013,56.59768628011734,52.767277547137034,55.351698897946484,61.59052564964658,80.05181631785764,88.56928913118261
92.29646620193587,56.66768874990922,52.667198987079345,55.34890764064077,61.52506733542288,79.96117613349624,88.63015469810503
92.25551945508528,56.7388171449844,52.56742411738723,55.343652246406215,61.4616114331816,79.86865734075624,88.69206343157421
92.21868753062803,56.81075306218832,52.468114613023225,55.33580665398054,61.40001942004502,79.77445268216375,88.7551053993002
92.18601095761477,56.88319097256076,52.36941281305292,55.325305025150804,61.34017900896075,79.67880579891741,88.8193420164511
92.15751660360526,56.95580927130793,52.27146047630461,55.312123516485734,61.28199003580549,79.5819821122225,88.88477941596925
92.13325340484084,57.02826266525314,52.17442806394077,55.29626764379522,61.22536269464672,79.48424978446215,88.95137967644393
92.11328936804719,57.10020717304918,52.07851915492513,55.27777401654127,61.1702349388577,79.3858906183919,89.01909439731173
92.09768051535906,57.171323284329276,51.98394943583384,55.256704920953695,61.1165777036856,79.28720741738609,89.08787111901086
92.08646595389406,57.24130551674226,51.8909303364447,55.23312563339664,61.0643716544908,79.18850203356186,89.15762800171716
92.07969627437848,57.30983340354301,51.79966946788073,55.20708591275183,61.013582898788876,79.09005316031842,89.22824505119335
92.07744408787511,57.37656402043632,51.710369193807615,55.17862812658211,60.964168082384994,78.99213127767216,89.29958948831546
92.07977107443355,57.44115782857494,51.62321003093791,55.14780939267255,60.916095396764035,78.89503213629405,89.37153294697791
92.08669519984743,57.50330391073445,51.53833524861167,55.114704965671244,60.8693446141345,78.79907884238658,89.443933949839
92.09820796860541,57.56271189455649,51.45585692387506,55.079388252479134,60.823882146338725,78.70458700510216,89.51661729070598
92.11432125697704,57.61908508683592,51.37587360294343,55.041919592351064,60.77964826463514,78.61184137387013,89.58938108482873
92.13507989089867,57.672115866923974,51.298473032972794,55.00236500637047,60.73658197732046,78.52111491002204,89.66201033776386
92.16052651351988,57.721515053845096,51.22371549553437,54.96082119030797,60.694656564587056,78.4326972367734,89.73426340305119
92.19067254381179,57.767039768064464,51.1516232925011,54.91741249712592,60.65388401634526,78.3468885105748,89.80584661881856
92.2255151261365,57.80848677185669,51.0821987591568,54.87226386528796,60.614294105225575,78.26397382183585,89.87642164788403
92.26506952404459,57.84566666136846,51.01545536938004,54.82548261880718,60.57592573398771,78.18422520901008,89.94564376708186
92.30936573207076,57.878398896333074,50.951427141691696,54.77716598715369,60.53883710340846,78.10793293448123,90.01317899843781
92.35841917741796,57.90653718724394,50.89015283388079,54.72741486841898,60.503104637948226,78.03541957020816,90.07867822729355
92.41222859387342,57.92999061051044,50.83166244285514,54.67632888251159,60.46879730459189,77.96701836487374,90.14174988222135
92.470807082665,57.94871075729592,50.7759786926702,54.623993417847025,60.4359543288128,77.90305381789139,90.20197530980161
92.53419473934224,57.96266150763135,50.7231177385491,54.57048732389569,60.40459548368333,77.8438498399607,90.25895172326577
92.60242890743822,57.97181102950696,50.673076501506394,54.51590663915555,60.374749265405406,77.789735086275,90.31231086279881
92.67551463147693,57.97615653923873,50.62582111651557,54.46037158416354,60.346459413365636,77.74101676545887,90.36170421707074
92.75343684528579,57.97574703300202,50.581297914724786,54.40400945550454,60.319763200662834,77.69794734021272,90.40679925194024
92.83618922655725,57.97067127977244,50.5394586916602,54.346944948192245,60.29467956705226,77.66072356348168,90.44730458322924
92.92376807146151,57.96102603174868,50.50026901934026,54.28932026041433,60.271235018698086,77.62951115417643,90.48298499011877
93.0161369183741,57.946905334172094,50.463691187813396,54.231321246428735,60.24949997062598,77.6044503174614,90.51363777445681
93.11321520947067,57.92842294671981,50.42967125196729,54.17317468208122,60.2295914861329,77.58562741744089,90.53906017857722
93.21490238438419,57.90573388125969,50.39815539420418,54.11512425293067,60.21164726978005,77.57305491713882,90.55905165775503
93.32108811339242,57.87902284046241,50.369117325925195,54.05742017043612,60.19581007082375,77.56669572129653,90.57344226262306
93.43162086848984,57.84847475146594,50.34256141768236,54.00032860357114,60.18223235317756,77.56650306221474,90.58209956707972
93.54627546214377,57.814268840419906,50.31850092349761,53.94413217720742,60.17107344446223,77.57242322801203,90.58490724169377
93.66476846393216,57.776607452682065,50.296941841901486,53.88910690054425,60.16247623779124,77.58436359594154,90.58176052287327
93.7868034128357,57.73574127362823,50.2778888615915,53.835501116246654,60.15655430140085,77.60217966659323,90.5725944938684
93.91208379118792,57.691954959202526,50.26135622716788,53.783544106393855,60.15341818960735,77.62570712860277,90.55740259216714
94.0402786271531,57.64552933490303,50.247362921330854,53.733469413831315,60.15321472007074,77.65479857866761,90.53621643207177
94.17099410003782,57.59672467098864,50.235924060376284,53.68551630478903,60.15613086894213,77.68931883342232,90.50907807068666
94.30379435640032,57.54580014792145,50.22706331076134,53.63990590663457,60.16236068351098,77.72911437475493,90.47604571271465
94.43824268111143,57.49303623690304,50.22083721314513,53.5968258123009,60.17207994937205,77.77400448836931,90.4372199503554
94.5739078012974,57.43872721589979,50.21733801979087,53.55644571787568,60.18545918600194,77.82379950081904,90.3927441487607
94.71033933654726,57.38316038708114,50.21666807463708,53.51894362906615,60.20269170804191,77.87830521993607,90.34277461104672
94.84706551873589,57.326619595832625,50.21891564289156,53.48450880014908,60.2239940523322,77.93729439366774,90.28746517739903
94.9836252738299,57.26941189099222,50.224158083667994,53.4533238508074,60.2495782603075,78.00047928950048,90.22698377547994
95.11958568149966,57.21187817141132,50.23247875680842,53.42555619672628,60.27963173263885,78.06752000120449,90.16152332690433
95.2545179434037,57.15437184409113,50.243965450109265,53.40136563253154,60.31431798834828,78.13805073115707,90.09127926357158
95.38797445561865,57.09723893894622,50.25868819586188,53.380903708659794,60.353773777724726,78.21168133111772,90.01642185152828
95.51951203440223,57.040830620603,50.27668342121382,53.364293160423024,60.39808651125936,78.28797149605793,89.9371043210111
95.64873493978554,56.98552781229096,50.29795684986275,53.35161067357802,60.44727516513243,78.36642094227771,89.85349588732939
95.77529991971936,56.931737041930106,50.32248990955407,53.342896683421415,60.50130286113031,78.44650063714839,89.76579183274352
95.89888580015071,56.87985809661862,50.35023903034755,53.3381777528563,60.560107681447015,78.5276906250605,89.67419477433792
96.01918286618599,56.83026443380464,50.381142579716936,53.33746837059946,60.62361156245335,78.60948169214755,89.57891212726699
96.13591699343166,56.78331615603166,50.41514434428432,53.34074876102386,60.69169830134964,78.69135562387247,89.48018386937375
96.24886134387096,56.73937522957792,50.45220937571412,53.34795021839255,60.76419860512208,78.7727870903267,89.37829794420131
96.35780883725263,56.69879165269741,50.49230920470857,53.35897153164533,60.84091532373401,78.85326642471667,89.2735654611637
96.46254626151618,56.66187712689923,50.53538962713915,53.37370860942389,60.92166697752911,78.9323030451395,89.1662869153448
96.56287243311694,56.62890219037137,50.58135154220075,53.39206213517445,61.00630129242577,79.00939772877986,89.05675323917049
96.65863316020084,56.60011542088822,50.63005786221959,53.41392133316288,61.094673702066196,79.08402370380774,88.94527336230253
96.74971822098928,56.57574850625257,50.68134930255037,53.43915223337827,61.18662660857278,79.15565119827797,88.83218227065426
96.83602627891995,56.55599345628495,50.735045372856916,53.467600811022564,61.281984678375665,79.22379011723658,88.71782484441262
96.91745339449551,56.54098337633488,50.79093722952097,53.499091858007155,61.38054736325574,79.28799894684975,88.60255958113167
96.99391887521939,56.530804159257436,50.84879719736513,53.533412376854244,61.48206714748932,79.3478579228557,88.48679130310227
97.0653792885751,56.52551784175965,50.90840202088641,53.57029866481679,61.58623297843729,79.402958724148,88.37098530613008
97.13180099456073,56.525162731145066,50.9695413229304,53.60944985144929,61.692681857739565,79.45293951405355,88.25563529953992
97.19313004388458,56.52973324237896,51.032002600648816,53.650557145678775,61.801026371728064,79.49752478525299,88.14121988034725
97.24930489045275,56.53917620483308,51.095557658590245,53.693315754908305,61.91086351062063,79.53652095598595,88.02819401189154
97.30029150972416,56.55341872563817,51.15997227544282,53.73741122397569,62.02175848563785,79.56978343964661,87.91700814237215
97.346086742592,56.572394387996106,51.22502492632162,53.78250885542801,62.13323623531112,79.59720619071437,87.80810850870698
97.38668885476784,56.596035669464115,51.290506024952585,53.82826982616741,62.24480405615238,79.61874165573721,87.70190920907369
97.42208667586796,56.62425151979105,51.356197896420255,53.874376770299904,62.35598288662925,79.63440816850732,87.59877640570517
97.45228319333602,56.656928854189474,51.4218613316109,53.92053656865496,62.46631112324327,79.64426037107792,87.49904250547507
97.47730811700997,56.69395653721504,51.48724132384395,53.96646217385195,62.575324602463624,79.64835648729111,87.40301587494062
97.49719033393937,56.73523385598204,51.55207579738497,54.011862835816096,62.68254824202923,79.64676421880239,87.31095859694284
97.51192831671818,56.780648308737,51.61609121144823,54.0564512556666,62.78751132153579,79.6395915447735,87.22305780707528
97.5215078856093,56.830054485472964,51.67900068745701,54.09994535101194,62.88975838090805,79.62699379770417,87.13943068222007
97.5259507293621,56.883284170532505,51.74052780549752,54.142052472758564,62.98883537472686,79.60914861158578,87.06015389076478
97.52533026926645,56.94017026525723,51.80043941355984,54.18245747857295,63.08427282448821,79.58624270215981,86.98527190855785
97.51973698379588,57.0005470474935,51.85855010865311,54.22083708120198,63.17559609946913,79.55849464627303,86.91477795512422
97.50924640963304,57.06422665459272,51.91469982356285,54.25688619927881,63.2623538888324,79.52617762068098,86.84861115173716
97.49393526013404,57.13099099594023,51.968748424102515,54.290323575931595,63.344129061020624,79.48960305667609,86.78668665060646
97.4739179736331,57.20061850218608,52.0206129601446,54.32087359990183,63.42052330063048,79.44908252504696,86.72891885744056
97.44934671782929,57.27291176072428,52.07031313894088,54.3482573304293,63.49114999467725,79.40491178366659,86.6752074723952
97.42037611654484,57.347690572604414,52.11797615020961,54.37221530265868,63.555662407587185,79.35738240883411,86.62541511504752
97.38714624271539,57.42476840941384,52.163802155971716,54.39253906345841,63.613791440485265,79.3067839155637,86.57938129665587
97.34980113802132,57.50395189827037,52.20802745088823,54.40907565236439,63.665350398744785,79.25337885388521,86.53696339170129
97.30849876262006,57.58506277491481,52.25090690976557,54.421709466630475,63.710210237702924,79.19738867088036,86.49805205622094
97.26338438571743,57.667944740819685,52.29270637001743,54.43035330407732,63.748283593758465,79.1390278983842,86.4625489696977
97.21456589961738,57.75244107757542,52.33368794325175,54.434955828943586,63.77953031071373,79.07855658391806,86.43035360736395
97.16213544455069,57.83837655436109,52.3740944179236,54.43550223959659,63.8039577598247,79.01629070486176,86.4013833376951
97.10621301935652,57.92557364317749,52.41415161954208,54.43199526557861,63.82159791153089,78.95256977844701,86.37558987943308
97.04695429377506,58.01388236951038,52.454081465927196,54.424436140245405,63.83248301640481,78.88773962224475,86.35293821165256
96.9845227990699,58.103182424155484,52.49409860661569,54.412830939722404,63.836647527025406,78.82217862349432,86.33337185803602
96.9190806379724,58.193355130267555,52.53438641896466,54.39721439055418,63.83414585038066,78.75632514898282,86.3168083051712
96.85081355306615,58.28426393833899,52.57507746269137,54.377657426178054,63.82505249808643,78.69066050745305,86.30315979959114
96.77994335088827,58.375766347702324,52.61625705940491,54.35424858423021,63.80943918955934,78.62566738577414,86.29233577899815
96.70669955640211,58.467730291532284,52.65797733536154,54.32708022348453,63.787363072137545,78.56181758570531,86.28422012821498
96.6312899646941,58.5600221932684,52.700257523273834,54.2962658490365,63.75889144700533,78.49959863293483,86.27866460513462
96.55391482626634,58.65248038651762,52.74307051088151,54.261969083703335,63.7241382331535,78.43953220071765,86.27551294308732
96.47480271225307,58.744909321048645,52.786338493008266,54.224408129972126,63.68327140375678,78.38215595483922,86.27461708213418
96.39421303636944,58.83709548295787,52.82994904738637,54.183836700252826,63.636494238260056,78.32800506743254,86.27581717677238
96.31240410627026,58.92881208441675,52.873773553862755,54.14053189089475,63.58403500690866,78.27762949919052,86.27891299714418
96.22961908871991,59.0197992377375,52.91766596883405,54.0947985967571,63.526154110052595,78.23161832190375,86.28367313179527
96.14610782982645,59.10974943490957,52.96145116687387,54.04696821807271,63.46314282280882,78.1905843409916,86.28987707815415
96.06213894949326,59.1983262425562,53.00492897496834,53.997377804221024,63.395299200352426,78.15511952131642,86.29733576560108
95.97797126857463,59.2851973594872,53.047892058533726,53.94634956169821,63.322905660488345,78.12576934183983,86.30587134430381
95.89382329012345,59.370042537648274,53.090130173560595,53.894194040618004,63.24623663441241,78.10303593984992,86.31529995905152
95.80988945350913,59.45253462579751,53.13141199755655,53.84122568313455,63.16558262990924,78.08737182526838,86.32544529856409
95.72638209817455,59.53233342388348,53.17146865243227,53.787761228700276,63.08125325511745,78.07914493238825,86.33615116179362
95.6435386710925,59.60911327580571,53.210003727527884,53.7340975123969,62.993554732595584,78.07860967971371,86.34726225798596
95.56158890069139,59.68259143838352,53.246720865496826,53.6804964078961,62.902778801541345,78.08592024151432,86.35860000993529
95.48073563878687,59.75252229787859,53.28133636839096,53.62719687724764,62.80922710328379,78.1011652656902,86.3699780583325
95.40117104109052,59.81867502826342,53.313566495839225,53.5744366207757,62.713243080042616,78.12437405409477,86.38124516076344
95.32308570036713,59.88083237877644,53.34311519842083,53.52245314504941,62.61521079672517,78.15548911843281,86.39230023808895
95.24664072951533,59.9388092935671,53.36968356944384,53.47146719415569,62.51553187553391,78.19435519619711,86.40306907669307
95.17193923938052,59.99245649654379,53.39298644579079,53.42167767589389,62.414633942732806,78.24075989977499,86.41348938414448
95.09904337012527,60.04163736816682,53.41275356512393,53.37327487080722,62.313028541887434,78.29449133280136,86.42352565704535
95.02801672342702,60.08621091598476,53.42872418863454,53.32644639670615,62.21137711824408,78.35535302401155,86.4331778983674
94.95893383174769,60.126049408186276,53.440655439753364,53.281361313344675,62.110539594454565,78.42313576299689,86.44245642821957
94.89185090320343,60.16106989229285,53.44833504660703,53.238153876962066,62.01162681501841,78.49759715537543,86.45135423786628
94.82679003866136,60.191238537365436,53.451574825257744,53.19693223609714,61.91605662214386,78.57846791857743,86.45986211349435
94.76375898784998,60.21654549991641,53.45018746836636,53.15780179570302,61.825588595161285,78.6654506884025,86.46801067443099
94.70276491583544,60.236988785695274,53.4439766683387,53.12087143330438,61.742375197294926,78.75819369397904,86.47588105673577
94.64379014575884,60.25258888145072,53.432758758180505,53.08623585565946,61.669079647117655,78.85627884894261,86.48357284177634
94.58676386656201,60.263406283517476,53.416392353858825,53.053963175684956,61.60898963985582,78.95925831442918,86.49117784705534
94.53157808217627,60.26953017342492,53.394781472207605,53.024111493937816,61.56604098898947,79.0667044229654,86.49878881767542
94.4781315676735,60.27105400830622,53.36785568863047,52.996756808815455,61.544800788929,79.17821600104392,86.50651234434756
94.42634323349904,60.268075245567786,53.33555909983945,52.97199783641414,61.550473080635534,79.29338465312166,86.51445033089634
94.37612578421337,60.260719361948105,53.297862766510164,52.94993821559882,61.588884857240075,79.41177502154727,86.52266817974781
94.32737131250445,60.249150206915296,53.254781990723764,52.93067750069915,61.66638681286745,79.5329456805953,86.53119457144315
94.27997344477788,60.23354948306778,53.206373767270236,52.914321665429284,61.789669310464234,79.65647630745346,86.5400512633356
94.23384440308094,60.214096688955436,53.152717652572555,52.90098821102906,61.965557661624494,79.78195941743411,86.54926530324086
94.18889335273147,60.19098025008467,53.093903724719176,52.89078754111444,62.20084840742502,79.90896698993025,86.55885110223427
94.14500197826489,60.164421702087886,53.03003492705672,52.88379870632576,62.502179535312834,80.037034061376,86.5688033020859
94.10204591216578,60.13467377308756,52.96122674627036,52.88006619500462,62.87588441746453,80.16567303195093,86.57911768402236
94.05994007452185,60.10199106966258,52.88759509789553,52.87961209464767,63.327824150590665,80.29438886782295,86.58980412879872
94.01864622749075,60.066611949125964,52.809252129903996,52.88243528972022,63.86325274497303,80.42266799338647,86.60086455511956
93.97813800597378,60.02877327049487,52.72632954305633,52.888491999477246,64.4867468550296,80.54996098224107,86.61226393650979
93.93837923641381,59.988730182174386,52.63901092608791,52.897685307844746,65.20217030902118,80.67569791878246,86.62393927377433
93.89934124612633,59.94674701615556,52.547537777261915,52.9098852881349,66.01265577899541,80.79932748304222,86.63583765059275
93.86101878108165,59.90307259963512,52.45218886582092,52.92496172369298,66.92061531097909,80.92033124895947,86.64792954962486
93.82340495628542,59.85794174095949,52.35326631121654,52.94279349641706,67.92774830964758,81.03820598329995,86.66018331017145
93.78643945836365,59.8116092854783,52.25110644120978,52.9632523987734,69.03500504321069,81.15246563369783,86.67254569610837
93.74996542575383,59.76437355836771,52.14609438181451,52.986197642121745,70.24252199714734,81.26268844801665,86.68495584191805
93.71370472702392,59.71656129433102,52.03865551009575,53.011500728357774,71.54956751453109,81.36856049897902,86.69736129214004
93.67723707492722,59.66850356279075,51.929231909581866,53.03907190075094,72.95453549724445,81.46987126496347,86.70970256576791
93.63997159570215,59.62053940723618,51.81827214965736,53.06885542416831,74.45502867055228,81.56649591459455,86.72188937976202
93.60112231461675,59.57303429475787,51.70623805094242,53.10080665094403,76.04801880172936,81.65841501831636,86.73381438359276
93.55972556589603,59.52637440689218,51.593605395459626,53.13488467083709,77.72999787768818,81.7457479532492,86.74539511200825
93.51472875817765,59.48093329520987,51.48084800824375,53.171061866060526,79.49705753225497,81.8287435330473,86.7565879710807
93.46512169647671,59.43704960878606,51.36842396794663,53.20932406539964,81.34491688676471,81.90773412677686,86.76735732070856
93.41009835598277,59.39503864227262,51.25678207140356,53.249653805698344,83.26892944309895,81.98310821266855,86.77764392678611
93.34935527830037,59.355209223352006,51.14637563056087,53.29201391907603,85.26408318960613,82.05531490462224,86.78737071640913
93.28356721759229,59.3178518925996,51.037658428576584,53.336337795336405,87.32506299831282,82.12485664279035,86.79646779412454
93.21481970901395,59.28321186293084,50.93106481606192,53.38251447561826,89.44642427348639,82.19224697175265,86.80487401233408
93.14675810590806,59.25148405553322,50.82699982781171,53.43036673932621,91.62276822489528,82.25797385408227,86.81251666879726
93.08447154125194,59.22283318712304,50.72584862985251,53.47965805543078,93.84878564705245,82.32251283340644,86.81931447581132
93.0342655807941,59.197404185801204,50.62798330152084,53.5302088364905,96.11920474350492,82.38636912586286,86.82521219989262
93.00339387249174,59.17530586394198,50.533747286506085,53.58216860056384,98.42875418248778,82.45008944871786,86.83019704874224
92.99975667844829,59.156595833924456,50.44342814318588,53.636350628744786,100.77216868021598,82.51423141220761,86.83426761214923
93.03162275445798,59.141295724435274,50.35724388842263,53.69449492247808,103.14419825480819,82.57933967116003,86.83739332898939
93.10742728538551,59.129420597124735,50.27535265512362,53.759436448728536,105.53960912975909,82.6459572457221,86.83951638912822
93.23560422113188,59.120983287733935,50.197868669353085,53.835187489825024,107.95320533690206,82.71463323714418,86.84058961429346
93.42441303354383,59.11596886857653,50.12486256487186,53.92694134670812,110.37987186144353,82.78588831854282,86.84059428240163
93.68182446598503,59.11431688992455,50.05635044247261,54.04106733261264,112.81458910000794,82.86016128952035,86.83951646729383
94.01550796323924,59.11593524260779,49.992291999504424,54.185112006658244,115.25238559285833,82.93778154678272,86.8373277102391
94.43281494260157,59.120719444225735,49.93259805054265,54.3677090544039,117.6882538593081,83.01897115567536,86.83401154755407
94.94064701547823,59.12854543243315,49.877129796319586,54.598334769550014,120.1170951604576,83.10384245592766,86.82960896421834
95.5452581482754,59.139249827964726,49.825686423879816,54.88696749725031,122.5337801444107,83.1923720182021,86.82422684018451
96.25212515231726,59.152631776780396,49.77800297301558,55.243780463618705,124.93333786724482,83.2843747375373,86.81800838970298
97.06593866640888,59.16847525769713,49.733777810905394,55.67895207630005,127.311130218256,83.3795123930945,86.81111597674624
97.99063000802533,59.186557801539,49.69271204643815,56.202584463172,129.66287430392575,83.47733130898591,86.80374393519305
99.0293334716404,59.20663228117204,49.65452414744669,56.82468633107494,131.9845423409384,83.57728668726787,86.79612284550284
100.18429364317923,59.228411048593166,49.61893498236101,57.555147294856425,134.272239250924,83.67874532950009,86.78848991612323
101.45678283945233,59.251580480444446,49.58565309618572,58.40361991823082,136.52212062872368,83.78102804613378,86.78105645010523
102.84704575357722,59.27582969404248,49.554381039574615,59.37932182690522,138.73037316565208,83.88352179107902,86.7740123825426
104.35425251484104,59.30085607686012,49.52483052503349,60.490847207401686,140.893228425617,83.98577799793557,86.76755423355313
105.97647373924768,59.326344626961195,49.49672434780008,61.74606726333692,143.0069536707478,84.08751718757783,86.76188874470554
107.7107187782282,59.35195718113637,49.469791530609086,63.15219242126286,145.06780426574753,84.18857767465293,86.7572084665485
109.55302661589029,59.37735200633941,49.443782067437795,64.71595350679875,147.07197275082328,84.28888022784298,86.75368577783304
111.49853700279495,59.40220631360535,49.41849805562182,66.44368099489715,149.01557524887656,84.38841279531327,86.75149884810543
113.54150349661776,59.42620934528075,49.39380578286509,68.3411674632,150.89468418728913,84.48719905489733,86.75084406863381
115.6752891292938,59.44903888482198,49.369616695354516,70.41345638812598,152.7053740039658,84.5852477988872,86.75190619512955
117.89240156884355,59.470357579122286,49.34586871312711,72.66470220915055,154.44374396681485,84.68252889049042,86.75482132427041
120.18457422217311,59.48983364727748,49.32253412335339,75.09813112499202,156.1059315867925,84.7790067051942,86.75968115946498
122.5428505612367,59.50715351538575,49.29963571715669,77.71613452915703,157.68814983994992,84.8746906495089,86.76656944610228
124.95764197871902,59.522008547799935,49.27723925864139,80.52046492004017,159.18673328144152,84.96964059147906,86.77557473915009
127.41878451967747,59.534080515385845,49.25542510214507,83.5123951603415,160.59815332732845,85.06393047092577,86.78675885035292
129.9156323490489,59.543053254784326,49.234270760857726,86.69278693614719,161.9190158938825,85.15762416799421,86.80012437302986
132.43717534276288,59.54863765287243,49.2138626202048,90.0620991656338,163.1460899629607,85.25078239082912,86.81562433078138
134.9721366756638,59.550575775349984,49.194317672822855,93.62032844130609,164.27636388399665,85.34346321858415,86.83319701249904
137.50904823590744,59.548620574169355,49.17578471238555,97.3669639248822,165.30708360759192,85.43568890348078,86.85277716856508
140.03633761617007,59.542526893129335,49.158425994667816,101.30108195120792,166.23578406327908,85.52740905940794,86.8742816306715
142.54242415517479,59.532075686124834,49.14240438083331,105.42146840586848,167.06038177778808,85.61851294422401,86.8976158913066
145.01579085065543,59.51710173978164,49.127881538528165,109.72655308447962,167.77931919324814,85.70889004296876,86.92271067376525
147.44503656004838,59.4974891943643,49.11500895162851,114.21415342633968,168.39165961830193,85.79847172599517,86.94954006081664
149.81895434829335,59.473150837967935,49.10390686770045,118.88117704907032,168.8971176872438,85.8872148489836,86.97809550763715
152.12664685841386,59.44403091499776,49.094660202320576,123.72341046908647,169.2961089582349,85.97507722523821,87.0083527269497
154.357624251022,59.41013028998304,49.08736479255008,128.73545351073093,169.5898085067068,86.062042262332,87.04027383940759
156.50185184393374,59.371514692359014,49.08220751715349,133.9107653325964,169.78012322576572,86.14816673153237,87.07383110364692
158.5497863016016,59.32829093528953,49.079517677437636,139.24175111068354,169.86956795366885,86.23358705250575,87.10900721388957
160.49242857417514,59.280583098798424,49.07976675254208,144.71988090296458,169.86111784732384,86.31848069170695,87.14577158745064
162.32136167875774,59.22853886712803,49.08357375698119,150.33588169497688,169.75808557102013,86.4030361041758,87.18407769848395
164.02874926010335,59.17234977123114,49.09175953439629,156.0799813942388,169.56402254496334,86.48745263569589,87.22389091441947
165.60732836272504,59.11224744099912,49.10539818346068,161.94206175782872,169.2826246233924,86.5719345385394,87.26520105227488
167.05043948661174,59.048473801929056,49.125801673785745,167.91162116176022,168.9176442001092,86.65665442961144,87.30799568585464
168.35208165291218,58.981264635413545,49.15446951536476,173.9776352443989,168.47283890343195,86.74171578125879,87.35223276749623
169.5069402434053,58.91086978308874,49.19308700091961,180.12844058750443,167.9519611251351,86.82714880240164,87.39785557924016
170.51037127467117,58.83758053203732,49.24359408257577,186.35167754720968,167.35874456180588,86.91292438328479,87.44483155027629
171.3583847712722,58.76172590199127,49.30825463128234,192.63428257296772,166.6968570853415,86.9989482209706,87.49316164047798
172.04766327868177,58.683647088249366,49.38965430871491,198.96250856410836,165.9698459118973,87.08503449090786,87.54285507691391
172.57559091946405,58.60369051440766,49.490657598013236,205.32195716705664,165.18111473301084,87.17090333984902,87.59391632398633
172.9402487163324,58.52223011565278,49.61438880281715,211.6976168397689,164.3339263249284,87.25622964811323,87.64636122233217
173.14038259356613,58.43968297995356,49.76420732459705,218.07390884682772,163.43139470528985,87.34070073543411,87.70022387144282
173.17538944325983,58.356489717623305,49.94362090137786,224.434747665688,162.476465734044,87.42402307447868,87.75552915106793
173.04533183193894,58.273079216690306,50.156189234694395,230.76359413913144,161.47191702672583,87.50589092048229,87.81226288218043
172.7509412339858,58.18985810055311,50.405543342658625,237.04348380198493,160.42037779867357,87.58599361651265,87.87038029802552
172.2935906318873,58.10723353190025,50.69553214492477,243.25708578497282,159.32433466220118,87.66409467426992,87.92983713126716
171.67527797394268,58.02563329187143,51.03032156973337,249.3868463872975,158.18610686539162,87.74011134920838,87.9905932563747
170.89865752059748,57.945493591414206,51.41432546614918,255.41516654141498,157.00781232543258,87.8141173589205,88.05258520649001
169.96708340252684,57.86723562999448,51.85207294937204,261.32454509231763,155.79136388048326,87.88629538183541,88.11571482396208
168.88459902916168,57.791265331914,52.34814864740747,267.09770264105674,154.53851900266147,87.95691318521347,88.17987013476433
167.65587017720839,57.717988884430724,52.90725139115883,272.71772175329846,153.25096519062646,88.02633275782846,88.24493724287021
166.2861235754491,57.6478093354402,53.53440561080121,278.1681937202339,151.9303984542103,88.09500142759386,88.31077545651587
164.7811190371718,57.58109763098038,54.23525225643376,283.4333194545218,150.57856355856066,88.16340274717207,88.37718644666336
163.14711260082325,57.51817135130697,55.0162122454775,288.4979204240914,149.19725478785173,88.23200948246127,88.443919496747
161.39077939271468,57.45930438123702,55.88447254258062,293.347407661845,147.78829465590445,88.30127935320066,88.51070279366387
159.51913535171627,57.404744358176266,56.847920422673,297.9678380137794,146.35350371617082,88.37166854459403,88.57725416069502
157.5395091932777,57.35470571579322,57.9150563953681,302.3460969410209,144.89467984024145,88.44361303685419,88.6432640189723
155.4595496094411,57.309347836280445,59.09485061760797,306.4700723277623,143.41361181942125,88.51747941411902,88.70839406997395
153.2872083763917,57.268773030552914,60.396576691836586,310.3287190445327,141.9121140461874,88.59352636578139,88.77230687711018
151.03068522682372,57.233049315731996,61.82965013765338,313.91208712246316,140.39203531813547,88.67188979309917,88.834684547228
148.698381199507,57.202223543182974,63.403428386254575,317.2113773641971,138.85523002294752,88.75256565405684,88.89520948258962
146.29888425525135,57.17630464415712,65.12693502785837,320.2189803248807,137.3035270891708,88.83538073862064,88.95353958362291
143.84094657609322,57.15524475739765,67.00854062593662,322.9284611579904,135.73872362106925,88.91998720733719,89.00931852838501
141.33341274490306,57.13895286516027,69.05566620399861,325.3345096641419,134.16259104454073,89.00590971574061,89.06220816109322
138.78512371553575,57.127329749567146,71.2745578920413,327.43289794775154,132.57686654543014,89.09260836803463,89.111897055324
136.20486981217425,57.12028169395942,73.67014424247246,329.2204938171528,130.98323087285615,89.17949738015483,89.15807985906534
133.6014183866079,57.11770088788383,76.24596443077111,330.6953464817634,129.38329991014288,89.26591800431659,89.20045066916015
130.98354390069716,57.11944758965783,79.00415116663703,331.8567909606951,127.77863332371949,89.35113211495701,89.23872761399933
128.3600047910431,57.12536006826684,81.9454435150138,332.70550477055974,126.17073195291958,89.4344085435533,89.27267023617098
125.73951377362546,57.13526973834864,85.06922229263931,333.2435017245832,124.56101280032946,89.51518057891342,89.3020608799586
123.13073655883333,57.148990091230544,88.37356897498468,333.4740704983147,122.95079072634913,89.59316027415055,89.32667800911297
120.54226863636664,57.16629110107739,91.8553032425564,333.40168619562826,121.3413051141766,89.66836506551311,89.34630187582091
117.98255759227169,57.18689897369989,95.50998663911682,333.03194663452695,119.73378412946087,89.74111721464224,89.36074230165042
115.45981531264408,57.21053030600111,99.33197549101111,332.37153682536024,118.12948769935304,89.81203466812664,89.36984378427262
112.98196467171945,57.236920434035575,103.31455241936774,331.4281832156073,116.52970383425136,89.88198075156315,89.37346291528313
110.55660497509619,57.26581295146899,107.45005167791206,330.21058534178053,114.93575651861651,89.95198939637001,89.37146163926722
108.19095839993689,57.29693126682518,111.7299454360698,328.72831726918787,113.34907083693541,90.02321929005919,89.3637317004937
105.89180465952978,57.329976517228936,116.14497377515424,326.9916886127366,111.77124148577681,90.09694593327995,89.35020929115713
103.66544825368949,57.364659919367845,120.68541413206809,325.01159149067956,110.20404569828055,90.17456279288496,89.3308505411711
101.51772310946414,57.400729478081864,125.3414603533316,322.79936748596657,108.64944979859459,90.2576186186443,89.30559727258736
99.45398522164807,57.43795828390127,130.1035046208353,320.3667003888365,107.10967765801767,90.34793598737828,89.2743770012814
97.47907028548617,57.4761115399583,134.96216582315412,317.72552931646504,105.58729296775965,90.44774229180017,89.23713077290599
95.5972609070975,57.51493433520989,139.9081575518831,314.88797777766194,104.085198215729,90.55970563583521,89.19382341192845
93.81230967105199,57.554179472069514,144.93218172590585,311.86629632714073,102.60654380274514,90.68688996398136,89.14442649339541
92.12749147509636,57.593647581469135,150.0249080691064,308.6728211553214,101.15461348957922,90.83273246936847,89.08891400938933
90.54562226472548,57.63319819322402,155.17695971489542,305.3199417453652,99.73272733718139,91.00107080245435,89.027286069447
89.06904638926174,57.67273643962428,160.37885928575253,301.8200526349691,98.3441577583951,91.19612628136738,88.95958254305982
87.69964939699155,57.71221160205265,165.62101794285834,298.1854762826486,96.9920465717347,91.42240187099655,88.88585924581884
86.43890049245252,57.751629224597885,170.8938028409256,294.4283941287657,95.67932773517512,91.68458391481737,88.8061552253689
85.28786879987186,57.79104397129351,176.1875952493687,290.5608305213386,94.40867851435242,91.98749386951124,88.72049589423409
84.24718605695743,57.8305295342536,181.4928229380165,286.59465572342896,93.18251354721966,92.33602203805792,88.62892727027392
83.316990324365,57.870170664951516,186.80002953006044,282.5415540994041,92.0029942754288,92.73499172363492,88.53153233046417
82.49690953979506,57.910104105605434,192.09992432976435,278.4130082165268,90.87201746592167,93.18901476464701,88.42841429862112
81.78610409044094,57.950566135746804,197.38332582152037,274.22036827414087,89.79119774172926,93.70245834851346,88.31968679452967
81.1833171821844,57.991897707180215,202.64109267232885,269.9749435912021,88.7618748399004,94.27953100081524,88.20549086014123
80.68688331745146,58.03452002280539,207.86418637268082,265.6880052810265,87.78512677515546,94.92434185788488,88.08600542709618
80.29471898270228,58.07891677984835,213.04382490806142,261.37070205006506,86.86175408786481,95.6408484290907,87.96142513061372
80.00434236016305,58.12562424455495,218.17158031003552,257.0339934581984,85.99224575022646,96.43276459147162,87.83193175260189
79.81291412854132,58.17520588822525,223.23939334464617,252.68866388221412,85.17677011698045,97.30348954240073,87.69770010528659
79.71725863512053,58.22820873713486,228.2395667326668,248.34534848567253,84.41520992430647,98.25605094541741,87.55893083256979
79.71386896811389,58.28513156722688,233.16471268298704,244.01448647096876,83.70720932931003,99.29308526023864,87.41586205329016
79.7989405238154,58.346426916709376,238.0076050017284,239.70623101815696,83.05219416176304,100.41688068837288,87.26874642821943
79.96843359757393,58.41251471606896,242.76098302310874,235.4303755742907,82.44937112313664,101.62941895218862,87.11783315524501
80.21811085057763,58.483772685206134,247.4174049378099,231.19629652327484,81.89773631226628,102.93233177501432,86.96337555528953
80.54353241924078,58.560511898061115,251.96924214470724,227.01291298612958,81.3960967217682,104.326806248589,86.80563394725921
80.94006901129333,58.64298323760682,256.40881892042,222.888688741158,80.94307887400755,105.81356208983487,86.64485092741207
81.4029859596547,58.73142712584806,260.72855332464894,218.8316653173371,80.53711187130729,107.39293764455493,86.48122624424403
81.9275530675901,58.826115978038615,264.9209866019641,214.84948398793054,80.17640379523905,109.06497570698396,86.31492905668843
82.50909381309188,58.927351869009556,268.97874870736916,210.9493711542954,79.85893951438642,110.82941653548608,86.14613590228464
83.14297155510573,59.03544861952501,272.8945184224371,207.13809243837534,79.58250848352145,112.68565221511244,85.97504604223306
83.82458140228273,59.150733128540644,276.6609689426265,203.4219004859094,79.34474285455735,114.63273901708317,85.80186477356638
84.54937268823541,59.273551523431415,280.27071280233764,199.80649125230357,79.14314867299632,116.66945760509775,85.62679729559217
85.31286025305948,59.40424931358856,283.71631193899253,196.29697925137387,78.97515206417906,118.79435409819132,85.4500709151989
86.11059697481866,59.54314366117986,286.99039281979907,192.8979280376425,78.83818973855972,121.00576705009296,85.27194908461757
86.93814223414782,59.690565788871375,290.08580610010074,189.61344298567536,78.72981257674493,123.30186906884846,85.09271153816546
87.79107719052291,59.8469977037947,292.9957285987119,186.44725174449863,78.64773652424489,125.68068395905522,84.91262888496738
88.66505853355459,60.013189690540855,295.71369209596605,183.40270972855285,78.5898338982829,128.14004086291985,84.73197116534106
89.55585578356951,60.19015137341994,298.2335964784395,180.4827520833456,78.55411090598373,130.6774933618843,84.55104043628357
90.45937196661883,60.379050932051605,300.54973290883237,177.68982852269593,78.53868885189185,133.29025754510093,84.37018010112376
91.37170355320771,60.58110984048238,302.65681813095904,175.0258405840844,78.54177185058188,135.97519174468434,84.18974973952356
92.2892310250906,60.79753254501576,304.5500761528913,172.4921014965239,78.56160151110309,138.72880813934518,84.01010793544759
93.20865981957505,61.02946425466429,306.2253704705009,170.0893143646335,78.59642971073632,141.54731686149884,83.83162642189777
94.1269789483029,61.27795430379931,307.67929034227603,167.81755161993533,78.64453076400022,144.4266916775335,83.6547014772372
95.04138846087277,61.54392734390918,308.90912540367344,165.6762416142436,78.70422918103539,147.3626971221733,83.47973251157784
95.9492546571178,61.828178581845876,309.9127970636922,163.6641730182254,78.77390162279713,150.3508354785591,83.30709441039735
96.84809342442661,62.13137203950389,310.6888251540671,161.77953287096264,78.85194965030774,153.3862571011588,83.13714535234024
97.73554456664446,62.45401001567079,311.23630662297745,160.0200372750271,78.93678584626794,156.4637013503509,82.97025991348724
98.60933529752332,62.796390572573195,311.55485747957886,158.3831714342178,79.02687256279624,159.57747073162878,82.80683926719387
99.46727183692339,63.15860169243317,311.64453450470427,156.8663992537409,79.12079073618483,162.72141693621273,82.647289196306
100.30726263829428,63.54056787191088,311.50578433679146,155.46720440381148,79.2172710152641,165.88895938900237,82.49200712822869
101.1273236927948,63.94210337414853,311.1394305818764,154.18302030371996,79.31516598713843,169.07314346563746,82.34139624307312
101.92554730802144,64.3629178259848,310.54666891698895,153.0111801522458,79.41341481280764,172.2666937941902,82.19587310449675
102.70009092670456,64.80257685260553,309.72905053302543,151.94891155419344,79.51104786564915,175.46202928838477,82.05584195068522
103.44923246629108,65.26046222369497,308.6884855939949,150.9933265027402,79.6072314462363,178.65126833806602,81.92166064280528
104.17144235857656,65.73576326219805,307.42730489715757,150.14139479064033,79.70132600324743,181.826291256327,81.79364118914687
104.86539145828388,66.22749591549476,305.9483550730603,149.38993178608578,79.79292584673851,184.97886695535846,81.67207999388359
105.52989645723144,66.73452235414797,304.2550711406292,148.73560162571414,79.88186966889378,188.10074918308524,81.55726877584623
106.16387610631143,67.25555109824349,302.3515117265238,148.1748978409338,79.96823044108643,191.18368907218002,81.44947055668423
106.76636802907247,67.78912796666181,300.2423773697146,147.70409305938506,80.05227703215775,194.21944873145858,81.34890224084327
107.33657484989016,68.33363996814374,297.93300690392186,147.31920870139484,80.13440699097767,197.19989297446338,81.25574985691067
107.8738777981382,68.8873297878718,295.4293243820993,147.01604022350952,80.21508730591987,200.11709918410097,81.17018421022351
108.37782635910156,69.4483238972262,292.737757493276,146.79019187143427,80.29482863246879,202.963398953322,81.09234153962007
108.8481607996341,70.01474306824386,289.86519021266054,146.6370727570204,80.37416895625064,205.7313689659631,81.02228898683613
109.28485809448944,70.58493653835,286.8189583343892,146.55189415108705,80.45363758931884,208.41382134458775,80.96002194382538
109.6881351146836,71.15771290047007,283.60683311184044,146.52971528795197,80.5337122833215,211.003781686683,80.90549578933665
110.05839335697944,71.73240424903838,280.2369708477424,146.56549835101035,80.61479332815841,213.49444758803574,80.85864468761021
110.39615223342557,72.30878090241036,276.7178597226528,146.65412395169827,80.69718406409807,215.87920310405008,80.81936731523157
110.70200794030372,72.88695920665948,273.0582806839403,146.7903923625801,80.78105596354887,218.15174941206456,80.78751675409019
110.97660831113402,73.46737899295572,269.2672661175736,146.96904491474143,80.86640527808723,220.30626582659056,80.76291837793019
111.22061593707885,74.05080054088185,265.3540374043259,147.18478737791455,80.9530312574798,222.33746865861013,80.745384441307
111.43466750575026,74.63824606608314,261.32792545802886,147.43228892839159,81.04055749682728,224.24058159885092,80.73469690481024
111.61937425995683,75.2308901607013,257.19831573180454,147.7061691790093,81.12847923556309,226.01134300131352,80.73058688512192
111.77536861450146,75.82995634948132,252.9746665795793,148.00101332534243,81.21619514445926,227.64610160282558,80.73275725810795
111.90333383928704,76.43667709906738,248.66658022725474,148.31144134586287,81.3030188425833,229.14193259610286,80.74093726175228
112.00397764224792,77.05235822388163,244.28384883161365,148.63220102313474,81.38820830234224,230.4966974027463,80.75490914794922
112.0779968238159,77.67850537321331,239.83647960667108,148.9582142430784,81.4710316094131,231.70902747096738,80.77448902356443
112.12609307780649,78.31690249646641,235.3347702628278,149.2845586419696,81.55083685934268,232.77824528380955,80.79950838044059
112.14902061814018,78.9696308926354,230.78939538351233,149.60645452402224,81.6270789036528,233.70424576660378,80.82982492701215
112.14759713034418,79.63913412959715,226.21139929198708,149.91930725561033,81.6992959631246,234.4873748931123,80.86533179818191
112.12266637779753,80.32840976115602,221.61211619822447,150.21876709520092,81.76707018238655,235.12836464629348,80.9059332970197
112.07506989811641,81.04128916090428,217.00310350510867,150.50076853208324,81.82999430890732,235.6283441659307,80.95150972293652
112.00565638788645,81.78261226648432,212.39607588497427,150.76156356950457,81.88763857026353,235.9888492876907,81.00191807790104
111.91528875838556,82.55816208118267,207.8027824240267,150.99775307885858,81.93951511459719,236.21178282706992,81.05702720645188
111.80481597124276,83.37453451985114,203.2348465447749,151.2062911597652,81.985062040335,236.2994068757792,81.11673437187852
111.67503450534937,84.23915256834285,198.70364193773403,151.38444942660288,82.02367710523588,236.25440739148277,81.18094050454377
111.52667431123051,85.16030758924865,194.22023086061398,151.52975877600227,82.05478859823164,236.0799281614492,81.24952356918551
111.36040330110721,86.14703739350574,189.7953158314804,151.63996683616335,82.07790314608576,235.77952069724327,81.32234176286904
111.17681906048098,87.20891384178516,185.43915902439187,151.7130275449031,82.09260413609559,235.3571038833518,81.39924383393398
110.97642074278708,88.35587725245357,181.16148365546292,151.74709103977747,82.09854526712328,234.81698975715145,81.48005431815149
110.75959964588694,89.59805734490703,176.97139315389714,151.74047331058154,82.0954738833935,234.16390595486615,81.5645478095999
110.52668213234321,90.94552898999095,172.87732574613003,151.6916426970234,82.08325171137145,233.4029524699688,81.6524531121427
110.27799087351923,92.40819342510314,168.88703458590822,151.59924913496346,82.06184767998812,232.53950558600255,81.74348622419247
110.01386445389517,93.99590372106013,165.00756019637768,151.46215882229407,82.03135967646266,231.57911828496628,81.83736418941656
109.73464167644433,95.71857052756614,161.24517750433947,151.27946816491018,81.99211093780636,230.52746266604723,81.93378265737526
109.44066281861367,97.58602156011045,157.60533874232243,151.05054626057571,81.94474362462533,229.39030278103854,82.03239918970189
109.13229254237693,99.60784099407327,154.09263597511472,150.7751582583912,81.89021098634488,228.1734412074532,82.13285219804935
108.80992078144638,101.79342948087711,150.710780162103,150.45362690817402,81.82968680473392,226.88262354812804,82.23478591398631
108.47393329375322,104.15208454304138,147.46259264159775,150.08694121937418,81.76447919098258,225.52343591861415,82.33784397352969
108.12470739058676,106.69284154099675,144.35003135000812,149.67678161523176,81.69599354488618,224.10122387054207,82.441649432786
107.76267376245148,109.42416600627823,141.3742640822166,149.22547608222496,81.62571704944156,222.62103929805622,82.54581647168698
107.38839599925919,112.35367368355479,138.535747996529,148.73589540844037,81.55517931552745,221.0876200957109,82.64998952849335
107.00258783483486,115.48787816107455,135.83426809945047,148.21132007612968,81.48589429862434,219.505401432028,82.75385861839783
106.60606323871178,118.83194795580391,133.26894315632256,147.65534784116142,81.41931892675026,217.87853223489265,82.85713528085509
106.19968539184698,122.38952946340284,130.83824171950215,147.0718739954387,81.35682827681958,216.21086779661786,82.95953228240813
105.78436796420297,126.16265367157719,128.5400268338297,146.46508385045965,81.29967847767556,214.50594728424642,83.0607764012969
105.36111070151331,130.15167669935838,126.37161993336815,145.8393827055127,81.24896345719739,212.7669871812846,83.16062577738626
104.93100782517573,134.35519954485156,124.32990245566995,145.19927145165965,81.20562184686318,210.99690109194705,83.2588568166834
104.49521892522378,138.76995428271056,122.41148710760177,144.54922592316933,81.17051621262338,209.19834405103404,83.35523893155445
104.05495323235621,143.39070030773817,120.61292101190618,143.89361678854888,81.14450968482491,207.37379178971787,83.44954124389307
103.61148230865528,148.21019288563926,118.93083443947629,143.23666241404877,81.12846744026322,205.52564327955554,83.54156769620376
103.16613984606983,153.2192357422909,117.36199773867042,142.58240081128977,81.12321708865248,203.6562908831066,83.63116988347652
102.72029728809399,158.40676974940786,115.90333049260806,141.9347287076851,81.12954079295447,201.76812428745257,83.71821801586417
102.27535673722407,163.75997375871717,114.55191984839641,141.2975506877266,81.14821048472047,199.8635098861647,83.80256976233058
101.83277329059098,169.26440286429255,113.30503569317413,140.67494298921181,81.18001995027167,197.944817561617,83.88407489799324
101.3940580925874,174.90416583662403,112.16009584426394,140.07119205985865,81.22577554732946,196.0145026148436,83.96259922116755
100.96073081930189,180.66210131375627,111.11458214318246,139.49070866701157,81.28626355615519,194.0751636201589,84.03802572314024
100.53426023459431,186.51994280861115,110.16596140108658,138.93791271027135,81.36223083417816,192.12951341148317,84.11023364540398
100.116047637529,192.45856288795324,109.31167213629755,138.4171440275006,81.45436706574516,190.1802950313272,84.17909845482335
99.70744642690917,198.45835898707966,108.54917314796963,137.93262228642547,81.56325834066953,188.23020475493948,84.24452297495617
99.30975988322203,204.49964481546243,107.87597089666254,137.48846340618,81.68932651032888,186.2818392683293,84.30645586573723
98.92419779365777,210.56287641138013,107.28957426413812,137.08869867230112,81.83279567576166,184.33766256108515,84.36487179093665
98.5518424092213,216.62870751909273,106.7874167549583,136.7372387418714,81.99370151378395,182.40002026310412,84.41974677684428
98.19366385852828,222.67796284060643,106.36680021910955,136.43781301112807,82.17191542045236,180.47123752389803,84.47106717695625
97.85055080803576,228.69160051024343,106.0248719667643,136.19393544277844,82.36714570353514,178.55375315592894,84.51885600886084
97.52330689889648,234.65067949455218,105.75862328024951,136.00888939360718,82.57892535055352,176.6501747272699,84.56317248593818
97.21263384970926,240.5363303452737,105.5649022717865,135.88572341184994,82.80663528104598,174.76321248365636,84.60408747940879
96.9191519616691,246.32977645672992,105.44043845112837,135.82726060311927,83.04956836133852,172.8955627105811,84.64168294202317
