HandOpen,HandClose,Wrist Flexion,Wrist Extension,Supination,Pronation,Rest
5.413238342915548e-07,0.0,3.247943005749329e-06,3.3832739643222175e-06,2.706619171457774e-07,0.0,9.473167100102209e-07
5.4385082055197865e-06,1.353309585728887e-07,3.520233744600361e-05,3.5851476964875886e-05,2.9222505406192265e-06,2.706619171457774e-07,1.0092545933594404e-05
2.74632475470642e-05,2.002449104601168e-06,0.0001907815629568203,0.00019116061306197367,1.572031524113719e-05,4.952214919212556e-06,5.403363642867565e-05
9.456415130055655e-05,1.6072950476832603e-05,0.0006992895801037058,0.000694974044000539,5.71174533531693e-05,4.156179209439516e-05,0.0001989918355023416
0.0002539566283391099,8.800500664358927e-05,0.0019753602336501615,0.0019631005697379705,0.00016027864231983182,0.00021962541131712965,0.0005822573852165248
0.0005787073879391954,0.000359749714375723,0.004633929271501811,0.004634915343326015,0.0003764649257700636,0.0008418629935730691,0.001471174760639841
0.0011946076015083406,0.0011659466369918535,0.009471809183885543,0.009574004384616492,0.0007844406222557866,0.002547212178084253,0.0033615058481069153
0.002349167675192609,0.0031392711389375,0.017431171085083377,0.017839864464123036,0.0015193414738630402,0.006441103784161966,0.007095711539239444
0.004525356925218671,0.0072861667960951145,0.02955859534104807,0.030643263673952682,0.0028309038344107775,0.01417734569608178,0.01395323046332632
0.008577730982193449,0.01500761087205664,0.046967034978987764,0.04929737569801885,0.005161613672652162,0.027977093502973307,0.025672819181903873
0.01586319548540414,0.028064938372816685,0.070804505407974,0.07517158518903408,0.009219967700964723,0.05058538249810534,0.04440518868746731
0.02834422888610198,0.048510031815181896,0.10223698904034645,0.1096514271606727,0.016030356835983722,0.08517880763159334,0.07262394211943776
0.048641273609551984,0.07860243065144924,0.142459951084466,0.15410917751180261,0.026953633622389783,0.1352472318098283,0.11302418866312192
0.08001327935138226,0.12072707605385177,0.1927465671024082,0.20989498069273366,0.04367536323097159,0.20447040365549818,0.16842514403576897
0.12626624086369484,0.17731759593803642,0.254517977645624,0.2783578429070981,0.06816178739593921,0.29660160060475194,0.24168207173805237
0.1916146649920289,0.250786949155832,0.32940645558621773,0.3608906801290951,0.10259240106289186,0.41536330926014337,0.33560915342925196
0.28052690924588825,0.3434678041544764,0.4192911590296926,0.45897794986187934,0.14928284688814095,0.564358659739026,0.45291663820245087
0.3975753552643768,0.4575684073371806,0.5263008829407199,0.5742268874363897,0.21060915913567957,0.7470106659718246,0.5961691491541617
0.5473022352206269,0.5951568005124007,0.6527833512729131,0.7083760470502454,0.2889397081841448,0.9665531562079197,0.767779630264332
0.7341079090487581,0.758188666813121,0.8012438762100739,0.8632804612239849,0.3865784750277843,1.226089796551,0.9700624321138854
0.9621729510797481,0.9485777328234511,0.9742646966542364,1.0408738336174432,0.5057257247956308,1.5287033861782318,1.2053558675624512
1.2354318630127914,1.168280341275719,1.1744206164829356,1.2431131587151578,0.6484673944830809,1.8775675021329505,1.4761782317047591
1.557605421827629,1.4193548426449496,1.4042010070044646,1.4719160961522917,0.8167997574301369,2.2760147189527298,1.7853424542600935
1.932273553042935,1.703970980325976,1.6659414884035786,1.729100676294755,1.012677950153831,2.7275386909178,2.135972446489642
2.362958928978274,2.0243689828509353,1.9617685781568395,2.016332473418657,1.2380650274400942,3.2357303431502626,2.531424065448017
2.8531954682939165,2.3827861334620226,2.2935674028062683,2.3350809313076843,1.4949637918498206,3.804166818070397,2.9751548075379084
3.406556797904056,2.7813731601605314,2.66298832361739,2.686587595559322,1.7854225967942097,4.436281009764744,3.470584030963598
4.02662420412764,3.222115981250794,3.071497127569232,3.07185428372694,2.1115102977460727,5.135234493469064,4.020965015654579
4.716895548337977,3.7067688482726275,3.520446568353619,3.491659844282488,2.4752628179760823,5.903806461660163,4.629277115285915
5.480664184316281,4.236799363484187,4.0111321259806285,3.9466012091417872,2.878613794858709,6.744312867264087,5.298146263530547
6.320914587097641,4.813348190873431,4.544804752943609,4.437136080197331,3.32332796823405,7.658580727466429,6.029804225523304
7.240272633530692,5.437216786120078,5.122638910427839,4.963600974256652,3.810959336189489,8.647980894743482,6.826082794310788
8.240998213715924,6.108892185896072,5.745686755638541,5.526199315695292,4.342845702317102,9.713468272023611,7.688414590593019
9.324964310107102,6.828585097751049,6.414858855754174,6.124983412848455,4.920119764369281,10.855579420395841,8.617811957541347
10.493598357143636,7.596242821004298,7.1309311704661456,6.759855183523724,5.5437023792456595,12.074409628164132,9.614831847262595
11.747831060350642,8.41153583436043,7.894537285318742,7.430577707219053,6.21427587991333,13.369621563810128,10.679565528940508
13.088104234765042,9.27385590375172,8.706128812453501,8.136771584338822,6.932271839740557,14.74048133317989,11.811667469080174
14.514417643029498,10.182345577777308,9.565940991429635,8.877894373990204,7.697892857720397,16.18587199875401,13.010387275513752
16.026346873123643,11.135930167891654,10.474002593767512,9.653229915738933,8.51114026373189,17.704271963300812,14.274575845251853
17.62301291771075,12.133320980181546,11.43017197354627,10.461904647927799,9.371811828100636,19.29374748780564,15.602689335507856
19.30305627166058,13.173005981710077,12.434147401637837,11.30291285405652,10.27947753438641,20.951996341781665,16.992818269051778
21.064660915333064,14.253264226756569,13.485440140858818,12.175123865737827,11.233466680838811,22.676405505902864,18.442722583446646
22.905602582389683,15.372203339377624,14.583345269626005,13.077275252359332,12.232872839917093,24.464065706561044,19.949840053499525
24.823266250199094,16.527783841280176,15.726930512925998,14.007977072137326,13.276553672249252,26.311751411708652,21.511277456241082
26.814635034992726,17.717815341955415,16.915026558439695,14.965731477510266,14.363115049376011,28.215923119796237,23.12382670222165
28.876304113961076,18.93995470531076,18.146206724997075,15.948945306000484,15.490901644388966,30.17276977689575,24.78401597933965
31.004531853604515,20.191733988355907,19.41878041523105,16.955923612474614,16.65801752681329,32.178246652408376,26.48815457474996
33.1952766050629,21.47059939919514,20.730828855587852,17.984863499279736,17.86236333879767,34.228078773328406,28.232347196956706
35.44418966171464,22.773923946620172,22.08026255153563,19.033870271864025,19.101655220637014,36.3177698944117,30.012507066972088
37.746606488502145,24.098994104895237,23.464849795846323,20.10098451602276,20.373420659996377,38.44266008398663,31.82439222220821
40.097587559034196,25.443009277929526,24.88220475825306,21.1841904032858,21.675005111961283,40.597999154043464,33.663643928276876
42.491991433360724,26.80311384638825,26.32977526978059,22.28140230660773,23.00361180889957,42.7789751346776,35.52579758998081
44.92451639752857,28.176430900494037,27.804864280203184,23.390459561329376,24.35634965131901,44.98070229140522,37.40627511087543
47.38969347758605,29.560064803391374,29.304667970765593,24.50915019633713,25.73025212267631,47.198225212681564,39.300398025200856
49.881884016996324,30.95108897060547,30.826290314803703,25.63524462384048,27.122272550826224,49.42655800873882,41.20343456650217
52.39532663960901,32.34655512173401,32.366729031819034,26.766507589954116,28.529289325002203,51.660715833123035,43.11064474062891
54.92420576440864,33.74352355509518,33.922867109625386,27.900691188229285,29.948128283212913,53.89570825088084,45.01729407299623
57.46268439655385,35.13907983307652,35.491494178179785,29.035538777730274,31.375577376484348,56.12652915812656,46.91865880132312
60.00490298280548,36.530323532674444,37.069340046521724,30.16880731036159,32.80838222179059,58.34818978459584,48.81006046448008
62.54499932720057,37.91435861108391,38.65308825892454,31.298282572242133,34.24324689870259,60.55577874852106,50.6869237453186
65.07716400003237,39.2883138129157,40.23937180682855,32.421772602063406,35.67686383166225,62.744491949499476,52.54481268711603
67.59568114465358,40.64937636718788,41.824780545539234,33.53710163323267,37.10595606293143,64.90961738752641,54.37942782202798
70.09492633989174,41.99480283171463,43.40588607708391,34.642130506696844,38.527296234512896,67.04652366142994,56.186599256390004
72.56936372587184,43.321905872937606,44.97925773950792,35.734791338645344,39.93769954840849,69.15069471701585,57.96230655296731
75.01358659522882,44.6280523058631,46.54145862507811,36.813101410927985,41.33402454953079,71.2177847512709,59.70270784061036
77.42237497219209,45.91069100182864,48.08905193340313,37.87514862784761,42.71320406309554,73.2436364991487,61.40414398739905
79.79071368859634,47.16738237354121,49.618646933642985,38.91907882018701,44.07228468083962,75.22426052120487,63.06312085207177
82.11377616606137,48.395798439088836,51.12696042366148,39.943110532208834,45.4084400480494,77.15583043716418,64.67630740219471
84.3869329230019,49.59370916515739,52.61084429226476,40.94556210140694,46.718960368566975,79.03472308887454,66.24056454552321
86.60579880465207,50.758990627104055,54.067272886928095,41.924858215561564,48.00124909498956,80.8575619996419,67.75297153487675
88.76626436681518,51.88965326228505,55.49332733478393,42.879514838501876,49.25283556836766,82.62121799717009,69.21082142373999
90.86448093294331,52.98385403595554,56.88620449274514,43.808131102408815,50.471380408724336,84.3227910230888,70.61160602810754
92.89684459089868,54.03987937444068,58.24323990050058,44.70940055582732,51.654661750220576,85.95962542923819,71.95302718000508
94.86002597448703,55.0561309073466,59.56191683582014,45.582121737389386,52.8005663919653,87.52935086676383,73.23303117759131
96.75101754626628,56.031142967617036,60.83986086686249,46.425190780607544,53.90711056640354,89.02989281646508,74.44982595138755
98.56714027610084,56.96361386589781,62.07484687384604,47.23759258246157,54.97247351334275,90.45943767565157,75.6018682283065
100.30601525649337,57.852412697104306,63.26482177003715,48.018414208885126,55.995006182973555,91.81640346854881,76.68785863594549
101.96555685804567,58.69655878181513,64.4079119502643,48.766867764613515,56.97321087819072,93.09945939606854,77.70676527415769
103.54399870894713,59.495209513609794,65.50240398983235,49.482292209476086,57.90572712505982,94.30756442415624,78.65784120096218
105.03990071157891,60.247677672263656,66.5467310056487,50.16413544184937,58.79134881060232,95.43996554875575,79.54060582232863
106.45210855959758,60.953452062855625,67.53949238785837,50.811943813294405,59.629051692962314,96.49615687443209,80.35481210358458
107.77970805326662,61.612189098471106,68.47948448966231,51.42536744439253,60.41799614431252,97.47586059053911,81.1004361756572
109.02202672675533,62.22368691885856,69.36570344684928,52.004162162021125,61.157509100396595,98.37905940915441,81.77768588969278
110.17866847044372,62.787877285946,70.19732615380163,52.548175033688786,61.84707862251686,99.20603134109787,82.38699428890745
111.24951955658015,63.30483892758579,70.97370815044161,53.0573288938818,62.486368613590635,99.95733269218894,82.92899445294685
112.2347081126791,63.77479959359893,71.69440577789496,53.53162779463773,63.07522453736508,100.63375075369262,83.4045131015088
113.1345676873291,64.19811099892125,72.35918739874383,53.9711761220469,63.61365340486684,101.23628205819875,83.81459363428426
113.94964740886763,64.57522566592856,72.96801311694011,54.37618122873806,64.10180234036952,101.76613871247628,84.16050775969622
114.68074056894125,64.90670568655507,73.52101092001553,54.746931240726674,64.53996251063076,102.22473642296536,84.4437274361255
115.32887714274423,65.19324684272631,74.01848429182647,55.083776889191086,64.92858448027035,102.61364794731928,84.66588337729817
115.895285560498,65.4356780050376,74.46093924951884,55.38714152972747,65.26827227743817,102.93456580257266,84.82875334207075
116.38137832367438,65.63493156080038,74.84908715652193,55.657541052811965,65.55975503110527,103.18931405751475,84.93428110801835
116.78877270233701,65.7920228273702,75.18381221061696,55.895581633490515,65.80387046316964,103.37988043985348,84.98458269964375
117.11929600836085,65.90806142856994,75.46614244785107,56.10194015099059,66.00158300070083,103.5084103602166,84.98192183544933
117.37494992377113,65.98426785649846,75.69725727053495,56.27735821260013,66.15401166546121,103.577162849406,84.92869039118871
117.5578783854566,66.02196215293887,75.87850984803949,56.422657322539045,66.26242871265593,103.5884839479025,84.8274134039558
117.67038233908983,66.0225359992,76.01142097752845,56.538749818204366,66.32823437127902,103.544819432443,84.68074523582645
117.71495100604591,65.98744170716286,76.09764414078515,56.626626820387536,66.35294404024738,103.44872188650609,84.49143198044361
117.69425044487495,65.91820091882035,76.13893958258625,56.687343642263095,66.33819492187428,103.30281833079358,84.26226928330769
117.61107504808527,65.8164031308487,76.1371724364402,56.722035908757405,66.28574291352338,103.10977695728138,83.99609790952559
117.46832156293155,65.68367999144972,76.09430747250451,56.73195558823798,66.19743464700299,102.87232016552255,83.69582842495126
117.26900058188427,65.5216805008412,76.01237963899636,56.71848171974168,66.07517895555948,102.59325700281224,83.364444484513
117.01623393422707,65.33207290933093,75.8934644676571,56.68309522767089,65.92094438497504,102.27547477251133,83.00497055408896
116.71320900721477,65.11655936258849,75.73967803103649,56.62735044067652,65.73676907832757,101.92188971609028,82.62044636208726
116.36313471313828,64.87687041342868,75.55318899640132,56.55286284393577,65.52474876844897,101.53541080567243,82.2139308584939
115.96924751503754,64.61473756870008,75.33620461325664,56.46129907826541,65.28700035993383,101.11893902328707,81.78850229903068
115.53484073190735,64.33187636641703,75.09093178162156,56.3543539509397,65.02563565996338,100.67536398451296,81.34722795838935
115.06325637786676,64.02999780005318,74.81955238802043,56.23372447955029,64.74276842971575,100.20752737447053,80.89312844723247
114.55784207711561,63.71082271899969,74.52423531550151,56.101099512720744,64.44053231566596,99.71818319272131,80.42916621638187
114.02193102207045,63.376069499045265,74.20715834270142,55.95815989367727,64.1210736718237,99.20999779275368,79.95824298691954
113.45885953339891,63.02742710293129,73.87050244205173,55.80656876230788,63.78652230549525,98.6855760292634,79.483174142311
112.8719699270213,62.66654753388535,73.51642682473428,55.6479512335714,63.438972825825005,98.14746164963027,79.00664706323538
112.26456764421103,62.29506031943669,73.14706169276353,55.48388469902642,63.080485902242536,97.59810012028835,78.53120408723998
111.63987612575932,61.91457652275494,72.76452242485499,55.31590892300106,62.713084320597446,97.03981343971701,78.05925972449862
111.00104043001762,61.5266670417802,72.37091183328354,55.14553530451717,62.33872777519653,96.47482786242459,77.59311022677993
110.35115671727259,61.13284263300103,71.96829444257587,54.974234552252256,61.95928632030686,95.90532225124892,77.13490740335894
109.69326661305462,60.734563318262886,71.55866988216519,54.803415611207384,61.57653935069769,95.33343428978546,76.68662518084732
109.03031550639638,60.33326144376403,71.1439774259279,54.63442044003774,61.19219275166968,94.7612233545303,76.25006195818585
108.36513182470588,59.93034159884704,70.72612003214144,54.46852750081982,60.80788107095417,94.19064741180844,75.82687575383773
107.70044451508241,59.52715499375757,70.30696646792289,54.30693862416795,60.4251459344828,93.62357873448542,75.41860481245405
107.03888901691619,59.12498539959464,69.88832139520461,54.15075135857672,60.045423517623206,93.06181664663603,75.02665532173215
106.38297178344564,58.72506726087397,69.47189853832144,54.00094277627452,59.67006675152515,92.50706499541104,74.65229547239177
105.73503643286865,58.32860726610355,69.05932313139549,53.85837261643332,59.300377501352635,91.96091131898886,74.29667762135946
105.0972799580483,57.93677625056158,68.65214321584185,53.72378572793234,58.93760988924261,91.42485221798837,73.96085300464841
104.47179344406922,57.550684329982694,68.25181887235487,53.59779964095244,58.58295041006875,90.90033650793357,73.6457495697009
103.86056549362868,57.17137543074129,67.85970003224307,53.48089265322168,58.23750804247635,90.38876605127648,73.35213887124318
103.265447868011,56.79984507663591,67.47702628467354,53.37341433309432,57.90231895052324,89.891455796108,73.0806373957833
102.68814172685688,56.437048279078915,67.10494672690136,53.275610185579524,57.57834043272871,89.40960999904019,72.83174190258947
102.13022265736357,56.08388093497335,66.74452472523994,53.18763073063319,57.266425011192645,88.94433853238361,72.60585083354442
101.59315419153069,55.74116324004795,66.39671543029351,53.10951763982611,56.9673006431855,88.4966714077324,72.40325252298807
101.07825857218867,55.4096543187315,66.06234562541042,53.041193711040215,56.68158331510436,88.0675369652807,72.22411964249441
100.58668694356633,55.09008058320338,65.74212463078943,52.9824798331862,56.40980847560354,87.65773739262309,72.06853410765007
100.1194375059108,54.78313823610575,65.43667191357977,52.93312498477217,56.152443493648065,87.26796685115396,71.9365087249836
99.67739702264262,54.48946677264061,65.14652446361546,52.892819071415204,55.90987254191841,86.89884990460959,71.8279732285522
99.26134561508961,54.20963180239821,64.87212162599364,52.86118754023126,55.68238760189193,86.55094496557041,71.74274525690922
98.87192629884157,53.94414032819969,64.613800174867,52.83779322750597,55.47021298907587,86.22471402360736,71.68052798039417
98.50963796600051,53.69346115166207,64.37180982892212,52.8221540370259,55.27354168137064,85.92051352031966,71.64093600008188
98.17486844820938,53.45801581014616,64.14632101422374,52.813756364393235,55.09254301134396,85.63862465263088,71.62350916346972
97.86791511023566,53.23815133734973,63.93740660484091,52.812051190408035,54.92734279813419,85.37927380569425,71.6276994389784
97.58896099192668,53.03413135575316,63.74501787483806,52.81645131906318,54.77801196512977,85.14260724211785,71.65286646343695
97.33805093459277,52.84615101852897,63.56898091774714,52.82635145157306,54.64457627199486,84.92865564818374,71.69830147290948
97.11511805835485,52.67434453559946,63.40900766590577,52.84115764086927,54.52702148200357,84.73733987426317,71.76324766119967
96.92003322095336,52.51876869704188,63.26469615049102,52.86029437360232,54.42527714977642,84.56850880360315,71.84688836420028
96.7526127031155,52.37938829163997,63.13551547887844,52.883186908656214,54.339201715151844,84.42195423517775,71.94832363729155
96.61258521790003,52.25609130536735,63.0208010992635,52.909250968362656,54.26859553052595,84.29738473589411,72.06657484968358
96.49958068153508,52.14871928982872,62.91978090713719,52.937912332903146,54.21322770943491,84.1944083912713,72.20061745192093
96.41315924293332,52.057076042034,62.831613873383056,52.968636958632636,54.17284131902956,84.11256749458558,72.34940062949121
96.35282710553471,51.980910211661076,62.75540527274286,53.000937988245354,54.14713325657734,84.05139097497488,72.51183958777668
96.31800737692414,51.91990759343091,62.690195865927315,53.034360361784586,54.13574217010902,84.01040258144153,72.68681833371151
96.30801192787249,51.87371467505213,62.634959361636426,53.068471366136535,54.13826556050966,83.98908727689208,72.87322175129893
96.32206452089919,51.841965656271846,62.58863034073249,53.102867021221286,54.154282844048986,83.98687399247795,73.06996004650388
96.3593473327291,51.82427894253839,62.55014023927668,53.13717488297575,54.183352302896914,84.00315918191153,73.27595486584757
96.41900799892032,51.820234771040134,62.51842857919504,53.171039372267394,54.22499074057237,84.03732823711164,73.49010998286572
96.50012882622772,51.829370105013645,62.49243572454684,53.204105829418936,54.27866935893219,84.08873879652317,73.71130841897674
96.60171856710396,51.85119629463895,62.47110631283763,53.23602616278159,54.343831671716245,84.1567005072532,73.9384381549344
96.72274600387783,51.885208374052006,62.45340583844785,53.26647850560286,54.41990597896694,84.24049820763865,74.17040691128703
96.86216326647299,51.93086885481774,62.43832589814282,53.29517154354291,54.50629791764946,84.3394346024081,74.40612962901751
97.0188839953118,51.98759216462941,62.424870900404024,53.321826220838375,54.60238817964583,84.4528331229793,74.64452249242807
97.19175828698549,52.0547600083962,62.41205617288932,53.346162326039455,54.70756011212255,84.58000093379191,74.88452423116752
97.37959402560968,52.13175443015567,62.398943449011256,53.36791327178467,54.8212347069813,84.72021006305437,75.12511414395581
97.58119952480112,52.217969280924905,62.384689285006196,53.38685237867762,54.94287388051392,84.8727210617379,75.36529707608
97.7953895056379,52.31279249603942,62.368560317320416,53.402797993947985,55.071956842403026,85.0368044313785,75.60407511749156
98.02095891812733,52.41559480915921,62.349910404643985,53.41559714694337,55.20796768148256,85.21172358511959,75.84044813726385
98.25668059484192,52.525748999410034,62.328157194021834,53.42511727139304,55.35040641468125,85.39671477406475,76.0734456009626
98.50133802696696,52.64265369406124,62.302788100285206,53.43126007342039,55.49879583802841,85.59101110457661,76.30214735211266
98.75374117421894,52.76572661581912,62.27338268160783,53.433975864945104,55.652664112592056,85.79388710509748,76.52567605337504
99.0127052893304,52.89437843199079,62.23961637446083,53.43325482584305,55.81152289795407,86.00466455736799,76.74319573090251
99.27706048060746,53.02800862955959,62.201242364636705,53.429107271149945,55.97486840352897,86.22267629913911,76.95393507906604
99.54574413466854,53.16603368220171,62.15808077439739,53.421560320260994,56.1421973677827,86.44724105837251,77.1572034477034
99.81790411877594,53.307909662359336,62.11002261311535,53.410668804945026,56.3130077453619,86.67767444539398,77.35237223070874
100.09291343290732,53.453119031360195,62.057023573135496,53.39651374922414,56.48677785438682,86.913298829081,77.5388445648107
100.3703169842178,53.60114223294023,61.99907713481712,53.379180690954186,56.66295272783418,87.15342087981574,77.71605623037928
100.6497968419715,53.75145545222671,61.93619167265193,53.35874197043169,56.840960604235114,87.3973097055244,77.88350794691858
100.931169840029,53.90356088885472,61.86839409912183,53.33526410901548,57.02024008678026,87.64421856855998,78.04078246479577
101.21436194069585,54.057011335929886,61.79574425244791,53.30882660138966,57.20024304806576,87.89342666125152,78.18752654656981
101.49933745443853,54.211398773320724,61.71832933534748,53.27952341081117,57.38041580522531,88.14424398405795,78.32343394503641
101.78602879564373,54.36632500961864,61.63623903348524,53.247446245406366,57.560191626126596,88.39597817305015,78.44825396799845
102.07431494596666,54.521394076963745,61.54955116544394,53.212676007810536,57.73900470189035,88.64792179699069,78.56179974788212
102.36403497391673,54.67623552018051,61.45834419924548,53.1752947484357,57.91629948349717,88.89939087420767,78.6639295419647
102.65498327630182,54.83052471788718,61.362716307276074,53.135397754961566,58.091517811097425,89.14976822121837,78.75451959290604
102.94687651674735,54.98397073915179,61.26278394620628,53.09308548799024,58.26408604910168,89.39849699689864,78.83346658788174
103.23933876758181,55.13628778468549,61.15867036473463,53.04844868278237,58.43343376579123,89.64504518544919,78.90071827665092
103.53192368350408,55.28718894480437,61.05051721760646,53.00157197191155,58.59903486126004,89.88890195149513,78.9562895214922
103.82412991504654,55.43641061079459,60.938517506497575,52.952551612725955,58.76042821596467,90.12961089570943,79.0002497278865
104.11537846715098,55.58373194109217,60.82293007703183,52.901502328335816,58.91720212349175,90.3667836541744,79.0327179513727
104.40498835581108,55.72896080657139,60.70405936835095,52.84855457606414,59.06897581021796,90.60006684161016,79.05388257514781
104.6921972057744,55.871905337280744,60.58223512794887,52.793877459303694,59.21540813064937,90.82910912487414,79.06401245477447
104.9762067705709,56.012369026161394,60.45783207712846,52.737741586670964,59.35621634587093,91.0535776002091,79.06343306241932
105.25619607536795,56.15017422675011,60.331317693846195,52.680579294769835,59.491171208721674,91.27319826869608,79.05248769734709
105.53129687111498,56.28517847470264,60.203274312738294,52.622995821002085,59.62007059448537,91.48775841741069,79.03151926098157
105.80058258844564,56.41725742549719,60.07437291839244,52.565740163885216,59.74272125827738,91.69706685623927,79.00087373780981
106.06309379085606,56.546274516949,59.94533669269913,52.50966990633794,59.858937708072716,91.90093203631821,78.96089546622794
106.31786109674172,56.6720760991393,59.81693317545444,52.455718761143835,59.96853801757705,92.09918954373526,78.91190672356792
106.56389645027186,56.79451734152494,59.6899807629219,52.40485610535463,60.071324506734015,92.29173336766299,78.85420128995452
106.80018829856985,56.91348206336783,59.56533353701136,52.358042384445575,60.16706910294761,92.4785010417227,78.78806674912163
107.0257426176384,57.028869073425085,59.44384725415358,52.31620627790875,60.255528009149344,92.65943463735037,78.71380642329652
107.23964209978776,57.14056427666487,59.326360036770915,52.280258295459774,60.336473288246886,92.83447148152317,78.63172837924469
107.44106153656976,57.248436069605035,59.213694728691486,52.25112056595693,60.409703844724156,93.00356621230688,78.54211357151702
107.62923710859882,57.3523606775341,59.10665409613342,52.22974609781839,60.47502760743517,93.16669482282549,78.44521127615414
107.80344704564183,57.45224331578945,59.0059930729109,52.21713483468437,60.53224909624613,93.32382023423287,78.34127923632039
107.96302843673506,57.54800630365956,58.91239200912623,52.21437579622467,60.581189504932794,93.47486379749202,78.2306204389821
108.10738910570568,57.639560430037,58.826459690790294,52.222703898726614,60.62171928067102,93.61972645837304,78.1135728410563
108.2359827253689,57.726798243176255,58.74875468963282,52.243514039378454,60.653765758263624,93.75833290884742,77.9904774864855
108.34828211549855,57.8096179665693,58.6797878810055,52.27831665835683,60.67729551116745,93.89063900315793,77.86167462051449
108.44379905996968,57.88794368949826,58.61999955878343,52.328688231501815,60.692302881391235,94.01659861619025,77.72752839423089
108.52213156602429,57.96171330458417,58.56974903888496,52.3962549046986,60.69881753923938,94.13614511331912,77.58843733136038
108.58297656793061,58.03085143454427,58.529345428839626,52.482684107303996,60.6969096719283,94.24921786054193,77.44481574860232
108.6260989639766,58.09526513289451,58.499091841653225,52.58965237691981,60.686677268260716,94.35579428758172,77.29708128137207
108.6513110040811,58.15486991217681,58.47929523920789,52.71880507993793,60.668237536476504,94.45587958166104,77.1456701991176
108.6584887516334,58.209611761378056,58.47024193469767,52.87173644598687,60.64174673145589,94.54947157830621,76.99105288737141
108.64758542737303,58.259456232447974,58.47217583280066,53.04998474661597,60.60742733239217,94.63655275302857,76.8337184086561
108.6186071181672,58.304361122642995,58.485291640560426,53.25502040368116,60.56556519137086,94.71711234489429,76.67414381569318
108.57158293817601,58.344271196842655,58.509722184403415,53.48821865263815,60.516481882348415,94.79115138880033,76.512791766617
108.506576799202,58.37914413829951,58.54551078123145,53.75082593924494,60.46051866386337,94.85865232058175,76.3501410183511
108.42372369117007,58.40897389505716,58.59259176208356,54.04392661258127,60.39804249274358,94.91955706274102,76.18670377570267
108.32323340267403,58.43378112788617,58.6508001759861,54.36840245159856,60.32944768815315,94.97379348672219,76.02300731065162
108.20535399470263,58.45358643343758,58.71989400545143,54.72489048731081,60.2551362449561,95.02132045981601,75.85957378606238
108.07034541553985,58.46840640519862,58.799556639292625,55.11376843195186,60.175497571113965,95.06213281013578,75.69692440447795
107.91848946648214,58.47828207757032,58.889379490717225,55.535178574043954,60.09091356618424,95.09622588272862,75.53558476740126
107.75010094198346,58.483302127236605,58.98885807387823,55.989057687031085,60.00177859759142,95.12357797860885,75.37606294694638
107.56550958153667,58.48358843732354,59.09742023172608,56.4751380823357,59.9085021474834,95.14418210429916,75.21881596960861
107.3650447687246,58.47926294713149,59.21445947517815,56.992926936123965,59.81148871383663,95.15808448654013,75.06424713929387
107.149066460932,58.4704383999675,59.339338114284175,57.54169327615138,59.71112549032588,95.16537805130068,74.91273876324644
106.91801876459718,58.457242436729835,59.471368852783236,58.12046876602039,59.607798139717815,95.16616937167798,74.76467379568032
106.67244272420997,58.43983948283252,59.609811161049265,58.72804946221739,59.50191132869533,95.16057408269752,74.62042177137825
106.41294032127364,58.41841980804511,59.7538908226405,59.362999709680324,59.3938828305374,95.14874290569672,74.48032115792724
106.14014592010298,58.39317130220782,59.90281428488212,60.023666403377504,59.28412114248035,95.13086734251401,74.34468415808045
105.85473524536557,58.36427284274371,60.055760292643676,60.70819389676562,59.17301833511483,95.10714508075192,74.21380311005858
105.55743430703683,58.33191853335135,60.211872012438185,61.41452294741163,59.06096060529572,95.0777518451727,74.08793182682975
105.24899380356574,58.296337033434604,60.3702776528387,62.140376687637215,58.948329661605314,95.04286640693513,73.9672556486701
104.93016107550828,58.25777549434077,60.53012535587347,62.88325824443784,58.83548305986513,95.00272186301575,73.85189227452692
104.60169804967413,58.216466921918766,60.69059487616703,63.64047801041624,58.722736947339016,94.95761564434135,73.74193291666116
104.26442632912604,58.172622507501664,60.850882799988916,64.4091941127619,58.610376965950756,94.90786772102378,73.63747625219749
103.9192365461888,58.1264577514757,61.01019785483115,65.18643438041482,58.49868491928942,94.85378773789687,73.53861580626553
103.56705162931046,58.07821549628613,61.167787972061475,65.96909726817493,58.387945601779975,94.79569185153804,73.44540553079881
103.20879839502462,58.02815390701279,61.322972189209004,66.75396009637804,58.27842674424617,94.73393124481898,73.35785534770122
102.84541793981029,57.97651578447244,61.475140959778344,67.53771314654239,58.17036608296763,94.66887966435851,73.275964123723
102.47787713605618,57.92351907285583,61.6237337403351,68.31700284449595,58.063994135196175,94.60089799347011,73.19974375876552
102.10714353637023,57.86937798034857,61.76823211254925,69.08845836595769,57.95957175497257,94.53033337344189,73.12920714668921
101.73415370483184,57.81432054342937,61.908174887538976,69.84872281386117,57.857399639943395,94.45755505966079,73.06435163391494
101.3598260146221,57.75857344396467,62.043162278545296,70.59455320421658,57.757798222374674,94.38296881430739,73.00516685955812
100.98510244113542,57.70233174036883,62.17283276106418,71.32298645256807,57.66109389878139,94.30698382950425,72.95164611268541
100.61095702704664,57.645752863030076,62.296843350269896,72.03146022382288,57.56762473190112,94.22998033500856,72.90377084267175
100.23835892018656,57.58898165058748,62.41488996886038,72.71782027891196,57.47774011902285,94.15232505739391,72.86148086085565
99.86824255145501,57.53217036099286,62.52675390825718,73.38026977710368,57.39177737720872,94.07440703938589,72.82467418595296
99.50151543630606,57.4754659202495,62.63232291634927,74.01732068564489,57.31003642312903,93.99663416631445,72.79324533750786
99.13906742587815,57.41898298345348,62.73156903031684,74.62774482234434,57.23277950105418,93.91938994008726,72.76711357739987
98.7817450874154,57.362800853713495,62.8245210652266,75.21052960080338,57.16024691553507,93.84301111783647,72.74621019961994
98.43032151435247,57.30699132833032,62.91126768992995,75.7648926436376,57.09265699357874,93.76781949265938,72.73045765574712
98.08551252882431,57.25164232046313,62.99197518988612,76.29036994913237,57.030183581425455,93.69416304003758,72.71977434376454
97.7480239769655,57.19684794567403,63.066880804577636,76.78688434937155,56.97294150407627,93.6224099174465,72.7140872627174
97.418566537386,57.14268196837805,63.136259673684094,77.25471328040256,56.92100442022039,93.55291123374634,72.71331904272358
97.0978240857833,57.08919389805978,63.200398946297646,77.69439191229418,56.87443421031528,93.48598894890506,72.71735349290729
96.78642938716963,57.03643706028027,63.25959401624124,78.10662833465877,56.83328487467689,93.42195507094715,72.72601582159719
96.4849797912326,56.984492740243994,63.31414567493979,78.49226442301934,56.79758475141978,93.36111408512232,72.73908244403665
96.194054704858,56.933458439506005,63.364343298204254,78.85226423878918,56.76733143249447,93.30372701888828,72.75629167462182
95.91419453148048,56.88341718900808,63.41045629793793,79.1876896268403,56.74250704237188,93.24998007428451,72.77733023254241
95.64587210779715,56.83442959437235,63.45275603454982,79.4996541699324,56.72308659184896,93.20000309983651,72.80181913601514
95.38951217230026,56.786559482448816,63.491544989663566,79.7893075960578,56.70902239994797,93.15391424045741,72.82934044645079
95.14554401490267,56.73989739736856,63.5271562382806,80.0579332103365,56.70022282631292,93.11182965776804,72.85949583778742
94.91441850148543,56.69454913073571,63.55993162633986,80.30715089011437,56.696553455730616,93.07383143900311,72.89194039981734
94.6965723880774,56.6506049724278,63.59021569536187,80.5390738103433,56.69785879662204,93.03995220929902,72.92637581509179
94.49239586260194,56.60813060933473,63.61836891089076,80.75630525327139,56.703972338052594,93.01021200182251,72.96255039069632
94.30223960030412,56.56719049255267,63.64476768045391,80.96182030158576,56.714700836508335,92.98466381923733,73.0002864280861
94.12642634274019,56.52786885234157,63.669776642254945,81.15881393512993,56.729812253730685,92.96339047383957,73.03949400571076
93.96522806995844,56.4902569886257,63.69371993957408,81.3505566986434,56.74905495602581,92.94646818423638,73.08014382641973
93.81883679048043,56.45442273304524,63.716884023152666,81.5402983183611,56.77218735285823,92.93395634973716,73.12222995716147
93.68737903471799,56.42040193673117,63.73954561815707,81.73126241473184,56.7989799204644,92.92592268665715,73.16576692139037
93.57095822334864,56.38822259814539,63.76198547852721,81.92671349892103,56.82919234828327,92.92245168206951,73.21081742141862
93.46966231781228,56.35792772106503,63.78447106114481,82.12999696059934,56.86256329952663,92.9236086702737,73.25750281127404
93.3835243276938,56.32956503423209,63.807238109962235,82.34448838071044,56.898830034989864,92.92940260275293,73.3059800145266
93.31249153174315,56.30315756187856,63.83050012902027,82.57349624065843,56.93775094800791,92.93979598702153,73.35642715890054
93.2564452171234,56.278694178155504,63.854468546599904,82.82017984449385,56.97910122548126,92.95474046303278,73.40906090986867
93.2152396962488,56.25615129220949,63.87934875063541,83.08750713829785,57.022653820399384,92.97417880324987,73.46414817459964
93.18870508003351,56.23551289542787,63.905313662447675,83.3782865147872,57.06817572516008,92.9980067664268,73.52198139730181
93.17662139614661,56.21675926196735,63.932488450002396,83.69528199449117,57.115437624804095,93.02605098049906,73.58284322508858
93.1787199204138,56.199840158404854,63.96095981215703,84.04132970476572,57.16421061455511,93.05809652102455,73.64700346519164
93.19471838225826,56.18467179640751,63.99078407086732,84.41936659789206,57.21424606939445,93.0939231964376,73.71474582920358
93.22433406298694,56.171167058194186,64.02197238642187,84.83236511266298,57.26526855256443,93.13329889691401,73.786378138157
93.26724925195447,56.15926323411559,64.05447129124562,85.28321981212828,57.317001321929965,93.17594671044472,73.8622102624566
93.32307895958226,56.14891648122781,64.08816567892458,85.77464296324546,57.36919809270222,93.22154041454243,73.94254130022637
93.39139378232026,56.14008165708216,64.12289566975326,86.30911672073464,57.42164560834114,93.26973477416827,74.02767793351101
93.47177293370517,56.13271333766891,64.15845761947448,86.8889405194432,57.474145564882654,93.32018042027352,74.11794728105582
93.56381853995485,56.12678572769319,64.19458627411446,87.51639623020884,57.52650896834801,93.37249693420372,74.21367345329138
93.66711842770066,56.12229688333901,64.23094941685844,88.19401549440464,57.578567368694586,93.42624511713689,74.31514113791707
93.78121467641121,56.119246225981314,64.26717441291372,88.92487061263283,57.630175045322304,93.4809437054835,74.42258867074086
93.90562013615416,56.117617462130475,64.30288060535204,89.71273757321961,57.681188999761,93.53610953248076,74.5362311470974
94.03985244781835,56.11739276631343,64.33768114451892,90.5620427888681,57.731448122226496,93.59126645026987,74.65626866281488
94.18343166327084,56.1185767903314,64.37115689044772,91.47767487072186,57.78077780272618,93.64591873359366,74.78286102736764
94.33584943526338,56.12119453130362,64.4028340401502,92.46476751667895,57.82901118464798,93.69954271695534,74.91610849536477
94.49656541576125,56.125266123058516,64.43218260641001,93.52846950404397,57.8759938398995,93.75162829711687,75.05606420448727
94.66503923613696,56.130795060389886,64.45862187766437,94.67370030059247,57.9215642697969,93.80172817238268,75.20274713314
94.84074345776291,56.13778520797211,64.4815135619377,95.9049244567777,57.9655418455795,93.84946021556823,75.35612929562576
95.02312950112143,56.14625689788579,64.50014834988497,97.22596852188396,58.00774637591713,93.89448043939034,75.51612168378013
95.21159227014068,56.15623273947681,64.5137503378075,98.63986751607025,58.04802743740459,93.93648372081952,75.6825873856855
95.40548640522901,56.16770708726549,64.52150769635895,100.14872964092167,58.08626741728027,93.97523403713541,75.85536343454302
95.60417469503976,56.1806359143802,64.52260533478204,101.7536371921671,58.12236193810292,94.010571075061,76.03425395959128
95.80704272691801,56.19495750302672,64.5162350996665,103.45460108085389,58.15621072774844,94.04237368280259,76.21899927271328
96.01346474488508,56.210612755949555,64.5015972359985,105.25055035541952,58.18772868290659,94.07052716741572,76.4092661509851
96.22277771598871,56.22753559757111,64.47792138542734,107.13932202146773,58.216852221929884,94.09493938867315,76.60467395331611
96.43430661588847,56.24562727248344,64.44449923027334,109.11764658155946,58.243524878375155,94.11558106763643,76.80481397745974
96.64740686719982,56.26475238459142,64.40069570445924,111.181156290321,58.267684482797094,94.13249051870919,77.00923417068462
96.86146613613582,56.284767139446316,64.34593245249135,113.32443291207129,58.2892773264303,94.14573660580888,77.21742000099765
97.07587346508232,56.30554562409498,64.27967327405922,115.54108116498517,58.308282441446636,94.1553977784526,77.42880402889996
97.29001322101864,56.326971379329045,64.20143877576787,117.82381499615252,58.32471077695035,94.16159154277446,77.6427877095927
97.50329499859083,56.3489075645079,64.11083927947962,120.16456161196908,58.33857940523322,94.16450945527791,77.85873995380513
97.71516820001058,56.371186221709245,64.00758907276048,122.55457267508173,58.34989369346535,94.16440244395363,78.07597559527086
97.92509608522805,56.39363176631948,63.891490467371526,124.98451310425281,58.35865444764595,94.16153702063797,78.29375542964503
98.13253444686589,56.41608695996248,63.76241711431357,127.44452101605499,58.36486880088806,94.15618236950256,78.51132018752604
98.33695819190997,56.43840875710912,63.62032198730277,129.92427638216256,58.36854162487882,94.14863381277898,78.72791415112557
98.53790528990397,56.460449649484865,63.46525525997018,132.41312604253537,58.369661900068024,94.13921961639605,78.94276690202206
98.73497910338946,56.48206027697802,63.29736493074229,134.9002516545521,58.368211900172355,94.12826533779044,79.15506551210294
98.92781449883273,56.503112059913924,63.11688907243868,137.3748060186651,58.36419118290661,94.1160592158707,79.36396865170597
99.11606629212383,56.52350502078203,62.924166188023456,139.8259797013436,58.35762121951557,94.10286548751563,79.56866121381553
99.29943371777392,56.543148059473005,62.7196527274428,142.24303236141878,58.348523021545084,94.08896251157518,79.76839405897768
99.47766875148447,56.56194254553116,62.50391418454815,144.61532910352983,58.33689966609491,94.07464641969277,79.96248433706667
99.65053966580777,56.57979680613086,62.27758924579078,146.93238946290552,58.32274927600126,94.06019476504417,80.1503175632803
99.81779593005444,56.596652160986054,62.04136213531456,149.1839491253547,58.30608909015052,94.04584624030734,80.33137540303042
99.97918779481417,56.61248268769357,61.795968871789434,151.3600345722506,58.286955512026005,94.03182909455089,80.50525218412251
100.13451770789595,56.62726959642819,61.5422194969408,153.45103072447978,58.26538250513885,94.01839656501011,80.67163244170337
100.28365352789324,56.640988635913004,61.28099736501895,155.44772009136238,58.241392352394875,94.00581673707464,80.83025769809481
100.4264888812259,56.65362866864712,61.01323081557246,157.34129624226844,58.21501360230697,93.99433376361614,80.98091844119323
100.56291143213403,56.66521137598835,60.73987156429665,159.12336503092976,58.18630151529673,93.98415582797067,81.1234620341026
100.6928251616465,56.675780229561255,60.46190123324241,160.78594893599336,58.15533362409518,93.9754747859879,81.2577808159003
100.81619208025873,56.685370784125865,60.18034441086851,162.3215091466522,58.122190860911374,93.96846786892456,81.38377623116779
100.93303200981643,56.693998078504954,59.89625924071926,163.72298073118154,58.086954039432555,93.96326077115614,81.5013357184324
101.04338701175199,56.70167191637681,59.61071842317033,164.983798793618,58.04971617610886,93.95989730006286,81.6103423802676
101.14731145261992,56.70841134889587,59.32481502014958,166.09790785701156,58.01058259563213,93.95835818995414,81.71068905061364
101.24490115749165,56.714230760948034,59.03968696892213,167.05977548232292,57.969649817331884,93.95860176325976,81.80226632983276
101.33630597724131,56.719110216744575,58.75651896471527,167.86442986210085,57.926991200062254,93.96056906363134,81.88493894782529
101.42169524062729,56.72298534201038,58.47651003731194,168.50750573683868,57.88267355798001,93.96415058870485,81.95854731325991
101.50122339130945,56.72576732394477,58.200842204977704,168.98526669025182,57.83678589622833,93.969168500269,82.02293625980477
101.57504702738139,56.72736347376963,57.93068058195712,169.29460222531753,57.78944392578653,93.97540664984808,82.0779719115527
101.643366925373,56.72766919510846,57.66718787954575,169.43302663051065,57.74076969162365,93.98265138539995,82.12353284015497
101.70643225526389,56.72654260418396,57.411517313776386,169.39869187484624,57.69088075379994,93.99069089034506,82.15951180131768
101.76450731093219,56.723798795283194,57.164785268020765,169.19039769790518,57.63990684818624,93.99928422313043,82.18584447457255
101.81785816968026,56.719237485468476,56.92805687650378,168.80758111070816,57.58800848516231,94.00815441505011,82.20252814711152
101.86677438588292,56.71267198067697,56.70235324054317,168.25029131752783,57.53536846742291,94.01701707522285,82.20960161392635
101.91157594323818,56.703925533778836,56.48865153034339,167.5191747157374,57.48216833336375,94.02559700728256,82.20711270181349
101.95257945267197,56.69280724964367,56.2878610057575,166.61548286341002,57.42857890437197,94.03360619002794,82.19511917927991
101.99006918797677,56.67910695023706,56.10079838734388,165.54108262382252,57.37476400538563,94.04072489744195,82.17372243527949
102.02431795669395,56.66262268878545,55.92818769466642,164.29844183370764,57.32087280901734,94.04662772583633,82.14308515292052
102.05562755531216,56.643189913465,55.77066996225124,162.89059773263614,57.267015331645965,94.05102334950885,82.10341306999295
102.08432894254996,56.620680696139736,55.62879247190429,161.32113454350124,57.21324726552493,94.0536534434729,82.05494100735334
102.11074624716099,56.59498636506861,55.502980721795694,159.59417397678848,57.15958617478577,94.0542612599981,81.99794979901702
102.13518185024763,56.56601775167854,55.393530077653914,157.71435726189733,57.106041664571755,94.05258541995038,81.93278141347756
102.15793762279749,56.53372479759694,55.30063621975069,155.68680843019774,57.05262379894884,94.04838861990541,81.85981814474455
102.17932291031369,56.49810328073135,55.224432018348054,153.5170991048501,56.99932576751963,94.04147085384777,81.77944566303485
102.19962041164868,56.45917502654844,55.16499006139337,151.21123618464603,56.94611266845226,94.03163982054676,81.69204360848133
102.21905271138195,56.41697090391961,55.12229946010509,148.7756588630435,56.89293852508277,94.01867914283106,81.59800667516744
102.23779737656837,56.37154291741484,55.0962557282234,146.217214105081,56.83977224286479,94.00235939941402,81.49775457185865
102.25602588786246,56.32298640141645,55.086674464509066,143.54310811053358,56.786600332173464,93.98247241560375,81.39171414420554
102.2739065041959,56.27143752509141,55.09330155846375,140.76086225765553,56.733411551282124,93.95883558659179,81.28030817962453
102.29157168809998,56.21704848200615,55.11580150345661,137.87829198960205,56.68019630435499,93.93126041974112,81.16396988754111
102.30910744614958,56.159976565618464,55.15374736751562,134.90349162889783,56.626965396558504,93.89953739880082,81.0431520576106
102.32658109321747,56.10040276194296,55.20664204444871,131.84479908216755,56.573757425241936,93.86347074609759,80.91830595825701
102.3440568495106,56.038549292509074,55.27395539411739,128.71074420522635,56.52062130363102,93.82292444191872,80.78985391069969
102.36156874803797,55.97466480237492,55.35513623624336,125.51000576081289,56.4676008549698,93.77782375903186,80.65819402650206
102.37909333527274,55.90899014314325,55.4495914640603,122.2513848766478,56.41474600919888,93.72812230352699,80.52373192850303
102.39657053553248,55.841742909765365,55.556666647038924,118.94377573185619,56.36213317942257,93.67379020011897,80.38689478015414
102.41394818943745,55.773134088600614,55.675658060033555,115.59611822361194,56.30986241199274,93.61483678338875,80.24811488517349
102.43118933991722,55.70338665159217,55.80584236478463,112.21734896142411,56.258034115974546,93.55132134131166,80.10782296996673
102.44824004180256,55.63272465896354,55.946487045686744,108.81637388522923,56.20673918376274,93.48332476388485,79.96647139634405
102.46501333645837,55.56134457456793,56.09683754272678,105.40205232349302,56.15607768152761,93.41092320769327,79.82455128903113
102.4814096194202,55.48940576614433,56.25611258359397,101.98316422818871,56.10618006296883,93.33421017170383,79.68257076032417
102.49732846116883,55.41705202455745,56.423519610011006,98.5683595151367,56.057202274002734,93.25334263382574,79.54101568294415
102.51264171335923,55.34443311457077,56.59826443798347,95.16611838177052,56.00930569513818,93.1685496118292,79.40033983657489
102.5271670818433,55.27169522757009,56.779538340168614,91.78473896996789,55.96265117983918,93.0800962871498,79.26099031370492
102.54068958922956,55.19895313154917,56.9665064734116,88.43232938600241,55.917407266569214,92.98826159491284,79.12342278846407
102.55300769819249,55.12628310760469,57.1583250118883,85.11677577811737,55.873746513104344,92.89336588791267,78.98808357553523
102.56394309539925,55.05374952614221,57.35417088030502,81.84569619683666,55.83182285389571,92.79580818010164,78.85539345930269
102.57331102045003,54.98143228234234,57.55324700039016,78.62640892332055,55.79175852588871,92.69605643064827,78.72575843990681
102.58090713279255,54.909421664266056,57.75476042759841,75.46591842373321,55.753665051177094,92.59460486749072,78.59958004988064
102.58653087955271,54.83779159564782,57.95790788747536,72.37089712171004,55.71767728936613,92.49195751221818,78.47723656281947
102.58999884887317,54.7665891594068,58.16189228809007,69.34765328386639,55.683959069282075,92.38864756058138,78.35905257104781
102.59111816825052,54.69585548722442,58.36595043282738,66.4021043285592,55.652677907517194,92.28524081864833,78.24529485254884
102.58966095994768,54.62564886279906,58.56935634494244,63.539775859785784,55.623988373661845,92.18229650251313,78.13619509169126
102.58538672759806,54.556038876213854,58.771401103721416,60.765813984654535,55.59804907214707,92.08032736699094,78.03195961618457
102.57808669425754,54.487086519396385,58.97138515482226,58.08498035571992,55.575049139698365,91.97980347940845,77.93275240928618
102.56758906265704,54.41884579170214,59.16863868917812,55.501625904733324,55.555208960939474,91.88117843741135,77.83868778529754
102.55372522502323,54.35138662230776,59.362541548143,53.019672750833465,55.53876222173837,91.7848851091741,77.74985264691232
102.5363146649146,54.28480416468298,59.55251583085578,50.64262579251067,55.52595118024058,91.6912971108012,77.666325298318
102.51518814508,54.21919958206082,59.738007845678226,48.37359581281191,55.51703562723278,91.60071030260954,77.58815903507954
102.49020192639362,54.15466091252603,59.91849200897154,46.21530281131572,55.51228670067771,91.51337810839968,77.51534976164288
102.46121069428027,54.091271692636674,60.093493795684,44.17006187546081,55.511958546009694,91.42955847942366,77.44783290472996
102.42803774322518,54.02913165498203,60.262596932638914,42.2397789980349,55.51626853550724,91.34951346248675,77.38551653370415
102.39049317766337,53.96835507615114,60.425422810673616,40.425963076014,55.525410435458085,91.27347211234107,77.32830650984626
102.3484211113345,53.90904615861001,60.58161518836436,38.729732498470696,55.53957839944366,91.20161372062095,77.27609910028498
102.30171294227036,53.851286979793684,60.73085885393996,37.15180530754941,55.55896389051916,91.13408502276751,77.22877411954192
102.25027818083426,53.79515718106386,60.87290979817304,35.692492553748245,55.58372880040862,91.07100695217986,77.18621503499455
102.1940285242139,53.74075713772244,61.00759600663579,34.35171583060155,55.61399172801239,91.01244461376893,77.148328647817
102.13290023551504,53.68820185279451,61.134789189255486,33.12903711665212,55.64984287604969,90.95837748315012,77.11503034711723
102.06687027171343,53.637597816031445,61.2543834493832,32.02367164461327,55.691361211665196,90.90871440616966,77.08620301842502
101.99593125059873,53.589037105550894,61.3662994756493,31.034480514552573,55.738606507397705,90.86333535408781,77.06165797287754
101.92006290936615,53.54261190156192,61.470493495091034,30.159971754979612,55.7915990278179,90.82210353916882,77.04110995709944
101.83925117459104,53.49841926791796,61.566949212131945,29.39832946228332,55.85031823220721,90.78483880175094,77.02416422360594
101.75353341932353,53.45654192495441,61.65567236206503,28.747451730700003,55.91472017193427,90.75130824459175,77.01032139311478
101.66300669710984,53.417031037623794,61.73671792777786,28.204967507707966,55.98474237819363,90.72127028752504,76.99901772506864
101.56779364026634,53.379916974778034,61.810230202048245,27.76823653131673,56.06028426256247,90.69452688625312,76.98970176600201
101.46802257874978,53.345232161502516,61.87644838708925,27.434360285967042,56.14119107595507,90.6709232310253,76.98190749850045
101.36384586907738,53.313012117645755,61.93567343999774,27.2002099290127,56.22726846195155,90.65030955806829,76.97527491887395
101.25545290628058,53.28327406946921,61.98823954701074,27.062447298867504,56.31831133899819,90.6325275452137,76.96951966163678
101.14304427633184,53.256006627576895,62.034521241998114,27.017525715769853,56.41410945868509,90.61743651600102,76.96440347675085
101.02680334066389,53.23118765868517,62.074954131834915,27.06169258867832,56.514425181283436,90.6049295477277,76.95973702167527
100.90691510943996,53.20880360305494,62.11002756136479,27.191018940124714,56.61897757622467,90.59490988766953,76.95538943603279
100.78361212005923,53.188841190770795,62.14024902376846,27.40144280911612,56.72745625352194,90.58727085634094,76.95127181990387
100.65718421401618,53.17126693416247,62.1661202254568,27.688792459215467,56.839544902784276,90.58192282131664,76.94730792898811
100.52794507060119,53.15602978974419,62.18814703624474,28.048784402348364,56.954922842217066,90.57883452585703,76.9434323103273
100.39621138911484,53.14308675765605,62.20685726213374,28.477026196459747,57.07324942442858,90.57803050623329,76.93961978514126
100.26231954949937,53.13241546303778,62.22279222512654,28.969046080577957,57.19415967228592,90.57955089981392,76.93590082085683
100.12663665466748,53.1239974576539,62.236482905213556,29.5203336469162,57.31727379992125,90.58342769023496,76.93233892733402
99.98953195890255,53.11780066249138,62.248446116686765,30.12636190666964,57.44219586382466,90.58969374733093,76.92900558386941
99.85134448592483,53.11378986190751,62.25920061453198,30.782591508436614,57.56849426513446,90.5983858436854,76.92598214816135
99.7123964578291,53.11194975037616,62.26926761523804,31.484483493954993,57.69569180798533,90.60951941647102,76.92336492129554
99.57303317552628,53.112283947772355,62.27914300238004,32.227526933606484,57.823289520251485,90.62307187880131,76.9212437138597
99.43362863965518,53.11478871602132,62.289272650986696,33.00725803472373,57.9508053232066,90.63900816688609,76.9196706840311
99.29455047993672,53.119439400889114,62.30005716994788,33.81925784785223,58.07778839181673,90.65731540033578,76.91865784025588
99.15613859046786,53.126209990627785,62.31186625065342,34.65914863652565,58.20380623153707,90.67799587545649,76.91820167708192
99.01872241775588,53.13509579601467,62.325030162271034,35.52261248649539,58.32844125800036,90.70102995611813,76.91829420041228
98.88263550348181,53.146105084569975,62.33981291735852,36.405423226155385,58.45131711931209,90.72636070426448,76.91890749493372
98.74819367035242,53.15923323067841,62.35639931303224,37.303461630392135,58.572126317362525,90.75391023901491,76.919985425
98.61567154892457,53.174456101148344,62.37491106648018,38.212707960225444,58.69062503485445,90.78358490424718,76.92146164022712
98.48532476255956,53.191745638099746,62.3954298168563,39.12924001813426,58.806607327496685,90.81524660037475,76.92327721535719
98.35743517081518,53.21107499166356,62.417999098856264,40.049255148688616,58.919895123633616,90.84869010168735,76.92536965246775
98.23231695420024,53.23239838487453,62.44261579243077,40.96909652322313,59.030347236932826,90.8836714939906,76.9276487358555
98.11027813280651,53.255633482719055,62.469240528087546,41.88526295362685,59.13785636021696,90.91996419463915,76.92999907701767
97.99159390907077,53.28067363942773,62.497820975921634,42.794420363349865,59.242322877985664,90.95737744905966,76.93231227469478
97.87652034250225,53.30741404922888,62.52829492655551,43.69343629151622,59.34363703200137,90.99572516511284,76.93450489696816
97.76530929686636,53.33575588377777,62.5605683133091,44.57941394591634,59.441697747205495,91.03480445762837,76.93649923735099
97.65818706429646,53.36558602790596,62.5945021846262,45.44969171772717,59.53644708894073,91.07442719151696,76.93820016005489
97.55532621814254,53.39676746999639,62.629932442710114,46.30181452404898,59.62787756136922,91.11446631192777,76.93950681985376
97.4568608130782,53.42916051589432,62.66669799628403,47.13350923359528,59.71600839780343,91.15485514472202,76.94034763045876
97.3629295412696,53.46264793687977,62.70463873214258,47.942681781684804,59.80086740012883,91.19554610363575,76.9406932114058
97.27368609360178,53.49713131878577,62.74356497664425,48.727422337395325,59.882500768811965,91.23648626322976,76.94053904092868
97.18926725294608,53.53250964420053,62.78323379009534,49.48599410997588,59.96098919943316,91.27762839166802,76.93990035120815
97.10977147323852,53.568673680140115,62.8233554253505,50.21680607078912,60.03643993563473,91.31893606872826,76.93883630004915
97.03527363898651,53.60552000895255,62.86361568680596,50.91839828227753,60.10896323961676,91.36035518385012,76.93746235553074
96.96583675449648,53.64295592990761,62.903683292487635,51.58946167585238,60.17866390522939,91.4017861473377,76.93592042575362
96.90148844272984,53.68088192773213,62.943199351187275,52.22887439837959,60.245649263223754,91.44309892473073,76.93433653244706
96.8421976092205,53.71917808925755,62.98177264845748,52.83571718847997,60.31002640453841,91.48417100791906,76.93281633052673
96.78790058123721,53.757720675992786,63.01898590248871,53.40926200123251,60.371880233423866,91.52489293274799,76.93148040503628
96.73855445803129,53.79641218603674,63.05439290791235,53.94895929103593,60.431260523625035,91.56513448465006,76.93048832830266
96.69415131441662,53.835187343401586,63.08750158360757,54.45443537982144,60.488201360632345,91.60472791710201,76.93002477418146
96.65468554492634,53.87399104736091,63.11777134355674,54.92548861273103,60.54275097789407,91.643505464602,76.93028059926445
96.62013254656542,53.912764281781605,63.14464759075649,55.36208200320279,60.59497338425332,91.68134854903325,76.9314559921969
96.59046642488178,53.95146046492479,63.1676077866873,55.76435058594372,60.64492435431064,91.71818780012238,76.93376463639865
96.5656748455297,53.990065759476266,63.18617606381299,56.13263129454228,60.692641588161926,91.7539654606376,76.93741166769591
96.54573567637412,54.028589459620655,63.19990727613702,56.46748854077175,60.73816598437862,91.7886202784306,76.94255768521901
96.53059021942092,54.06703606396169,63.20837656903401,56.769705662572726,60.78156165750877,91.8221102456302,76.94930333754304
96.52016290397292,54.10539580127495,63.21118879930251,57.040252348150936,60.822903550445304,91.8544254607175,76.95769807610839
96.51440637265866,54.14365892749755,63.207985430450115,57.28025623428624,60.86225045415909,91.88556302576839,76.96774132262514
96.5133086502512,54.18182182406042,63.19843068239798,57.490977953375605,60.89963964723492,91.91550754677262,76.97936733057088
96.51685566636425,54.21986801945441,63.18219426147253,57.67377207955659,60.93510308744744,91.94426015169546,76.9924498409818
96.52500525643022,54.257751031601074,63.158957746154286,57.83003889440649,60.96867234737301,91.97188030020726,77.00684723779389
96.53770012547994,54.295408409781444,63.128437865928966,57.96119366974005,61.00035884894871,91.99848050231677,77.02244991062888
96.55487949993233,54.332791663401856,63.09039456715623,58.068665223600874,61.03013706022959,92.02418156081191,77.03918156836741
96.5764540436342,54.36987260031726,63.04461512002128,58.15389979071978,61.05795630648946,92.04908322365607,77.05696373056078
96.60227740411598,54.40662067113973,62.99090276721331,58.218343517743456,61.083763568535204,92.07326826205335,77.07569615713174
96.63216512302787,54.442988331395945,62.929094182832074,58.263410495055076,61.1075029018932,92.09680304520425,77.09527461972431
96.66594296775295,54.478928269172705,62.85908873224976,58.29046378105488,61.12909241403767,92.11970779000826,77.11561013915583
96.70346100662567,54.51441683664181,62.78085456321344,58.300822136144,61.148414236985786,92.14192593403696,77.13662171977742
96.7445630775137,54.54944947917508,62.69440857519907,58.29577340988005,61.165336715668985,92.16333444321411,77.15822652988818
96.78906616430436,54.58401770759895,62.59980164264904,58.276569152338546,61.17974234078652,92.18378173184061,77.18035186425759
96.83677722796666,54.61810350601912,62.49712960657276,58.24440440661744,61.19152764555885,92.20309969451931,77.20294800918752
96.8875075616283,54.65169795914269,62.38655110637571,58.20040501504925,61.20058454917961,92.22107628873188,77.22597113725406
96.94105049191465,54.68481141698608,62.26828420954003,58.1456283624433,61.20679668449513,92.23743911394347,77.24934651775345
96.99715734555338,54.71745557200583,62.142590739183355,58.08106293042798,61.210053584612055,92.25189002478226,77.2729546684264
97.05556256460935,54.749625405509136,62.009777994439766,58.00761610600732,61.21025428485841,92.26415617338176,77.29665399099797
97.11603753775336,54.781313988816386,61.8702159264389,57.926102835854266,61.207289903979635,92.27399870904168,77.3202997769191
97.17840663198609,54.81254516664419,61.72433851977128,57.837263129949,61.201032546677304,92.28118417264061,77.3437247308091
97.24251512020015,54.84338244698068,61.572620536542104,57.74181231997581,61.191353954938855,92.28547117632066,77.36670160638339
97.30820565022756,54.87390730584914,61.415560635233575,57.64048195014903,61.17815362442949,92.28662673555031,77.38893341309165
97.37533216193292,54.904203083631366,61.253695259694496,57.534014751186895,61.161360954812835,92.28443280708771,77.41008032896043
97.44377080988166,54.93436808975396,61.087619999615924,57.423131535132605,61.14091398063188,92.27866008222918,77.42978366214219
97.51339303788471,54.964533606437264,60.917982467643235,57.30850974293476,61.11675185353294,92.26904384623083,77.44765507046415
97.58403601106559,54.99485412388732,60.74545292681837,57.190785309198695,61.08884182780743,92.25530329218091,77.46325364903058
97.65552127432944,55.02548087996817,60.57070606783178,57.07056176709376,61.057214396218406,92.23718582716668,77.47609813842224
97.72770189334338,55.05655825092636,60.394423143348014,56.948417664959315,61.021968236739134,92.21448020281602,77.48571887108066
97.80047430167124,55.08825184617181,60.217291286002755,56.8249215423819,60.98324968121882,92.18698729033541,77.49169750050625
97.87374566162315,55.12076945244777,60.03998548263958,56.700658609809096,60.94124053482524,92.15450175325694,77.49366027802245
97.94741111484574,55.15434322674654,59.86315524739488,56.57625684196534,60.89616059889655,92.11684451169074,77.49125841789102
98.02136835830397,55.189193950790965,59.687440406234636,56.45239418043903,60.84826044282732,92.07390925032432,77.48418239162012
98.0955297994161,55.22552189711742,59.51349706892144,56.32978604440321,60.79779453321929,92.02566344322466,77.47220186288689
98.16979731661166,55.26353271520616,59.34199580200252,56.20917654739609,60.74499816085228,91.97211122231514,77.45518230482226
98.24403364047667,55.30345730401562,59.17359209614516,56.0913420326765,60.69009198689326,91.913274330935,77.43306554602111
98.31808121274997,55.34553281494416,59.00890763212201,55.97708368196856,60.63330120280838,91.84920724502052,77.40585783127176
98.39180945998332,55.38996579598146,58.84854831258739,55.86719584783681,60.57485634597005,91.78000386747895,77.37364933348766
98.46512617956463,55.43692056530596,58.69313720322288,55.7624285173602,60.514972756620836,91.70576916752508,77.33662978499699
98.53794356332881,55.48653965285757,58.54332096331134,55.663465843926836,60.45384221931952,91.62659262527657,77.29506819836813
98.61015532269236,55.53895852205086,58.3997477009806,55.570922007441794,60.39165677626625,91.54256830771828,77.24927925353903
98.68165430378082,55.59428666679418,58.26304894323113,55.48534389208376,60.32863697047401,91.45384112281063,77.19961765091644
98.75234913120191,55.652575710398345,58.13383528939948,55.407219459459505,60.26502891186093,91.36061832150216,77.14649871216338
98.82214117523914,55.71381150492067,58.01268394638487,55.337000670183684,60.20108106005182,91.26313490110735,77.09040096606843
98.89089474616301,55.777932660997955,57.90011066795739,55.27514234085807,60.137036937268135,91.16163097200295,77.03183224489469
98.95845431799803,55.84484180727377,57.796553333853474,55.222140683309924,60.07314637995874,91.0563829952857,76.97129891116721
99.02469267294312,55.91439099749022,57.70239285699052,55.1785465853923,60.009664223209434,90.94774845371128,76.90931539343121
99.08952437446446,55.98636732474835,57.617990812103834,55.144952668429376,59.946823986062114,90.83616170110321,76.84643125272179
99.15287185208607,56.060508683628534,57.543698342083694,55.12198589481558,59.88481411309536,90.72209035227438,76.7832280174429
99.21464065935226,56.13653592738961,57.47983035633675,55.11031937812832,59.823786817672584,90.60601109351035,76.72028796246677
99.27473692859454,56.21416307036039,57.42664207233192,55.110680203755194,59.76388852855105,90.48842083018197,76.65818465212875
99.33308741389449,56.29307953066472,57.38432999981474,55.12384400482415,59.7052723609601,90.36983880111791,76.59750980212237
99.38962066497858,56.37293996414839,57.353038148739714,55.15062941966176,59.648081604195944,90.25077105759948,76.53888931941536
99.44423888768591,56.45338448406955,57.33284650669459,55.19188785485301,59.592438552232394,90.13167220618274,76.48295916208016
99.49683404101307,56.53406398800078,57.32375722550503,55.24847314068159,59.53846443829797,90.012950309321,76.43033452151496
99.54733366675161,56.614637664124565,57.325711475649655,55.3211939216287,59.48630611301533,89.8950011278863,76.38160685769245
99.59571178701,56.694752313493765,57.33862932189305,55.41076946841871,59.436133601262455,89.77821696205153,76.33735126226291
99.64195169867443,56.77403782406898,57.362427214851294,55.5178082185003,59.38811634150869,89.66295645598211,76.29810908382807
99.68601700773577,56.85212473898603,57.39699822319964,55.64280357473297,59.34241195449367,89.54952479977352,76.26435082758763
99.72786566517597,56.928653973992745,57.442193910358824,55.78612460235491,59.29917275126358,89.4382020652701,76.23645968396806
99.76746988617978,57.00326182392659,57.497839592928024,55.94800067422106,59.25854318299438,89.3292848764384,76.21474904598921
99.80480084419682,57.075564993994234,57.56375926712272,56.12853136021883,59.22063654813819,89.22308539230754,76.19947556461409
99.83980574488525,57.14517478916776,57.63977197455481,56.327741356743,59.18551660615415,89.11989530727536,76.19081548823645
99.87242852491715,57.21172836862496,57.72566696366803,56.54564322590166,59.15320942694366,89.0199701440777,76.18882792382264
99.90265793167704,57.27489883870675,57.821193024027345,56.78225285860813,59.123729586308066,88.92354949802977,76.19345301049253
99.93053802161518,57.334376098785626,57.926068152739596,57.03756592490024,59.09708471716887,88.83086822611261,76.20455078957227
99.9561287941824,57.38985366945446,58.03998158634186,57.31155502635455,59.07325528490878,88.74212836870885,76.22193409930749
99.97947609271515,57.441046096072945,58.16257431211781,57.60420342624041,59.05218458518239,88.65746676503447,76.24536722832784
100.00063306952576,57.487712302752996,58.293424493931006,57.91552170403457,59.033800989239836,88.57696487073338,76.27456120827787
100.01969815700072,57.52965045771551,58.4320671627542,58.24551954216284,59.01804703536407,88.50068679893343,76.30919777869254
100.03681176846116,57.56667384968722,58.57803209884189,58.5941855148428,59.004879189580805,88.42868991289183,76.34896187545682
100.05212163196566,57.59860715912908,58.73085664571681,58.961513567797724,58.994242578770475,88.36099320773823,76.3935430047376
100.06577660000588,57.62531364789459,58.89006525699901,59.347526901183755,58.98605283887473,88.29755381332527,76.442610260294
100.07795787505998,57.64671741454637,59.055155454678015,59.752245929806556,58.980199560381614,88.23829243476666,76.49580895008431
100.08889049007269,57.662791251286585,59.22562004100752,60.17562146310033,58.976555011378345,88.18313502803117,76.55279457858873
100.09880552558992,57.67352891867965,59.40098078470339,60.61748422155532,58.974969845149374,88.13201553573859,76.61325799048703
100.10789960764347,57.678939969419375,59.580791732977126,61.07753078380389,58.975268444275336,88.08484922569848,76.6769080372305
100.11634613670677,57.67907130703029,59.76461332769824,61.555326401343855,58.977268312518696,88.04153018292835,76.74343964542236
100.12433907049025,57.67401954461339,59.951993490253926,62.05029623552045,58.98081117356939,88.00196062546003,76.81252752406344
100.132103170185,57.66391162327796,60.14247235948805,62.56170300870391,58.985769069010246,87.9660635602981,76.88384283615524
100.13985553981858,57.64887879334801,60.33558732422795,63.08863379931371,58.99202193137023,87.93375398515818,76.95705963302238
100.14777304776585,57.6290574476723,60.53085346069185,63.63001533268735,58.99944219129477,87.90490886943076,77.03184917421436
100.15600631637535,57.604609271629535,60.72773133731831,64.18464637280195,59.007908828659275,87.87938274083824,77.10790196824291
100.16470969101046,57.575724684912515,60.92561779389054,64.75121511213062,59.017328275308934,87.85705062319568,77.18498298614229
100.17403510960132,57.542600100016706,61.12387346040167,65.3283006590438,59.027629511301846,87.8378183611595,77.26296631432747
100.18409756969677,57.50542250031013,61.32185627735176,65.91438808860391,59.03873925205026,87.82158743736647,77.34181412066496
100.19496571796489,57.46438639499652,61.51892631664008,66.50789499471809,59.05056732834564,87.80822904244198,77.42152846298843
100.20668817988931,57.41971860226291,61.71443307836224,67.1071831321611,59.063008249421564,87.79760856096118,77.50212574756533
100.21930596598577,57.37167428291529,61.90771866881983,67.71056633768907,59.075937965094795,87.78962572582815,77.58364621888018
100.23282514913323,57.32051157659175,62.09813689638257,68.31634097417952,59.08919732199664,87.7842136083466,77.66616341316755
100.24719284360398,57.26648197583285,62.2850582323365,68.92281981404268,59.102584631669956,87.78130291785303,77.74976941573722
100.262318875583,57.20984508301191,62.467852333678906,69.52833433784906,59.115878871536275,87.780803981053,77.83456091554545
100.27811436066521,57.15087631716303,62.645881702327046,70.13121614439237,59.12887544842072,87.78262082134475,77.92064658743651
100.29449195414092,57.08984840079728,62.818534765620825,70.72980747098187,59.14139636950347,87.7866569464499,78.00815169501597
100.31133563623438,57.02701099705184,62.985271851146194,71.32251902449684,59.153270798433034,87.79278639005524,78.0971990697136
100.32849697230134,56.96259818395389,63.14563573266055,71.90788070804277,59.16432211293991,87.8008205108772,78.18788915298991
100.3458285143818,56.89685323841241,63.29922542999675,72.48453157132454,59.174386636005046,87.81051220225436,78.28030726263471
100.3632019793746,56.83003459603624,63.445676458080655,73.05116692700521,59.18334203227489,87.8215873791583,78.3745423975825
100.38048348108877,56.76239508278326,63.58467387893143,73.60649545943502,59.191109068170576,87.83375529386501,78.47068086869798
100.39750855446539,56.69416718142617,63.71597533783026,74.14923928429815,59.1976291254139,87.84668436841618,78.56877950107962
100.41410189339209,56.625575832076656,63.8394082023972,74.67816450544844,59.202848301324074,87.85999003961282,78.66886016850962
100.43011632013622,56.556854249794284,63.95484339264601,75.19209538562617,59.206717725900226,87.87327154274624,78.7709326967101
100.44543529068623,56.48823253106774,64.06217593611942,75.68989215376536,59.2091900516516,87.88616242018905,78.87500437791486
100.45994354205526,56.419911699549914,64.16132000865571,76.17043015168711,59.21020043525118,87.89833688870009,78.98105267606623
100.47352154089182,56.352061144590095,64.25219841668694,76.63262529414631,59.20965160847342,87.90947828290508,79.08898980624272
100.48607583998323,56.28484713109885,64.33472029233023,77.07549254599431,59.20742628164724,87.91926517276391,79.19866145936528
100.49755363638667,56.218455421764,64.40877585564549,77.49817745070433,59.203414481806966,87.92739369259475,79.30988025875793
100.5079136825728,56.1530783400458,64.47427270412454,77.89993631618633,59.19752050658591,87.93359449896816,79.42244747849396
100.51709755621722,56.08888535038757,64.53118583424563,78.28010632365242,59.18964390630485,87.93761605241727,79.53613693234117
100.52504696681031,56.026018631888824,64.57957174638807,78.63811406054396,59.17967143262661,87.93921170685509,79.65067485164631
100.53174072413908,55.96462281804495,64.61954329150566,78.97351668465343,59.167506251735226,87.93817277673288,79.76575400071346
100.53719453224873,55.90487148103034,64.65124495201268,79.28602501354848,59.15310685852424,87.93437724351186,79.88106672782641
100.54142757037096,55.846957552445055,64.67485189635218,79.5754899242969,59.13649457343966,87.92779327648581,79.99631079438358
100.54445237645285,55.79106379642871,64.69057474578877,79.84188423738499,59.117736551011944,87.91843949614464,80.11116003687277
100.54630207074332,55.73735340531081,64.69864722052193,80.08529127782403,59.09693802236193,87.90635932427963,80.22524479936693
100.54704354845944,55.685990731233694,64.69930975374206,80.30587665419857,59.07424555038982,87.89163270801981,80.33817093808963
100.54674660026085,55.637158343517214,64.69281635507802,80.50384041469619,59.049836018973856,87.87438479380899,80.44954564209651
100.54545199900937,55.591041110443626,64.67945624046398,80.67938123195738,59.02388602054957,87.85476266957531,80.55897074313114
100.54318753099702,55.54779420480452,64.65955526984943,80.83270286753911,58.99654853340304,87.83291811097551,80.66601938787582
100.54000812147667,55.50753445819378,64.63345135932968,80.96405042208048,58.967960891840214,87.80903612870513,80.7702439989789
100.53600045817254,55.470364627913135,64.60148264153639,81.07372824236298,58.93826963303908,87.78337529096592,80.87122049495154
100.53125243331134,55.43639566918863,64.56402128354216,81.16207622093123,58.90763549265705,87.75626175086298,80.96857784906165
100.5258430113214,55.40573542706481,64.52152725167096,81.22942755989683,58.87621004498564,87.7280452461614,81.06198750176691
100.51986708852299,55.378459195424156,64.47456529610324,81.27607600493126,58.844115346222324,87.69907503330057,81.15115008463991
100.51344566872181,55.354601771293055,64.42377428947007,81.30225618692948,58.8114528151543,87.6697144327377,81.23580629402021
100.50669379460828,55.33418049638935,64.36983210244036,81.30812724076902,58.778324461492254,87.6403496396857,81.3157443725332
100.49968991328166,55.31721449176055,64.31344758157987,81.2937607091443,58.74483348602855,87.61136347414838,81.39077622748727
100.49249355903034,55.30371133546192,64.25536227272411,81.2591487861966,58.71106640824342,87.58311535848136,81.46070366877863
100.48518592063374,55.293640281994904,64.1963315774587,81.20423994296391,58.67708590206902,87.55597113769342,81.52531944428885
100.47787472779135,55.28693021306868,64.13709172129909,81.12898116280587,58.64294104927903,87.530347698584,81.584444523781
100.47066502758375,55.28349570065231,64.07834401650337,81.03334087357794,58.60867106248135,87.50670950344565,81.63795217811742
100.46365110430396,55.283254562988304,64.02076056721629,80.91732139239879,58.57428941176973,87.48552303195834,81.68575671004339
100.45694299304105,55.286114339836445,63.96498125099819,80.78098557337003,58.53977068244014,87.46722815600995,81.72780409296756
100.45067727635136,55.29195261089898,63.911587944857764,80.62448435871977,58.50506606338218,87.45224672903065,81.76408744956129
100.44498437476068,55.30062380980857,63.86108477690706,80.44805200012816,58.47013396101013,87.44098687520237,81.79465608120766
100.43995638733958,55.311983910554524,63.8139149770211,80.25197286947522,58.43494856170048,87.4338155374416,81.81959113271782
100.4356655336151,55.32589677290434,63.77049691181964,80.03655527429169,58.39948102660798,87.4310377228023,81.83897379091752
100.43220976566826,55.34221295142368,63.73123466292241,79.80213106278394,58.363690638946366,87.43292386471943,81.85289032716194
100.42972136217705,55.36075404645616,63.69649586219323,79.54906339881623,58.32755212634649,87.43975378033097,81.86146981416242
100.42833361223916,55.38132883027625,63.666593004777624,79.27773910394583,58.291091825814135,87.45181610011015,81.864902706304
100.42816329290987,55.403759872924184,63.64179017698879,78.98855338953081,58.254390156248206,87.46936485101452,81.86341984753535
100.42933018220512,55.42788346364018,63.62231406363032,78.68191056843186,58.21755486549761,87.49259358403256,81.85727077941955
100.43196718274248,55.45352529785022,63.60834242706229,78.35823940404478,58.18070200548775,87.52165939179477,81.84672877401665
100.43619091097904,55.48049013972268,63.59998013891311,78.0180004704131,58.143955587957045,87.5567170503612,81.83209751840891
100.44207278082384,55.50858259455978,63.59725452290357,77.66167761604193,58.10744339312992,87.59791329272967,81.81369042678446
100.44965775023233,55.537628943942835,63.600134740732926,77.28977214096975,58.0712760366728,87.64535785417642,81.79179649644384
100.45900675997048,55.56747047393832,63.60854560647154,76.9028142869347,58.035529144342554,87.69912104989588,81.76667100658042
100.47020236295623,55.59794529103852,63.62235905992711,76.50137493514902,58.00025115684503,87.7592544353993,81.73855927215163
100.4833166077256,55.62889221018296,63.641389413658224,76.08605649751178,57.96548381521266,87.82578636423092,81.70771419245233
100.49839797154797,55.66017299454453,63.66542241881865,75.65747601237788,57.93126258378417,87.89868281717906,81.67437538022472
100.5154950734223,55.69167815605056,63.6942589865718,75.21626488923566,57.89759393355906,87.97782451717933,81.63873180658665
100.53466841820934,55.723305405156715,63.72772878735916,74.76308072148304,57.86444328392098,88.06303776634066,81.60091421693626
100.55595952893606,55.754942288709685,63.76567317649741,74.29860757271594,57.83175559020528,88.15414115180204,81.56102570704257
100.57935850066092,55.78647883045833,63.807938846740434,73.82354017106947,57.79948449325178,88.25094779705377,81.51916853735115
100.60481922412093,55.81783021638814,63.854394690824925,73.3385764728386,57.767595304252175,88.35322954869316,81.47543937652966
100.6323002802945,55.848934761399185,63.90493777213461,72.84443570453526,57.73604738572213,88.46070114732609,81.42991971485922
100.66177109119026,55.87973090781835,63.95946983379314,72.3418785503981,57.70478751985473,88.57304447669488,81.38268647874754
100.69318093523596,55.9101516374271,64.01787766117833,71.83169874353032,57.673761175313544,88.68992790717998,81.33382188811461
100.72644682959367,55.94015187890916,64.0800516077771,71.31469546962997,57.642916660647586,88.81098720844534,81.28339693163502
100.76147858311973,55.96973403556753,64.14592003682662,70.7916606222573,57.61218878127155,88.93580513600828,81.23144418093948
100.79819381367817,55.99893803654373,64.21545210017473,70.26339489643364,57.581485844330736,89.06393558123635,81.17795816895152
100.83649350702947,56.02781462094729,64.2886260568883,69.73073057087821,57.55070429504432,89.19494650885564,81.12292655282002
100.87623778131993,56.056420867071374,64.36540670931238,69.19453111771563,57.519753066753246,89.32842426221004,81.06635038465613
100.91726723944994,56.08483732791624,64.44575857936258,68.6556711640081,57.48855252054926,89.46394044363615,81.0082334604187
100.95944505676077,56.11317051843184,64.52966716701306,68.11502252323992,57.457009548035444,89.60103422683227,80.94857342391812
101.0026603961233,56.141527537341496,64.61713052954748,67.57344878227876,57.425007256622905,89.7392299671324,80.88737761416884
101.04679422527715,56.16999398341938,64.70813219181966,67.03179069964182,57.392431944752374,89.87804976969724,80.82467674671652
101.09170637883005,56.198642317381164,64.80263180736793,66.49084354722768,57.359209718322184,90.01699237208115,80.76050542707539
101.13726227818229,56.22755234085735,64.90057388196294,65.9513490098461,57.32531156484021,90.15551663870244,80.69486488026129
101.18334849105553,56.256808158726614,65.00188294528714,65.41401212852425,57.29072984243306,90.29307587616485,80.6277145126317
101.22984410306621,56.286471938641064,65.10643681321399,64.87952389977829,57.255464190972106,90.42917543372842,80.55900533784214
101.2765890445869,56.31657049620342,65.21405309712532,64.34856235037093,57.21953391945846,90.56338881430456,80.4887100249389
101.32339860070938,56.34711279133237,65.32452310902926,63.82177073268224,57.18299280413537,90.69532862083453,80.41681146053706
101.37010076283885,56.378109749509,65.43767114149065,63.29973937685363,57.14592064387939,90.82462892268337,80.34327227309551
101.41653780867524,56.40956584498804,65.55338137971401,62.78301226732879,57.10840409048881,90.95096215521856,80.26803175951828
101.46253391926157,56.44145808678071,65.67157552015736,62.27210530780004,57.07053667122795,91.07404773186738,80.19103730211413
101.50788590626398,56.47373721146753,65.79217935676746,61.767508624812415,57.03243621910042,91.19362040851783,80.11226776230933
101.55239344014912,56.50634944212749,65.9151122284912,61.26967607802528,56.99424841626642,91.30939127844013,80.0317152259017
101.59587861023157,56.539244056850336,66.04028977250034,60.77903173787841,56.95612577696393,91.42104694479907,79.94934810365156
101.63816257606334,56.5723542178649,66.16761434901468,60.295996865935955,56.91820860889519,91.52827692809558,79.86510356387093
101.67903984824581,56.60558098054372,66.29696317589536,59.82100469431864,56.880629864987526,91.63078018916148,79.77891652655057
101.71829958987797,56.638806075635216,66.42820894491669,59.35448816079404,56.84352776488478,91.7282366359049,79.69074089192893
101.75577084215273,56.671915244121095,66.56126481852641,58.89686945512335,56.807038802277525,91.82028877741955,79.60053371610806
101.79133025376085,56.704798769779956,66.69610177250692,58.448575307243445,56.77127581692177,91.90657089339332,79.50823149814867
101.82486955442789,56.73733136592385,66.83271931076393,58.010055919169254,56.73631906377768,91.98675387667252,79.41375986920008
101.85627880202884,56.76936700031038,66.97110880853452,57.581775075138,56.70222687837739,92.06055033439118,79.3170697021802
101.88546636037297,56.80076430305435,67.1112464281695,57.16418133404311,56.66904145477505,92.12768456855878,79.21815458467945
101.9123707143667,56.83141048717217,67.25310219064914,56.75770205265885,56.636774847950726,92.18787991916894,79.1170366176947
101.93693222520982,56.86121206328191,67.3966302693905,56.362773464096726,56.60539658386235,92.2408800112123,79.01375934516432
101.9590631614594,56.89007024891224,67.54173969028946,55.97986711244854,56.57484707865715,92.28646181958753,78.9084058229468
101.97866616452957,56.917878043157614,67.68828116037274,55.609476495037555,56.54506297734155,92.32441121484864,78.80110543032846
101.99567960327202,56.94453829565561,67.8360709144978,55.25207953916276,56.515981722223344,92.35449568035789,78.69200330242799
102.01008581993541,56.9699688004081,67.98492327015373,54.908115316608104,56.487522054588496,92.37648207829305,78.58122049902323
102.02187658523653,56.99408181131929,68.1346524914034,54.577991215329924,56.459572457469704,92.39018464552376,78.46885025950321
102.03103459817463,57.016767969843286,68.285052154823,54.26210495986458,56.4320117684694,92.39548275165609,78.35499313765888
102.03755589874166,57.037911626751956,68.43588999015574,53.96085708265557,56.4047420165784,92.39229059488062,78.23978464414216
102.04146613527122,57.05741852496193,68.58692251776682,53.674650471773795,56.377695430312556,92.38053028921414,78.12338916398363
102.04279454492635,57.075218403811554,68.73789758435794,53.403889226799286,56.35081439271549,92.36015395066839,78.00599024496225
102.04154380565504,57.091242874892544,68.88853008264329,53.14897409600895,56.32403877194559,92.33118707137736,77.88780256666786
102.03770771159775,57.1054168148453,69.03847495555877,52.910279480274184,56.297318586816296,92.2937333221449,77.76908374661896
102.03131578984143,57.117682338512346,69.18732481170483,52.68811743529943,56.27062951323826,92.24793837123653,77.65011677922205
102.02244072516525,57.128024006389985,69.33462383102274,52.48271665995407,56.24396644627675,92.1939671536783,77.53117528492967
102.01116185489917,57.13646165148959,69.47986799168795,52.29422986121911,56.217330348390604,92.13201835412988,77.41251460704143
101.99754178375444,57.14302688982511,69.62248920267375,52.12274755872231,56.19073908223158,92.06233484947445,77.29439865040848
101.98164202437151,57.147759344464745,69.76185822321374,51.96829272061864,56.164254079465344,91.98517907947027,77.17711856651056
101.96353555433627,57.15072131526262,69.89732826575244,51.830804381622215,56.13798515740577,91.90081256280538,77.06097747150899
101.94328278260218,57.15199784039028,70.02828872789193,51.710135656322024,56.11206558398798,91.8095257165752,76.94627205653514
101.92090571527527,57.15167235839498,70.15418317064444,51.60606876595252,56.08663305801609,91.71168770749291,76.83329743040734
101.89640825970675,57.14980888494134,70.27449262210504,51.518325616129864,56.061843727421824,91.60775155875895,76.72235498517792
101.86982232747305,57.1464642083857,70.38872037777521,51.446562303480974,56.03789759102981,91.49821388348208,76.61373427929566
101.84121768904126,57.14170907359444,70.49639034422897,51.390364893330094,56.015037754183936,91.38358819491542,76.50767986574755
101.81066768293556,57.135624089685976,70.59703914509439,51.34926791232302,55.99352478419196,91.26441694287784,76.40438517912673
101.77822620818975,57.128272773075174,70.690192601504,51.32278420439835,55.973618110889085,91.14127996366318,76.30402314006727
101.7439433226744,57.11968837764843,70.77534765685748,51.310415131608245,55.955577169678804,91.01476635917685,76.20676896253724
101.70787850194785,57.10989349432294,70.85198389909861,51.311639431926245,55.93966170374335,90.8854466486452,76.1127876176353
101.67007763379982,57.098923987681545,70.9195950153613,51.32591034237368,55.92611552722242,90.753890710775,76.02221866998607
101.63054940851825,57.08682489615962,70.97770537069538,51.352675258437884,55.91515319662388,90.62070501384531,75.9351902552907
101.58929027087453,57.07363163793409,71.02586142169616,51.391398695274646,55.906972459653915,90.48653084588142,75.85184034748761
101.54633611027857,57.05937029755808,71.06362670912067,51.44156722116481,55.90177425757594,90.35200500311325,75.77230838216553
101.5017752417504,57.04407687045383,71.09060057648324,51.502683909632594,55.899757252023655,90.21773546466447,75.69670540323426
101.45571367044886,57.02780333181506,71.10643870914201,51.57427300890071,55.901093819791484,90.0843104474725,75.62510852563989
101.40825169322413,57.01059888599064,71.11084659931976,51.6558902804262,55.90592155879761,89.95230137406037,75.55759255813729
101.35950346956558,56.9924960708266,71.10355492923904,51.74711677482933,55.91435589000529,89.82223171581371,75.49425307180498
101.30961677097291,56.973526671067305,71.08431000657983,51.847538510721634,55.92649435465988,89.69454578682128,75.43519186028668
101.25875173992841,56.95374664537338,71.05289032819599,51.95673505241048,55.9423967474631,89.56962549630498,75.38049835023115
101.20704984327625,56.93323395941791,71.00912601362934,52.07427855127308,55.96206433409528,89.44784083913683,75.33025836431044
101.15464452774992,56.91206202194866,70.95290029466675,52.19972444616897,55.98544528576391,89.32957150954827,75.28456825980128
101.1016980003076,56.89028698868089,70.88414238216284,52.332590415324276,56.0124564594972,89.21517868129047,75.24351975035977
101.04840462298635,56.867967199916286,70.80282597424565,52.472342961570924,56.04298933186636,89.10498183816199,75.20716337869622
100.99495356207682,56.8451847988315,70.70896491362481,52.618407461011664,56.076893587275705,88.99929552494491,75.1754935695406
100.94150501206715,56.82203690452116,70.60259560066919,52.77018885100631,56.11396961669661,88.89849645002563,75.14847165093637
100.88820569558806,56.79860952468457,70.48376311191959,52.927074144235426,56.15399419763761,88.80304353969896,75.12604943116312
100.83520190065096,56.77496926274539,70.35253522316583,53.08841253205371,56.196756036812566,88.71343909183138,75.1081606018643
100.78261480917608,56.75117648078978,70.20903256967944,53.25350469555425,56.24206189993453,88.6301940565513,75.0947046036132
100.7305116446453,56.72728907574966,70.05343767588938,53.42163170881828,56.28971631549439,88.55382975501107,75.08556500120795
100.67892257243257,56.70334228837686,69.8859766329529,53.592107520844216,56.33951013587643,88.48487569664168,75.08065286245217
100.62788573524234,56.67933235174838,69.70691067904443,53.76430627607263,56.39122941238768,88.42383010975142,75.07992519840138
100.57745866254145,56.655230544181556,69.51656154915801,53.93765408651744,56.444659992706136,88.37111715807775,75.08337008072262
100.52768766514185,56.63100896989902,69.31534070651371,54.111625880092355,56.499570689127715,88.3270900577278,75.09100742902754
100.47859033577643,56.606641474450065,69.10374320896028,54.28576441467829,56.55569418065772,88.2920670468396,75.1029232353347
100.4301771055274,56.58208005814634,68.88231718825848,54.459688017032676,56.6127321764965,88.26634129020864,75.11928882345059
100.3824692346155,56.55724423024836,68.6516504469213,54.63306658332149,56.670377082136724,88.25014701347358,75.14033252489509
100.33547742054763,56.53204280887289,68.41238378856885,54.805591831919266,56.728318207375246,88.24363470095456,75.16629799864637
100.2891757355887,56.50639867567799,68.16521836783937,54.97696883719907,56.78622538623215,88.24690307247312,75.1974370345595
100.24352274568852,56.480242866176674,67.9108922221015,55.14691844929862,56.84374305381042,88.26005533888468,75.23403195345095
100.19851129130615,56.45349145388485,67.65013864469516,55.31516513629374,56.9005199387499,88.28321130181227,75.27639893506691
100.15418130437219,56.42604212606688,67.38365104445282,55.4814092367264,56.956247938178066,88.31647207397788,75.32485550166598
100.1105840414375,56.39779462919854,67.11206471586092,55.64530936604914,57.010668500772,88.3598971291198,75.37969423703677
100.06775372447342,56.36866271639161,66.83595305093039,55.80649392653267,57.06355044353417,88.41352136597243,75.4411902281007
100.02571796583477,56.33856120455219,66.5558357876802,55.96458646552385,57.114675155930726,88.47737191600208,75.50961085397003
99.98450920736627,56.30739528922818,66.27220455042627,56.11921307353999,57.16384122418954,88.55144979127991,75.58519631303464
99.94414131541049,56.27507965415322,65.98556218541283,56.269984724838565,57.21086653975264,88.63570890855304,75.66813044329223
99.90458349446237,56.24156922526029,65.6964498724694,56.41647847568078,57.2555724710835,88.73007819321259,75.7585397919913
99.86578206782227,56.20686296393183,65.40545233803476,56.55824100296208,57.29776884950725,88.8345034356088,75.85651810602963
99.82771188231372,56.17097931829727,65.11322590147547,56.694808471895065,57.3372656279042,88.94895021309885,75.96213420216769
99.79039205335843,56.13394104463686,64.82058486440464,56.82571896985733,57.373900825335845,89.07337171204209,76.0754119415447
99.75385441210314,56.0957891917225,64.52859542830706,56.95051948438338,57.407548752822784,89.20770168434356,76.19632398112823
99.7181201969904,56.05659854759352,64.23860240150138,57.0687884825991,57.438099110724465,89.35188619129005,76.32481750264091
99.68321476072987,56.016463239112504,63.952183828724685,57.18016349294845,57.465438399913076,89.50589727631986,76.46083162447789
99.64918067985205,55.97546443787127,63.67107841896553,57.284343398835254,57.48946117678559,89.66969195567985,76.604275778666
99.6160535737702,55.93365951898889,63.39712498520157,57.38106729999859,57.51009476357106,89.84315346193863,76.75499371068614
99.58383487017396,55.89110653949428,63.13223058109412,57.47010113434112,57.52730143854208,90.02607585455483,76.91275558554555
99.55251322373391,55.847890159572046,62.87835664229126,57.55124899573261,57.54105527400587,90.21819955435204,77.07728083652701
99.52211565229972,55.8041149468218,62.637505567043235,57.62437016088214,57.55132468160452,90.41924183823198,77.248251645562
99.4927221336433,55.75988068637111,62.411721420376864,57.68937443360902,57.55807834682137,90.62888859635068,77.4253020750296
99.46443097643856,55.71527620705335,62.20315085352993,57.74619929376404,57.561295529448465,90.84678214365879,77.60802102054693
99.43733050280912,55.67039520345239,62.014235462076165,57.79479370361852,57.56095916173049,91.0725336980284,77.79598621038919
99.41150996247967,55.62534237310742,61.84805305717305,57.83511507980827,57.55704342515248,91.30573293408635,77.98878857476387
99.38707248228836,55.580213929967556,61.70863142518586,57.86712231152402,57.54951357161864,91.54592415822664,78.18601678233763
99.36411125705827,55.53507908557642,61.60099936724531,57.89075661939277,57.53832749864912,91.79256833001536,78.38722946487472
99.34267891908755,55.489991373074446,61.530981542171624,57.90592924451583,57.52343901134573,92.04503547568491,78.59195908951828
99.32280174051262,55.445015877160536,61.504957438406805,57.9125355494341,57.504844905484624,92.3026339375928,78.7997450150658
99.30452274493365,55.40023496543032,61.52975296779871,57.910480972091484,57.48268707364281,92.5646394739188,79.01014809068849
99.28791103654508,55.35572660631239,61.61263150925681,57.899686408945925,57.45733943463111,92.83030618082287,79.22272921640095
99.27302671478364,55.3115496732921,61.761232230464294,57.88006953644484,57.42943082627896,93.09887583627047,79.43703517180616
99.25989660804873,55.267758241006796,61.98340992989975,57.851533241864146,57.39985240410681,93.36958759089022,79.65261935702998
99.24853219550953,55.22442006467151,62.28709569408985,57.813985400658204,57.36979509935529,93.6416672308637,79.86906156036937
99.23894997648173,55.18160929380219,62.680250174903854,57.767373594738245,57.34078495748253,93.91432017911696,80.08595083423566
99.23115367258335,55.139387079292995,63.17081257276124,57.711699285156996,57.31467817307444,94.18682165107182,80.30285266037806
99.22510998108896,55.09780365540126,63.76655500763963,57.647007467152655,57.29361718629708,94.45872040403653,80.51930467097964
99.22077246171965,55.05692157050712,64.4748834611807,57.57337865791855,57.27996945371932,94.72999924819393,80.73484392040888
99.21813562056381,55.016825151734054,65.30265257660092,57.49093318238376,57.27629802623873,95.00106438953439,80.94902289000619
99.21725021904803,54.977601484485255,66.25602510833144,57.39982940468498,57.28540076460637,95.27262876873262,81.16139435992443
99.21818616372636,54.93932460460007,67.34038522937387,57.30024631805043,57.310369941151635,95.5456097008532,81.37150053922673
99.22099995852962,54.9020727878026,68.56027284496523,57.192369902984936,57.35459640514378,95.8210726516595,81.5788903967165
99.22574085468618,54.865958854888596,69.91929938305618,57.07640242170084,57.42171534758396,96.10018747880966,81.78313453205662
99.23245991507423,54.83113261061597,71.42005698705002,56.95258090155509,57.51552699688677,96.38417367577001,81.98380813024377
99.24118447635226,54.79775381938222,73.06408009647777,56.821177296544775,57.63989656405738,96.67426566883633,82.18046484422081
99.25188732798998,54.76597476576976,74.85192860976541,56.682480808867226,57.79864989442348,96.97174158274785,82.37264398926115
99.26450146043743,54.735954635332305,76.78336834357764,56.53679003692537,57.99551742384407,97.27798137315348,82.55990821246024
99.27896460310086,54.707878200676774,78.85749401047444,56.38442964116737,58.23414121016134,97.59447447040375,82.74186339139402
99.29522960784473,54.68194529905971,81.07269465950088,56.22577084228487,58.51809964462233,97.92277885132403,82.91814239798731
99.31322875947913,54.65834286466563,83.42652807330428,56.06122957540892,58.85090879921893,98.26449235251367,83.08839160034017
99.33284866430712,54.63723544569438,85.91561989055306,55.89124949445789,59.23599887255596,98.62123206395135,83.25228434391676
99.35394878972983,54.618779924087804,88.53566349413202,55.71629452933814,59.676700956400985,98.99458458461515,83.40953183303445
99.3763841956041,54.60313332714568,91.28153140056818,55.53685190515903,60.17626200159995,99.38606366715545,83.55986392694787
99.39999136165753,54.590435228139256,94.14743578641686,55.353425329900446,60.73783316145381,99.79714191802424,83.70300021235451
99.42456624509704,54.580788823632815,97.12707161073465,55.16651388525385,61.36438741151717,100.22932932283707,83.83864969429531
99.449886386918,54.57426945657132,100.21371785749689,54.97660113792117,62.058611820843495,100.68420114085941,83.96653847732684
99.4757611471477,54.57094823284948,103.40030100714036,54.784174980920945,62.82282372940159,101.16336026923236,84.0864232448448
99.50204508540895,54.57089545123775,106.67945706892165,54.58975903896204,63.65889697180701,101.66841205912343,84.19807502541966
99.52860068184029,54.574160727681715,110.0436476435104,54.393918369566634,64.56818675733149,102.20096968086168,84.30127189483862
99.55526789450352,54.58076831387278,113.48531693682519,54.19723481374377,65.55149181499182,102.76263969057705,84.39582238800102
99.58188332050258,54.59074982433249,116.99697596613305,54.00028261430804,66.60907630853009,103.35502788248428,84.48158429535422
99.60831689617925,54.60417927472606,120.5711681034488,53.80362660139567,67.74070194683358,103.97986515377146,84.55844656097764
99.63447038027246,54.62116804100778,124.20043325193893,53.607829743346436,68.94561854250655,104.63918938822718,84.62629545251427
99.66024478433492,54.64183243385804,127.87734505560073,53.41344612014365,70.22254276503003,105.33538997295139,84.68500790766161
99.68553313302313,54.66627671742697,131.59452648414182,53.2210038728752,71.56969171150457,106.07107744437819,84.73447559126922
99.71024987207214,54.69460095274233,135.34458127795318,53.031002616620235,72.98487051787718,106.84894178190706,84.77461892728195
99.73434564458248,54.72690269801301,139.12004815904783,52.84392825853597,74.46554790101433,107.67171540778936,84.80537386442381
99.75778072613025,54.76325539079516,142.91347159123453,52.66025995276141,76.00888383721829,108.54217999864379,84.8266862641566
99.7804990320067,54.803690444836946,146.71750549777448,52.48045425679611,77.61172933516329,109.4631296684357,84.83853345046255
99.80244476583306,54.84821157038247,150.52492187526985,52.30492437155261,79.27062079478235,110.43730390810315,84.84093989888797
99.82359556467874,54.896823652958446,154.3285307356203,52.13403539585449,80.98176739716709,111.46732659315619,84.83395844626897
99.8439589371395,54.94953671438696,158.12110182536054,51.96810762581821,82.74103217436576,112.55566522245888,84.81763937895266
99.8635386451595,55.00634066330929,161.8953360077778,51.80740798590671,84.54394330616229,113.70466953639387,84.79203012184287
99.88232657037884,55.06718483654123,165.64388541247567,51.65213075683366,86.38576790099548,114.91672574328082,84.75720708454361
99.90033055886187,55.13198419445543,169.3594077322704,51.50239137010768,88.26161072405526,116.1944003131844,84.71329524925308
99.91758603589506,55.20063244118742,173.03462149360473,51.35824919049605,90.16647475311325,117.54042030126547,84.66045759060151
99.93412503886037,55.27299311072023,176.66232270465372,51.21973992645168,92.09527978548672,118.95755370360028,84.59889156065942
99.94994679579936,55.348873548653444,180.23535520942121,51.08688420347915,94.04288277433352,120.44857311642723,84.5288528803158
99.96503371265017,55.428023640924586,183.7465659038273,50.95967112954101,96.00412100728747,122.01631219366278,84.45067201511291
99.97938614462596,55.51020287408273,187.18879817496983,50.8380484436364,97.97384902072194,123.663643480849,84.36473262392018
99.99302069020513,55.59529422062507,190.55496033644226,50.7219377463574,99.94693055311343,125.39331673940077,84.27143513236057
100.0059367029237,55.68337702865315,193.83813294447626,50.61125438582824,101.91819417128548,127.20781554881941,84.17119359283191
100.01810756905117,55.77471889870344,197.03164044524078,50.50590493978094,103.88241865666268,129.1093439972678,84.064470020084
100.02951105854532,55.869731689929594,200.12906802362238,50.40577242610735,105.83442998067406,131.09983640418227,83.95179557966108
100.04014634642127,55.968927018233614,203.12425258875132,50.3107267106832,107.76933540025045,133.18087266388082,83.83375499072851
100.04999922630674,56.07286388731028,206.0112695439608,50.22066951285068,109.68279988283125,135.35354285718347,83.71097684105276
100.05898207185363,56.182085353540664,208.78443011392633,50.13557282215178,111.57119953135178,137.61833343098058,83.58415697729576
100.06691269613738,56.29706077745566,211.43829486429314,50.05547583875924,113.43157921830507,139.9750244154248,83.4540749301925
100.07357701089798,56.41815566110799,213.96768712685918,49.980459682023444,115.2614958274246,142.4225753654086,83.32156566323447
100.0788367814609,56.54563302769031,216.3676912607473,49.910629803379,117.05887813926529,144.95904038190238,83.18747287387154
100.0827006930678,56.67968155966978,218.6336418570353,49.846126214719646,118.82198698368867,147.58159238974767,83.05263513753547
100.08538635692487,56.820508437085216,220.7611270387659,49.787224249716054,120.54948026241425,150.28665719959457,82.91790786753137
100.08749427031316,56.968514106796036,222.74602353398922,49.73454915465615,122.24049826643645,153.07003482951575,82.78417249831425
100.09031512432178,57.12444320772531,224.5845476844247,49.68926434860751,123.89466325282667,155.92694626243184,82.65231254269065
100.09613869259636,57.28940217560347,226.27330004154078,49.65308836957088,125.51199679799464,158.85208562643237,82.52319657170214
100.10839735446093,57.464772148494525,227.80930837251753,49.628189689722134,127.09284692195881,161.83971072764467,82.39769216387069
100.13157292544349,57.65211152836419,229.19007378704126,49.61712891778908,128.63784188255667,164.8837120975044,82.2766753293045
100.17094190819144,57.85310017176749,230.41361314573257,49.622951388929984,130.14780535740366,167.97765360750486,82.16100083227933
100.2323026632719,58.06953051629479,231.47849149131153,49.64934595975927,131.62362126556746,171.11481722972908,82.05145466015523
100.32176606630097,58.30335711035891,232.38384168182907,49.700685416883715,133.0661123773562,174.28822888792115,81.94873829404925
100.44558297884669,58.55679870603698,233.1293844021033,49.78188831297294,134.47597506592174,177.4906359557098,81.85349280545742
100.60995136962032,58.83240099748722,233.7154508590174,49.89819384425912,135.85374048680896,180.71446742959782,81.76631566520649
100.82080696248929,59.13297601942551,234.1429786789848,50.05493973321117,137.1997287149329,183.9518289991319,81.68774587467696
101.08365524820462,59.46146063532108,234.41348975783512,50.257367180939454,138.51402352534876,187.1945379403806,81.61825440817428
101.4034835232983,59.82079341899363,234.52909948054406,50.51045398522598,139.79649508129768,190.43414224235664,81.55826424643095
101.78472010818733,60.21385476417523,234.49253734631358,50.81878926025297,141.04682828619866,193.66188240806017,81.50816539433924
102.23118189186529,60.643435626532614,234.3071150830222,51.18650120503873,142.26451841457256,196.8686332242389,81.46829035897258
102.74602350955908,61.112179526797945,233.97666494660297,51.61721703135305,143.4488868065184,200.0449153883099,81.43887192405597
103.33174602524535,61.62254412990005,233.50552468822818,52.11401651119546,144.59916812029178,203.18105016708404,81.42003429680949
103.99024645629392,62.17694141390295,232.89855996457402,52.67937129802703,145.71462302349525,206.26742269862217,81.41182515183449
104.72282582877068,62.77806667179984,232.16114407177722,53.31510605875923,146.79464080831718,209.29471250976218,81.41423804639547
105.53014119849814,63.42913886623957,231.2990888594611,54.022412933541425,147.83884388321644,212.25400689680748,81.42719779932865
106.41218260513618,64.13384279184248,230.31858446079403,54.80189401237392,148.84714080300273,215.1368463026328,81.45054751782051
107.36832344344278,64.896080062303,229.22614116321995,55.653577759904195,149.81966866432958,217.9352652798128,81.48406842005726
108.39737852010813,65.71971998777602,228.0284952297589,56.576905265186554,150.75666444220923,220.6418421063053,81.52750312367712
109.49759974193093,66.60846227572723,226.73249629477215,57.57074443970772,151.65833038542365,223.24975043363213,81.58054552376124
110.66664045201011,67.56586204786207,225.3450159304339,58.63346474977696,152.52472372497604,225.75278349667195,81.64281163669145
111.90154738057119,68.59543794044261,223.87289005380188,59.76301658107246,153.3556854641651,228.14532945070363,81.71383586635184
113.19878577607783,69.70069550863685,222.322876270044,60.956988007573734,154.15080209006894,230.42234484338204,81.79310023153819
114.554272831837,70.88501511845357,220.70160292272303,62.21276110328682,154.9093736618973,232.57939858994712,81.88005363012599
115.96339894250173,72.1514903564138,219.01552669645844,63.52782719131749,155.63038495530037,234.61276714878753,81.9740989964877
117.42103750198352,73.50278459075314,217.27093961367973,64.90005102195329,156.31251537892658,236.51947774219158,82.07458149620487
118.92156394100665,74.94102255824416,215.47401400290872,66.32769120657272,156.9542043340259,238.29728560151779,82.1808016879103
120.45890397963068,76.46774920160728,213.63082341191824,67.80928052044516,157.55372527865907,239.94467012477293,82.29202846054044
122.02661858036136,78.08401419596056,211.7473339239342,69.34356357858044,158.10922295397629,241.46084969001436,82.40748414443809
123.61800417528056,79.79056998106763,209.82942022810647,70.92951754696475,158.618747209828,242.84574550960156,82.52631863784804
125.22617014696567,81.58803440591088,207.88289484002183,72.56634036667279,159.08032887742345,244.09988696741956,82.64761548417037
126.84409021546169,83.4768957369244,205.91348429678405,74.25336654648333,159.4920557069922,245.2243034843511,82.77043579732555
128.4646451849636,85.45739494623842,203.92676197370938,75.9900248132445,159.85208384748825,246.22046464133555,82.8938525526266
130.08065111104096,87.52938610439902,201.92810878107397,77.77589971358407,160.1586030681792,247.0902880586458,83.01694854372414
131.6848769449614,89.69228437989935,199.92272505503388,79.61077495114372,160.40982314680508,247.8361417184857,83.13881155428003
133.27009208975744,91.94515321942092,197.915674242127,81.49457132256636,160.60400359437986,248.460791405797,83.25855376980998
134.82915475479933,94.28682700766441,195.91194070507044,83.42731285044513,160.73948403577387,248.967330650234,83.37533114316795
136.35508473798612,96.71594579079014,193.9164605180452,85.40923966347707,160.81467779992136,249.35910889482884,83.48833245372204
137.84108052111026,99.23092566810159,191.93408293878218,87.4409244618199,160.82804660832468,249.63965471759843,83.59675155159651
139.28052377182388,101.82992971183387,189.96947601969015,89.52320760288843,160.77808892193494,249.81262957437144,83.69978620559932
140.66702788326052,104.51081618396714,188.02702771160864,91.6570230055076,160.6633422965049,249.8818132926737,83.79667522626416
141.99451148598436,107.2710302869261,186.11078862535257,93.84334390005391,160.4823993691585,249.85107709343364,83.88673136055384
143.25723441320628,110.10750630728448,184.22446745836643,96.08330449309192,160.2339887338481,249.72433672387464,83.96934059109888
144.44978119158452,113.01671612475847,182.37144314835925,98.3782890603143,159.91717411514702,249.50549535008594,84.04395523304039
145.56703929986006,115.99488317023307,180.5547500496112,100.72982071980901,159.5316241261937,249.19836633036627,84.11010614026803
146.60421816225292,119.03816807033434,178.77704212902051,103.13932719484875,159.07781571125102,248.80660480014598,84.16741195317502
147.5568990611159,122.14267860287686,177.04058508703721,105.6079325091211,158.5570706514804,248.33372721776146,84.21555754150802
148.42107024973743,125.30441207686337,175.3472917381154,108.13634409445649,157.97145072048406,247.78323596492257,84.2542577988326
149.19313886377188,128.51925795195172,173.69875578513938,110.72483047000088,157.3236072795164,247.15874005264914,84.28325113267198
149.8699549847077,131.78301152262512,172.0962559081053,113.3732199343433,156.61663385690156,246.4639604940061,84.30232988298603
150.44884788389092,135.0913403345303,170.54077005301693,116.08084461251802,155.85392013705996,245.7026389405991,84.31136049187947
150.92763088395185,138.43974149144526,169.03304933019058,118.84644160067357,155.03902013667846,244.87844929660014,84.31026320873606
151.30457447951164,141.82350795168927,167.5737274849254,121.66809194356685,154.17555976201322,243.99496313525347,84.29898237359883
151.57840092615137,145.23767002209493,166.1633838523479,124.54323228757463,153.26718095386815,243.05563367002063,84.27749026998399
151.74831584097433,148.6768986761385,164.80252484948932,127.46869109678288,152.31748989955483,242.06376663173492,84.24581881978827
151.81402570646827,152.1353964681551,163.4915227593664,130.4406941542114,151.32998979611276,241.02250771602093,84.20407357530844
151.77570384816087,155.6068174757878,162.23054942127487,133.45483677564164,150.30802197907224,239.93485956273534,84.1524165586061
151.63394093124856,159.08424074084724,161.0195262223788,136.50607327040078,149.25475520276046,238.80368267226382,84.09105952184457
151.38974096711212,162.56019014899994,159.85812873238615,139.58879371235972,148.17321814166843,237.6316612115619,84.0202874290116
151.04455830181703,166.02667683274032,158.74585476548702,142.69699415648145,147.06631790026816,236.421280423793,83.94047252303291
150.60030748076363,169.47523711966903,157.68208481603654,145.82446386983722,145.93681594623956,235.17484952091692,83.85205057600359
150.0593175351814,172.8969611307584,156.66607344702618,148.9649457876219,144.7873099938234,233.89453907339887,83.75548990556224
149.42427996547298,176.28255069283495,155.6969072269127,152.11228647091556,143.62026987741757,232.58238863694132,83.65129370439486
148.69822672327152,179.62244336245416,154.7734839581051,155.2605791255004,142.4380940095894,231.24030357409845,83.54002526008738
147.88450908489708,182.9069841737486,153.89450662891682,158.40427940293577,141.24312056606368,229.87011615387368,83.42231084545364
146.9867558212187,186.1265890024474,153.058469021616,161.53825018058558,140.03758350311355,228.47371385355393,83.29881490510446
146.00884474024684,189.27184277432644,152.26364193970468,164.65771690535618,138.82355524006354,227.05311381360252,83.17023470052946
144.9549104467232,192.33351108247086,151.5080853828994,167.7581899647356,137.60291315973652,225.61041803581602,83.03732967745849
143.8293514699955,195.30251653798047,150.7896991505114,170.8353952860654,136.37733373704557,224.14774553324327,82.90093590434681
142.63680302635868,198.16998235227845,150.10628747990737,173.88520894924778,135.14830121979145,222.66723260719922,82.76192964845933
141.3821009018269,200.92738356602877,149.45559151096538,176.90362742257503,133.91713900737102,221.17106560477762,82.621166402572
140.07026623633212,203.56670604320857,148.83528395422724,179.88679399953438,132.68507548188558,219.66148166030166,82.47944116523023
138.70648668725602,206.08050568067853,148.24296673029295,182.83102978149432,131.45330555100642,218.14073652319513,82.33748197419247
137.2960646999179,208.46190657296407,147.67619099615328,185.7328525124827,130.2229981653948,216.6110675186827,82.19594826953919
135.84436242319862,210.70462117521373,147.1324753253829,188.58903723235355,128.99526825383552,215.0746558444011,82.0554106749749
134.3567907653145,212.8029804796394,146.60931311160195,191.3967175602135,127.77116547783,213.5335786959448,81.91633297372343
132.83882560577456,214.75193170886814,146.1042147420434,194.15344011013687,126.55168329882723,211.98977320717333,81.77909148666889
131.29598698508715,216.54701678422313,145.6148104743376,196.85712090218982,125.3377515857621,210.44504283277996,81.64402212794032
129.73376288304098,218.18436208979006,145.13894423351977,199.50597753078068,124.13019957651149,208.90108167334978,81.51144429095142
128.1575311973005,219.66066903495425,144.6746801920216,202.09852647271842,122.92973057733423,207.35947989202904,81.38164591046198
126.57254611871308,220.97317029862424,144.22024668654626,204.63359751178962,121.73698705477734,205.82172258097685,81.25487529951027
124.9839874996599,222.11957680060686,143.7740040652148,207.11026999840718,120.55271919513181,204.28919783345776,81.1313668423164
123.39699657487857,223.09813443103462,143.33449156440722,209.52774318147326,119.37793263469233,202.76319260172522,81.01136326497382
121.8166585728689,223.90783673474004,142.90052725873903,211.8852033599516,118.21391345926085,201.24485516734413,80.89510126011926
120.24797935449999,224.5486233920018,142.471276566076,214.18171057347365,117.06219918174773,199.7351468454789,80.78278911575869
118.6958831717669,225.0213851775827,142.04623678960252,216.41612396277742,115.92458700060266,198.23482721640661,80.67462006167153
117.16519264472277,225.3278182109103,141.6251525304781,218.58709785548353,114.80314041132618,196.74448137775389,80.5708088395666
115.66056916703862,225.47029114783524,141.20790031326712,220.69314477671526,113.70012790628354,195.26455435767153,80.47160023975654
114.18645006820107,225.45182111053865,140.79438752004577,222.7327332643243,112.61791839035021,193.79535474351513,80.37724197383514
112.74702422002926,225.2761142395685,140.38451595242765,224.70440247334068,111.5588907078253,192.33703406828863,80.28796911264382
111.34623559468446,224.94756351834656,139.97821476520872,226.60690671816278,110.52536728321613,190.88959201578635,80.20402070753431
109.98776768111627,224.4711967276398,139.5754730802664,228.43939739589527,109.51955098607685,189.45292211311272,80.12565041336092
108.67500738052672,223.85264122183676,139.17632160571225,230.20155273310755,108.54345671639174,188.02685442570964,80.05310100106934
107.41105209558094,223.09809117198347,138.78081690862848,231.89353568899665,107.5988534162666,186.61118265222976,79.9865686742651
106.19877752507612,222.21422979653838,138.38908277680812,233.51580649512633,106.68723475794046,185.2057061889293,79.92620102718601
105.04088319892573,221.20813434947445,138.00135253499846,235.0689171226868,105.80980869981884,183.81027497885643,79.87212699911208
103.93986235224796,220.08719449968132,137.61794167548277,236.55337342315167,104.96748080763587,182.42479732734196,79.82447207550209
102.8979615644817,218.85901222375216,137.23918228178584,237.96959269942673,104.16083684999218,181.04923041365348,79.78334276300052
101.91719745797236,217.5312607450615,136.86540754307347,239.31793329033553,103.39015925361369,179.6836124139819,79.74882214760054
100.99938972598598,216.11153609776883,136.49700866302214,240.59873742590258,102.65548025464938,178.3281392620244,79.72099597610435
100.14614269056099,214.60724633550174,136.1344839512133,241.81235050022067,101.95662273266836,176.98321805369335,79.69996824315734
99.35879099502111,213.02555737754255,135.77842460614775,242.95910807194,101.29319893459771,175.6494446746565,79.68583691060152
98.63837119947263,211.37338377528013,135.42949578538023,244.03929736361238,100.66461284201478,174.32753775035,79.67865891435963
97.98563285177248,209.65740145362375,135.08847224605364,245.05312121614094,100.07013160541122,173.0183053668107,79.67844661858065
97.40104756127825,207.88408643821012,134.75628197529005,246.00067567131006,99.50900691999362,171.72267525537652,79.68519139120971
96.88479282827961,206.0597761044224,134.43398982731625,246.88194493973134,98.98054903914144,170.44174097645097,79.69887006076439
96.43674763428196,204.19069036996726,134.12274812715998,247.69685562637497,98.48410795653632,169.17676093285579,79.71941984118956
96.05653466561361,202.2828692367459,133.8237713983879,248.44538440801173,98.01901554063204,167.92913151146047,79.74672212661282
95.74357110894536,200.34211260229011,133.53830958089466,249.127627668378,97.58454383781618,166.700402431902,79.78061891592964
95.49706752692221,198.3741098140037,133.26757099876662,249.74380897634694,97.1798749611355,165.4923061049351,79.82092692044564
95.3159859515537,196.38480036121558,133.012621806052,250.2942993557734,96.80406214327203,164.30671882632734,79.86741694155663
95.19902500332367,194.3806964655641,132.77433907393583,250.77966793592535,96.4559906726635,163.14557206564623,79.91978239150731
95.1446546968838,192.3689166393224,132.55346048986394,251.20069051182267,96.13436239223041,162.01079321970997,79.97764143862983
95.15114690581942,190.35700480510232,132.35067704784973,251.55828468946498,95.83770495406954,160.90427895648563,80.04057179012123
95.21656232776331,188.35271196196373,132.16666793205582,251.85344651419356,95.56438091162778,159.82784521759683,80.10813337260618
95.33872858211878,186.36379667508544,132.00206604833994,252.08725217372367,95.3125912042956,158.78315473428955,80.17986601099622
95.51525278358329,184.39785337690412,131.85745475092295,252.2608948222107,95.08041349235056,157.7716892905569,80.25530116205857
95.74355366501804,182.46218795464395,131.73347386515255,252.37576699168497,94.86590092079233,156.79478780100538,80.33399873436731
96.02087524790691,180.5637314457537,131.63099364476756,252.43364735702735,94.66720156952604,155.85367711589544,80.41556390812934
96.34430023543386,178.70894980118535,131.55126734270337,252.43691494056225,94.48264413094073,154.94943195653948,80.49961684493391
96.71081490355591,176.90372899862257,131.49601068501815,252.3886398046122,94.31077335849399,154.08289232070683,80.58574805092707
97.1174038091569,175.15325925522535,131.4673732207576,252.2925034579707,94.15036223675062,153.25460173744744,80.67350863400524
97.56109250940816,173.4619487187951,131.46780606299555,252.15259650684536,94.00043666062068,152.46478801924812,80.76243874636813
98.03891601183145,171.83338465935563,131.499905066055,251.97317712388582,93.86029338305435,151.71336879645168,80.85208772643895
98.54786680107848,170.2703559476482,131.5662869728037,251.75846789157498,93.72946314209544,150.99997438055672,80.94200288738934
99.08487533870525,168.7749205774268,131.6694745101528,251.51253502507387,93.60763204321401,150.32400617806684,81.0317220434373
99.64682679716142,167.34846283967522,131.81176241053979,251.2392611164161,93.49458846155201,149.68472262956638,81.12079266513642
100.23057893967734,165.9917118828372,131.9950824629158,250.94236862464535,93.39022585475668,149.08129587022736,81.20878563038134
100.83296695824717,164.7047715685688,132.2209016313473,250.62542822241832,93.29455340289402,148.5128036527432,81.29527656714421
101.45081803085698,163.48725464561727,132.49016999490672,250.2918323360699,93.20766439029384,147.97819563964453,81.37982275760741
102.08097611744346,162.33855506839282,132.80330253205258,249.94474664891072,93.12969005946033,147.47628651345738,81.46197720968296
102.72030648685787,161.25814089313857,133.160172752923,249.5870626287123,93.06079043260436,147.00576260926627,81.54132890342076
103.36567046697834,160.24568639595788,133.56013834611034,249.22139254150215,93.00116716138163,146.56516093176916,81.61751803975903
104.01390423610432,159.3010110519083,134.00211985227548,248.85011431673541,92.95104519963911,146.152831909814,81.69021298330871
104.66184747476804,158.42397196626038,134.4846908297918,248.47541205287436,92.91061822671381,145.7669329853484,81.75909235016944
105.30641394354895,157.61444847062012,135.00613044111364,248.0992656677533,92.88000149716723,145.40546196464965,81.82386072073453
105.9446421342338,156.87239589774353,135.56443288767443,247.72338598628997,92.85921400909686,145.06628957225993,81.88426821545421
106.57371060500938,156.197846286382,136.15729158513994,247.34911361242368,92.84816566569663,144.7471689236233,81.94009872804989
107.19096980215592,155.59082448100503,136.78210578404537,246.97732508444068,92.84664493783106,144.44576748282307,81.99114765903623
107.7940022544218,155.05125661481983,137.43604396788376,246.60840534938708,92.8543755038889,144.15977814251403,82.03723519741294
108.38065393650025,154.57890372854325,138.116115846421,246.2423174747476,92.87117829684944,143.8870695004686,82.07824848785455
108.94900075187641,154.17328191835153,138.81919526692351,245.87876011848357,92.89712841441747,143.6257679777857,82.11415863041127
109.49728552989241,153.8335569381869,139.54200699186907,245.51736984000496,92.9325800559291,143.37425595490637,82.14499658273498
110.02388763278641,153.55846029953904,140.28110563976279,245.1579058049223,92.97808419890035,143.1311611393332,82.17083067994244
110.52733684622473,153.34628717466182,141.03285070249999,244.8004106925322,93.03430551891098,142.8953520099034,82.19177223049876
111.00632260417815,153.1949728326176,141.79340381466832,244.44539915348315,93.10198441867986,142.66589503836516,82.20798127066955
111.459672749411,153.10216319653955,142.55879793550017,244.09404921162567,93.18190854656382,142.4419899705151,82.21964373131678
111.88633331643165,153.0652293616005,143.325062649076,243.74830112345384,93.27485282321925,142.222964042478,82.22693986786904
112.28536758624611,153.08127574652116,144.08831345419793,243.41083508186884,93.38150524739498,142.00834269244555,82.23004172764118
112.65594916414554,153.14718077171992,144.84476411785502,243.0849614109533,93.50242539773339,141.79790758278554,82.22913503887034
