HandOpen,HandClose,Wrist Flexion,Wrist Extension,Supination,Pronation,Rest
100.46023532457953,97.83325549693429,69.09793211864282,54.00996024702254,68.8624679691313,73.41497729492092,83.99071837747002
100.35726483338078,95.38130511597026,69.27819068142901,53.858053100261394,68.6282447067308,73.55164761036568,83.9956499967128
100.24933245483123,93.00495315866762,69.4403539781892,53.71579722085496,68.39824834625402,73.68057440906941,84.00159980647578
100.1366783828874,90.7073559769589,69.5829850597973,53.58365119359186,68.17293823592028,73.80053718026645,84.00855267589496
100.01953192911735,88.49124449178784,69.70477832179232,53.46202128628504,67.95271036887985,73.91037299638771,84.01650901293509
99.89809434711334,86.35893983129544,69.80460022849444,53.35126371533024,67.73788735245391,74.00897124740261,84.02551058046849
99.772560717716,84.3123510731541,69.88150859840839,53.251671052428534,67.52874916756113,74.0952654598655,84.03565056096352
99.64314096824755,82.35296928600309,69.9347342695587,53.16344598622811,67.32557462638677,74.16825442578039,84.04704521591931
99.5100410769628,80.48188794873137,69.96365485982298,53.08668670609997,67.12864883943514,74.22704143390008,84.0598041908644
99.37343405236055,78.69984430461457,69.96779356184705,53.02139783608491,66.93824183913115,74.27084946756305,84.07403747066962
99.23347171138516,77.00724391259142,69.94683461212193,52.96751304721327,66.75459748122799,74.29900154246378,84.0898803342768
99.09032441275895,75.4041552160158,69.90062162564796,52.9249030441007,66.5779405550509,74.31090509532757,84.10749204439693
98.94419129430723,73.89030697412718,69.82913019029083,52.89336639686593,66.40847291539613,74.30607400958631,84.12703228159917
98.79527119630525,72.46511735346962,69.7324432408942,52.872627192261994,66.246346933288,74.28416544123876,84.14866111205069
98.64374397900771,71.12773509092838,69.61075448744188,52.86234906962854,66.09164654072913,74.2449846165829,84.17256762254338
98.48978841875157,69.87705605723531,69.464385764474,52.8621453943536,65.94440519659642,74.18845649892049,84.19897794407005
98.33359984968668,68.71171794612462,69.29378592160455,52.87157276251277,65.80464179358665,74.11460925194605,84.22811878528333
98.17537233750754,67.63010915458068,69.09950911698047,52.89012787810909,65.67237009903316,74.02359242701617,84.26017751949391
98.01527469472478,66.63040492364414,68.88219755112024,52.917267891028295,65.54757627762874,73.91569663666347,84.29530758205777
97.8534702412459,65.7106009577869,68.64257696121788,52.952436985201814,65.43020585290911,73.79133901170849,84.33366630508176
97.69016527130816,64.86851685561025,68.38144788684565,52.995069197658296,65.3201859854058,73.65103262908862,84.37542722998593
97.52562276454361,64.10178224430958,68.09966217478423,53.04457073872135,65.21745439386434,73.49537929519656,84.42074630624671
97.36012779104371,63.40784273163334,67.79809983213332,53.100312617829076,65.12195702399742,73.32508248689568,84.4697265413504
97.19395915519543,62.78400058212907,67.4776672354106,53.161647437276685,65.03362552279575,73.1409422697982,84.52242849804075
97.02740074275836,62.22745871493305,67.13931085024538,53.227928730255634,64.95237248838656,72.94382166645319,84.57891169308996
96.8607562157865,61.73533268768882,66.78401865719181,53.29850850018039,64.87810741940935,72.73462258400048,84.6392513308933
96.69432810932477,61.30464381797928,66.41279940008178,53.372721780565136,64.81073922355338,72.51430346723073,84.70352132073486
96.52838962953055,60.932331325402394,66.02666314175642,53.44988650670411,64.75015147210574,72.28391217725046,84.77179217268188
96.36319947643362,60.61528658182912,65.62662864813444,53.52932418584903,64.69618201091829,72.04458359977824,84.84415933907124
96.19904501358585,60.35037501542135,65.21374788588572,53.61037499365078,64.6486364566792,71.79750120378655,84.9207555206758
96.0362525248109,60.13442980175918,64.78911378898488,53.6923897860376,64.60731587513806,71.54387105654732,85.00171970558806
95.8751510169889,59.964246599781845,64.35384196827181,53.774720622237695,64.57201872835401,71.28493603800219,85.08716135504699
95.71604233081375,59.83660658093554,63.909051047927576,53.85673814989111,64.54251719605968,71.02199855376456,85.17716460869154
95.55921836713709,59.74830925708591,63.45585870371635,53.93786342858991,64.51854661268676,70.75640945656566,85.27181602219541
95.40499695500442,59.6961813985341,62.99538052981267,54.01757750092568,64.49982749926686,70.48953462569308,85.3712053869488
95.25372351612205,59.67706541090419,62.528717254530264,54.0954033865618,64.48609094629398,70.22273916651035,85.47539725076368
95.10574447010555,59.68782265128256,62.05694456332691,54.17089388929611,64.47707297508967,69.95738905615404,85.58441926204624
94.96140500322203,59.72536696450024,61.58112497719006,54.243649934108305,64.47249140432827,69.69483540020602,85.69827937531808
94.82107878494128,59.78669823540945,61.102327063373565,54.313350863649184,64.4720459701777,69.43637350761193,85.81697045006054
94.68517687921313,59.86890531736639,60.621622486693894,54.37976071661486,64.47544583925159,69.18321342293585,85.94043999765717
94.55410940980975,59.96915502642048,60.14006024681333,54.44270983990822,64.4824245996724,68.93649164097738,86.06855996568598
94.428244262722,60.08470314238264,59.65864534682079,54.502084250128384,64.49272133170824,68.69729945897133,86.2011353504469
94.30791259447767,60.21292534043502,59.178342716198195,54.557833500887014,64.50605951710766,68.46668148705668,86.3379352141784
94.19344257595034,60.351331044578885,58.700094904690324,54.60997084129111,64.52215923892916,68.24560523320447,86.47869951641945
94.08516317478762,60.497546263828504,58.22482455513381,54.6585505016082,64.5407657825495,68.03495030175327,86.6231186841704
93.98336905547579,60.64929792145314,57.75341708257738,54.703646574941764,64.56165210666803,67.83554131520998,86.770828590184
93.8882983908375,60.80442917038937,57.28671092772878,54.74535859747709,64.58459369961255,67.64818467083673,86.92143396815648
93.80015305511172,60.96092627859466,56.82551502021781,54.78382849771778,64.6093579029285,67.47366348126585,87.07452096018523
93.7191220686509,61.116918937630274,56.37063512885164,54.819237232639864,64.63572947552771,67.31270807467914,87.22963408131201
93.6453657242794,61.27065501162419,55.922877987437154,54.851779582499674,64.66353967694198,67.16599121986015,87.38624966827572
93.57898661301795,61.42048731327265,55.48303676209888,54.881644835558895,64.69266029741263,67.0341505371778,87.54378736808283
93.52004101756809,61.56489001409285,55.051887378424986,54.90902076338335,64.7229760542027,66.91779316820832,87.70164726902586
93.46858159308744,61.7024761378709,54.63019916717979,54.93410447982052,64.75437785287993,66.81746544305132,87.85922429565262
93.42467026103472,61.83198602945081,54.218733282805076,54.9570952906224,64.78678239542059,66.73362961723112,88.01589272655339
93.38834380843569,61.952261335318305,53.81821896014056,54.97817513326805,64.82014015496901,66.66668691660081,88.17100320480563
93.35958525116823,62.062241952738525,53.42933349423033,54.9975033472795,64.85441270045507,66.6170208000903,88.3239069695179
93.33834445680837,62.160990246914686,53.05271216409232,55.0152297485581,64.88955152952637,66.58500449782667,88.47396913999795
93.32457818646894,62.24770518975323,52.68897416351443,55.03150021372974,64.9255110079704,66.57096895643232,88.62054658715591
93.31825368292523,62.321705039586,52.33872821724719,55.04644062319189,64.96227536972951,66.57518048679248,88.762962522341
93.31932189003582,62.38240730720328,52.00255242492405,55.06014077687696,64.99985715038953,66.59785086780367,88.90052197506762
93.32771402781123,62.42933765151841,51.6809761727679,55.07266432996543,65.03826581029774,66.63914387808903,89.03255838032007
93.3433686738458,62.46215198116422,51.37447937137247,55.0840742594221,65.07748724871831,66.6991490523203,89.1584568015423
93.36623830460425,62.480633625896004,51.083494227780264,55.09444009136002,65.11749831543119,66.77785142672745,89.27763247087883
93.39625241304189,62.484662787274516,50.808395135290404,55.10382009065977,65.15828973337277,66.87513696090281,89.38950587072723
93.4332821532966,62.474195770234815,50.54949018260096,55.11224933766011,65.19986080844846,66.99082003568307,89.49351620543486
93.47715484463534,62.449276589678185,50.30703150741727,55.119757480328474,65.24219648174669,67.12464645117959,89.5891560858425
93.5276974445463,62.410053854819644,50.081228426113,55.12639712246301,65.28526680962838,67.27626278340422,89.67597955817531
93.58474617072666,62.35676892728717,49.872237578790795,55.13224786932468,65.32905262054621,67.44519495557437,89.75358102267847
93.64810950703063,62.28972751738958,49.68013805429612,55.13739539641738,65.37355768053993,67.63086869136482,89.82159000748985
93.71754056555552,62.2092909570478,49.50492116863801,55.14191649053351,65.41878700269855,67.83264481436063,89.87969628230272
93.79276122860236,62.115889438824205,49.346505326485925,55.145887376632494,65.46472241655766,68.04982266814785,89.92766525991544
93.87350473455922,62.01002294538474,49.20475491195511,55.14939803583613,65.5113319627673,68.28161619514312,89.96531792624188
93.95951894496227,61.89223511149058,49.0794801182104,55.15254853320253,65.55860050932866,68.52715007465362,89.99250961652142
94.05053678243809,61.76309004059987,48.97042710093486,55.15543450620323,65.6065375937996,68.78549177853814,90.00915002877431
94.14626888927671,61.623179386592106,48.87728660280464,55.158146131485765,65.65515324900238,69.0556780744514,90.01524429538969
94.2464292001013,61.473140692581936,48.799721345058735,55.16077716333806,65.70444156720147,69.33670478227728,90.01089910430673
94.35074374274103,61.31365054377893,48.73738133817058,55.163418741600054,65.75439904302618,69.62751239031577,89.99628884789398
94.45891649287134,61.14539235565758,48.68989351066452,55.16613519900885,65.80504903589288,69.92700993047096,89.97163137557675
94.5705967015599,60.969034874061315,48.65685130514113,55.168948787839355,65.8564328578665,70.23411712964314,89.93719511402324
94.68539911072074,60.78524294130127,48.637830327316074,55.17185068337627,65.90857688000068,70.54777350880029,89.89330236166164
94.80295550770768,60.59469664866523,48.632416200156285,55.17481891961941,65.96147437880244,70.86691224619706,89.84030091558898
94.92293055473786,60.3980871708199,48.64021128255122,55.177814470766904,66.01509060273342,71.19044925335977,89.77853050075252
95.04498704451888,60.19609956546532,48.660817781971225,55.18075796817172,66.06936236690525,71.51731618735391,89.70832359605951
95.16875668147354,59.98941486742729,48.69382587119034,55.18351680020766,66.12417657888287,71.84650113490687,89.63003106560092
95.29386033964228,59.77873043844743,48.738820063383756,55.18592020128041,66.17935381107175,72.17704932719528,89.54402774937952
95.419948053523,59.56476434920146,48.79538427990595,55.187782611808956,66.23466560272085,72.5080348580957,89.45069087215543
95.5467019944896,59.34823090190404,48.86308817531804,55.18890740570341,66.28986848056398,72.83855040303722,89.35039291953954
95.67380727292156,59.129817652971354,48.94147021566127,55.18908037172948,66.34471341085013,73.16772374095808,89.24352552480045
95.80094723403795,58.910193444296176,49.030042684535026,55.18808110147373,66.39892584781047,73.49472255633748,89.13051517294629
95.9278356222898,58.69003238138442,49.12831087925381,55.185707040823544,66.45219616064038,73.81872806711586,89.01179995240909
96.05423288949973,58.470015573886194,49.23577568097289,55.18177914461072,66.50420866489742,74.1389138955679,88.88779670457465
96.17991755999803,58.250806270494486,49.35191414021575,55.17612333297747,66.55468283907797,74.4544693007035,88.75890912148321
96.30465512962088,58.03303593368401,49.476165659267586,55.16855798437953,66.60338216462179,74.76464454158396,88.62557276478886
96.42820965979057,57.81732331834752,49.60794240435676,55.15891109413333,66.65009350759556,75.06876405021853,88.48827900138248
96.55037444975765,57.60429684333546,49.74664771177931,55.14704887658861,66.6946162482135,75.36620154749814,88.34755564293634
96.6709692492642,57.39458537068083,49.89167933134178,55.132881890016556,66.73677119649224,75.65636080311626,88.2039492208561
96.78980965764838,57.18879105588898,50.04242716789553,55.116350500188226,66.77640057630511,75.93868218936545,88.05803729357254
96.90670365710899,56.9874828406792,50.198287175490236,55.097419432155654,66.81334514372307,76.21264687683572,87.91043642309106
97.02148593152359,56.79121557692696,50.35867926346917,55.07608725589106,66.84742526745518,76.47775681995094,87.76177405924909
97.13403541471847,56.60053993260239,50.52304216282419,55.05238606139728,66.87845309080589,76.73351768627828,87.61265228478732
97.24424631430657,56.41598332495698,50.69080755579666,55.026359428927286,66.90625916421864,76.97945970924543,87.46364996693457
97.35199768526726,56.238029479215456,50.861381331254364,54.99803999122415,66.93069520640866,77.21517625293139,87.31535472066601
97.45716922064865,56.06713082027345,51.03415107613703,54.96745130663144,66.9516093380629,77.44032953259733,87.16837026872317
97.55967715276313,55.90374216198395,51.20850635917789,54.934626839964935,66.96883206657162,77.65461895746783,87.02328108156425
97.65947282859568,55.7483321595086,51.383842719133675,54.89961588808957,66.9822004241423,77.85776134596514,86.88061838569155
97.75650757100165,55.6013603968137,51.55954540128524,54.862467224045055,66.99159507570141,78.04951542857845,86.74086962088506
97.85071898440009,55.4632564683217,51.734978013858516,54.82321853964273,66.9969468329962,78.22971765826966,86.6045135961579
97.94205289126877,55.33442678666852,51.90949332108833,54.78191653637388,66.99821411223186,78.39828173380411,86.47203103389384
98.03047388274923,55.21526507992538,52.08245138960782,54.73864811705052,66.99536927382977,78.55517453907726,86.3438866935109
98.11593673291881,55.106136871955805,52.25322109802804,54.69354483661522,66.98840530287264,78.70041517875374,86.22052840951085
98.19835699721878,55.00735195346273,52.42116914649946,54.64675876654719,66.97733472244478,78.83409851181992,86.10241171754159
98.2776251052446,54.91916020738524,52.58566061633185,54.59844210255057,66.96216471220559,78.95639973489901,85.9900037393197
98.35364259748314,54.841773244983806,52.74607466096454,54.548751978946676,66.9428743828255,79.0675426254985,85.8837444564846
98.4263256966104,54.775375473630845,52.90181386964433,54.49786682074614,66.91942430110566,79.16776829062569,85.78400437173148
98.49557578936337,54.72010402378691,53.052297340827785,54.4459875587589,66.89178501214563,79.25734208948619,85.69108281012339
98.56126866779712,54.67602559061668,53.19695778737717,54.39332386654738,66.85994508286328,79.3365805883839,85.60523554913206
98.62327785062126,54.643143994447136,53.335262569271194,54.34008843545695,66.82389415367774,79.40585059839134,85.52668341725082
98.68148673260876,54.62142664113083,53.46674208578131,54.28650195987408,66.78362217621806,79.46553672529491,85.4555933217087
98.73576284036488,54.61081077146113,53.59099357048759,54.232786047305446,66.73915758897958,79.51602803887273,85.39207492700277
98.78593441163098,54.61118176490314,53.70766050030189,54.17913894992911,66.6906075718388,79.5577534559533,85.33620943441362
98.83181482175637,54.622358183522934,53.816415997061775,54.12572561433715,66.63815654811664,79.59122423728371,85.28806914007207
98.87325075218176,54.6441074262774,53.91696412081639,54.07270858582614,66.58203488337796,79.61702930827765,85.24769609340048
98.9101338877604,54.67616813669793,54.00904408584847,54.02029503850709,66.52250098981258,79.635794634201,85.21506795886481
98.9423735333215,54.71824621796304,54.09242106613538,53.96875139216867,66.45984696854379,79.64815819064273,85.19009864526521
98.96988532683466,54.76999375614946,54.16687325070842,53.91838058051317,66.39439705366071,79.65477255717755,85.17267128677149
98.9926154865937,54.83100597862118,54.232195970256804,53.869501950076526,66.3264809456418,79.65629802549849,85.16265456394042
99.01055488138635,54.90084239557088,54.28821886449796,53.82245718354141,66.25640877267263,79.65336654139044,85.1598829561067
99.02371215161281,54.97904027720696,54.33481089152094,53.77762025732543,66.18447788775205,79.6465499813444,85.16413637949566
99.03208379590619,55.06510204801648,54.371865822269164,53.73538338941744,66.11099510231907,79.63636980295803,85.17514479444978
99.03566794835542,55.15848346910742,54.39929141164812,53.69612875273947,66.03627455058435,79.62332976153964,85.19259489611434
99.03450083796116,55.258613197542495,54.41702233302124,53.66021641470256,65.96060837882366,79.60792151971225,85.21611299876345
99.02865922342428,55.36492790026102,54.42504169396006,53.62799061347409,65.88424936640635,79.59059422691581,85.24524377062139
99.01822753223527,55.47688194765528,54.42338124068862,53.599776251980856,65.80743069783362,79.57173330824547,85.27946342688544
99.00328374625104,55.59392603843611,54.4120987082818,53.57585516212289,65.73039648607936,79.5516806352667,85.31822022013992
98.983922635835,55.71549376986731,54.39125991562499,53.556447300716975,65.65340300601054,79.53076661555087,85.36095321720687
98.96027045997343,55.84102325915321,54.360945352495875,53.54171829012283,65.57669652176452,79.50930893129717,85.40707450935045
98.93245964900466,55.969987637907636,54.32126755337099,53.53179808362348,65.50050503202255,79.48758665931831,85.4559561995483
98.90060037985229,56.101894457682874,54.27237364831797,53.52678106354788,65.42505073412427,79.46583472586325,85.5069508255557
98.86479576105756,56.236260936720036,54.21443790037632,53.52670695889598,65.35055209828813,79.44426632663827,85.55941722700994
98.8251802896924,56.37260540722856,54.14766850662118,53.531552361715725,65.27720118030719,79.42308285907762,85.6127163025984
98.78192364829252,56.51046555298429,54.072325063109346,53.541251007191754,65.20514727970944,79.40245075339143,85.6661943447995
98.73519609272628,56.64940988983499,53.98871999329881,53.555722858738456,65.13451899774829,79.3824830067077,85.71919745543522
98.68514940441803,56.78902009561072,53.8971993557567,53.57488185210684,65.06546438904475,79.36326743812404,85.77111095549407
98.63193445254701,56.92886760543933,53.798130133569835,53.598627309865726,64.99816127251191,79.34491972238924,85.82137407091089
98.57571149803661,57.06851589034848,53.69191506873584,53.62684872863202,64.93279145993071,79.32760124098066,85.86946074563477
98.51662243515405,57.20754110876061,53.579017336794564,53.65944586935643,64.86952185758317,79.31149011348306,85.91487334232797
98.45476267388386,57.345536525163006,53.45996173010411,53.69633443460418,64.8085202163314,79.29675552751719,85.95717118976451
98.39019970793892,57.482091422920554,53.335311285977056,53.737426060450765,64.74997801726427,79.28356987145862,85.99599452553186
98.32301634454437,57.61677681249557,53.2056494102741,53.782608963998285,64.69410178228848,79.27212942193441,86.03104722982131
98.25331939395303,57.749161885727176,53.07158516968969,53.831754946536044,64.64108132045337,79.26264100044388,86.06206405482402
98.18121037933356,57.878838096163804,52.93376448474863,53.8847403529013,64.5910741117627,79.25528459916676,86.08881422564646
98.10677072040465,58.005416947645244,52.79286177900288,53.941448804440206,64.54421534843125,79.25019539452641,86.11113855394466
98.03008080523772,58.128508532097136,52.64955780288833,54.00175210188651,64.50062195093831,79.24747467036856,86.12896308229642
97.95123145264049,58.24771779074005,52.50453049667337,54.06549370627451,64.46037198446423,79.24719425634206,86.14226658174552
97.87029862970408,58.362669541445634,52.35846164048855,54.13248386120392,64.4234872839977,79.24937153343014,86.15104800962648
97.78731734996649,58.47302796819918,52.21203457918197,54.20249203049521,64.38994952151864,79.25393933944022,86.15533916511735
97.70230278831336,58.578481710940316,52.06591330615035,54.275230434022376,64.35973194540962,79.26074659339234,86.1552419167773
97.61529941474635,58.67871359724754,51.92072633070554,54.350346797577764,64.3328055833357,79.26958502132207,86.1509366834106
97.52639631092224,58.773394549201036,51.777077623373806,54.427444867879736,64.30911610586863,79.28020171726558,86.1426623397285
97.43570062333552,58.862208998441254,51.63556903694901,54.50611861584661,64.28857089479115,79.2922822501645,86.13071816153752
97.34332332697448,58.94487699973432,51.496800668268826,54.585966296907614,64.2710619185999,79.30543935665376,86.11549446766132
97.24940099713507,59.02114467266346,51.36134628467829,54.666578900419275,64.25649686053804,79.31923653863556,86.09747850409312
97.15411040157544,59.090759922287354,51.22973388676029,54.747536626297375,64.24479810151885,79.33322151945544,86.07720944169698
97.0576426790697,59.1534693528611,51.10245181555827,54.828435282914306,64.2358761527693,79.34692874193045,86.05522493076292
96.96017354047206,59.20904053386408,50.97996451504197,54.90891469842139,64.22961629843729,79.35985713717815,86.03205395177096
96.86187949388467,59.257276393549155,50.862710176701434,54.98865425868449,64.22588887625992,79.37146485551776,86.00825040169492
96.76298076661493,59.29800138558031,50.75108175403923,55.06734654423982,64.22455432086043,79.38119356780186,85.98440796841237
96.6637495537037,59.33104272763279,50.64541589165385,55.14468361737676,64.22544531699386,79.38848875734648,85.96112894644176
96.56447689737132,59.356236389630176,50.54599654099595,55.22036512780517,64.22835161151676,79.39279298274138,85.93898807148297
96.46545130614345,59.37344911300216,50.453054972942745,55.29410730006145,64.23303736952934,79.39353740256446,85.91853368503153
96.36697128415348,59.38258358795024,50.36675633774572,55.36563691004164,64.23927438858895,79.39015995482853,85.90030865124963
96.26935131025785,59.38355920927028,50.28719111603942,55.43468232680613,64.24684894634662,79.38213171510569,85.88484544576357
96.17289161114458,59.376298011050174,50.21439054844924,55.50098060415067,64.25553644569924,79.36895614934306,85.87263713144081
96.07784817216503,59.360739178756084,50.14835126131017,55.56429443156828,64.26508328490159,79.35014625288024,85.86413156282151
95.98445156542914,59.33686320974406,50.089039375719,55.6244156956547,64.27522625628244,79.32521668992744,85.85976037595279
95.89295337839175,59.30469180298792,50.03637377107936,55.68115410587979,64.28572789281594,79.293702279626,85.85995672189122
95.80363609362182,59.264266688278376,49.99021691778037,55.734333182952476,64.29638546375007,79.25517112413453,85.8651326135641
95.71677830147688,59.2156453343877,49.950390791945125,55.783799089498075,64.30701204985345,79.20920902568606,85.87564836000715
95.6326317222013,59.158928629131296,49.9167009717489,55.829421494595444,64.31742494245877,79.1554002510736,85.891815922965
95.55143779955624,59.09428568033662,49.88894128189216,55.8710755899704,64.3274549833649,79.0933416894098,85.91392275577677
95.47344244877546,59.021942313861175,49.866880739514535,55.90862556543315,64.33695062099692,79.0226800877839,85.94223065711195
95.39887247312153,58.94215010490777,49.85025798119873,55.94193422676837,64.34575835195724,78.94312626956022,85.97694926282364
95.32790576899633,58.85517753916989,49.83878978562636,55.97088863979983,64.35370523392221,78.85443361600382,86.0182302373415
95.26068481855192,58.76133317069002,49.83217419515417,55.99540737742782,64.36061564472872,78.75638036323834,86.0661936706836
95.19735716992179,58.66098518433579,49.830078242103774,56.01542095728513,64.36634635576243,78.64878658469914,86.12094227261085
95.13808292178751,58.55454646602378,49.832129620747516,56.03085727648121,64.37079609734386,78.53154195054412,86.18253748322792
95.08299996670291,58.44244215569785,49.837933169340864,56.04165927616644,64.37388340392782,78.40460422594495,86.25097245119245
95.03220047682255,58.32509987096708,49.84709948871677,56.04781612398244,64.3755325223419,78.26797290641676,86.32618348095251
94.98574599385024,58.20297158129839,49.85925507503528,56.04936827477495,64.37569416630758,78.12167616084031,86.40808406223775
94.94368061763878,58.07655136652234,49.874030008303976,56.04638024275143,64.3743753559067,77.9657834605156,86.49657220931195
94.90600723216478,57.946359386122964,49.89104921298557,56.03890995923144,64.37163898616402,77.80041413177877,86.59150683761204
94.87266165171074,57.8129109690868,49.90994426984663,56.026997561360815,64.367578367801,77.6257193678961,86.69269669972745
94.84353500903632,57.67670848215646,49.93037082843444,56.010667284169045,64.36230370798012,77.44185992756405,86.79991539264587
94.81852432729022,57.53825842279948,49.95200887843083,55.989923926785345,64.35595100633083,77.24901264619027,86.9129065555506
94.79754724543128,57.398078851978404,49.9745513155626,55.96474701094579,64.34868468634713,77.04739680311096,87.03136016826518
94.78051150531445,57.25667806962809,49.997703867189145,55.935102277368216,64.34067567640369,76.83728002975346,87.15489107437519
94.76729410255221,57.11453036516735,50.02119658709393,55.90096619483294,64.33208041145564,76.61895328326747,87.28305296232392
94.75775823952914,56.97208015292378,50.04478413138733,55.86233519389979,64.32304844863714,76.39271402057567,87.41537096097343
94.75176903250232,56.82976474246284,50.06822779087445,55.81921183007443,64.31373935558175,76.15888951124441,87.55135031378462
94.74917367938542,56.688019140406254,50.091282453564716,55.77159672919068,64.30431382016256,75.91787308648163,87.69046189905755
94.74977913052089,56.547253365074596,50.113709903684686,55.71951233389085,64.29490712626985,75.67012581264204,87.83214788360813
94.75337486692099,56.407834006706054,50.13530430582376,55.66304010263338,64.28562352405753,75.41614658269495,87.97585688437613
94.75977991902651,56.27009546594218,50.15589777654287,55.60233113518552,64.27655887907122,75.15645251217292,88.1210642873606
94.76885316429215,56.134362098403756,50.17534104645794,55.537584014125116,64.26781540611175,74.89158308187805,88.26725192992473
94.78046179496681,56.00094745553921,50.193485651364426,55.469021003596666,64.25948517055838,74.6220991781764,88.41388126171871
94.79446331451598,55.87013295195143,50.210188947502296,55.39688590596453,64.25162830430004,74.34855845464108,88.56040218108645
94.81072598065761,55.74216155008239,50.22533170636677,55.32145120715979,64.24428116937379,74.07149007114867,88.70628531065695
94.82914519046989,55.61726170699092,50.23882276459291,55.24301070674636,64.23748504582943,73.7913971374493,88.85103099725636
94.84962023145086,55.49567068302101,50.25058880536286,55.16186338025644,64.23129436449096,73.50877563859495,88.99415048470529
94.87202604250054,55.37762562259292,50.26057044694003,55.07831431656977,64.2257537367666,73.22411505778554,89.13516384291849
94.89623097727892,55.263336470428456,50.2687289502563,54.99269158281903,64.22088202178143,72.93787605639405,89.27362772481746
94.92214191506889,55.152981249468844,50.27504385684296,54.905348675346865,64.21669398428543,72.65048246594418,89.4091498589667
94.94971398923498,55.04673647670675,50.27949472497332,54.81664213017452,64.21323342567318,72.36235273478675,89.54136521701923
94.97891551579688,54.94480699967236,50.28205079410634,54.726913205478226,64.21057403578654,72.07393998100596,89.66990839506543
95.00970124013544,54.847420535909805,50.28268910890403,54.63649934057222,64.2087916871613,71.78573565380529,89.79441969463072
95.0420225092876,54.75480429639318,50.281422268650516,54.545757649707596,64.20794694316008,71.49824377465698,89.91456642488363
95.07583924613043,54.667183262431145,50.2783016861383,54.45506542843542,64.20809098221049,71.21196976515509,90.03003698111019
95.11109987623584,54.584800481255094,50.27339399277056,54.364797794102074,64.20926874086518,70.9274370530655,90.14051132203937
95.14771821817604,54.50792258066536,50.26675948817464,54.27531263651098,64.21149970569549,70.64519757926385,90.24565091560216
95.18559463972507,54.436816298483315,50.25845444288375,54.186955477551145,64.21475640522388,70.36581190730583,90.34511873236082
95.22466376663115,54.37172842920003,50.24854497718464,54.100065057960165,64.21897042905283,70.0898248817593,90.43859079834473
95.26490557598544,54.312898295433214,50.237105897483495,54.014964250469085,64.22405773529233,69.81777489614203,90.52573764986879
95.30630700754982,54.26058245076022,50.22420604969375,53.93195513536588,64.22992596740353,69.55022701425602,90.60620879303488
95.34882895140038,54.2150520688267,50.209904458829364,53.85134017025337,64.23645370891958,69.28778240210559,90.67965648113704
95.39241993281266,54.1765639979362,50.194260356809274,53.773448554125345,64.24347689113935,69.03105005261627,90.74577844111744
95.43704818067661,54.14534468309103,50.17733473635535,53.6986324722203,64.25081097626595,68.78062515899022,90.80432951443733
95.48270072774946,54.12160411378172,50.15917453818441,53.62723811139133,64.25828504516113,68.53711077538853,90.85509928442693
95.52935614570967,54.10554885045356,50.13980096781154,53.55958664589884,64.2657466747102,68.30115352388576,90.89790293104825
95.5769820123535,54.09736360160219,50.1192221285668,53.495982525095464,64.27304274234822,68.07344225945633,90.93260454858346
95.62556303901725,54.0971766847801,50.09745567417361,53.43672846273747,64.28001694129135,67.85467333563273,90.95913454962648
95.67510794496506,54.10504968872734,50.07453174388259,53.382120030204966,64.2865343849086,67.64552885122114,90.97747100821832
95.72561109402271,54.12100337560664,50.050473245145426,53.332427079094735,64.29249726674803,67.44668304782873,90.98761379423651
95.77701500971308,54.145044980157785,50.025279535475065,53.287888990504634,64.29782718847501,67.25880230027357,90.98959319958412
95.82922509588207,54.17716422372669,49.998933500932836,53.24872483051642,64.30243967360012,67.08251454187847,90.98349881023435
95.88215658463186,54.21731660678095,49.97142003930595,53.21513343430788,64.30624539281537,66.91837487901195,90.96947992290215
95.93574886530895,54.26543238459473,49.94272996617065,53.18727269406785,64.30916884273925,66.76686489950323,90.94771603698435
95.9899345073477,54.32144690303499,49.91284951439809,53.165237173593894,64.31114762486415,66.62841696624662,90.9184093052986
96.0446172217063,54.385310588100694,49.88175789834729,53.149055936950255,64.31210669407847,66.50341991349296,90.88181734123201
96.09968827188217,54.45696359025058,49.849436790621866,53.13870467756449,64.3119465008219,66.39219256861257,90.83827647643294
96.15504150061882,54.53630857953831,49.81587229490303,53.13410729362158,64.31057249088155,66.29496335552254,90.78817664930604
96.21055041694088,54.62321355543339,49.78104182487599,53.135121707578826,64.30793575818903,66.21188914254647,90.73191926732757
96.26603966982115,54.717531150798365,49.74490596827712,53.14153427368445,64.3040374894003,66.14308959291647,90.6699065738777
96.32130205248417,54.819099530124575,49.70742515832446,53.15308073229824,64.29890020875044,66.08865107279036,90.60255608905389
96.3761452233487,54.927723262678064,49.66858695058649,53.1694759246385,64.29254639782388,66.04860242121872,90.53029624226085
96.43040511688568,55.0431663914173,49.62841179301258,53.190422271158944,64.28499935435137,66.02290857875752,90.45353723675102
96.48391255472973,55.16516862093029,49.58693366224983,53.2155990317888,64.27628215209391,66.01149791112191,90.37265850706092
96.53646870675828,55.29345534426856,49.54418488624957,53.24465776880256,64.26639788334136,66.01428300185269,90.28802809908922
96.58787034926254,55.427720153928924,49.50020577099297,53.27722786830105,64.25531300895862,66.0311443514213,90.20001540292401
96.63795176610012,55.56760041871199,49.45506291485271,53.312913291219004,64.24297282123689,66.06190538025346,90.10896925523905
96.6865874699238,55.71267830444671,49.408848535500184,53.351276044981496,64.22933622608551,66.10633941821402,90.0151907915822
96.73366327158392,55.86250464404601,49.361664148282514,53.391829483080386,64.21438775401516,66.16419812090395,89.91894355487145
96.77907035343671,56.01661062116849,49.31361408698386,53.434062149600805,64.19811707717756,66.23521695578208,89.82048938797934
96.82273121269856,56.17449255648616,49.26481352666554,53.4774745263741,64.18050526450466,66.3190868749955,89.72009977755023
96.86460712695819,56.33559957523161,49.215390449449714,53.52159114070408,64.16154765124443,66.41543171332779,89.61803381273711
96.90466248823391,56.49935180230209,49.1654707035571,53.565943680590884,64.14128707420649,66.5238243107694,89.51452665724368
96.94283045142105,56.66517047242741,49.11516428591944,53.61005837866443,64.11981525658024,66.64381857945341,89.40980644974633
96.97903011942306,56.83248354228905,49.06457507941751,53.65347095349681,64.09724663159916,66.77495261934683,89.30410364441175
97.01321439367752,57.00070892690125,49.013823870761414,53.69575186769813,64.07370205962305,66.91672344581104,89.1976291006083
97.04538307659031,57.16925486870722,48.96305415615852,53.736511378522636,64.04931429908538,67.06857750430832,89.09055157809152
97.07554622010089,57.337553533730784,48.912415645166774,53.77538703445524,64.02422864543985,67.22993758856192,88.98301146417843
97.10369097137468,57.505091066330166,48.862051775551116,53.81204196248106,63.99858064941521,67.40023114100437,88.87515369306102
97.12979317700854,57.67140006870883,48.81210967408156,53.846178745876536,63.97247421744647,67.57888440046486,88.76713295309482
97.15384623284822,57.836035058581345,48.762757279339404,53.8775434132572,63.9459917137812,67.76530477646337,88.65908913242848
97.17585650549805,57.99857088260857,48.714182283896925,53.90590852987511,63.91922554725288,67.95889498198768,88.55113953457646
97.19581235893564,58.15862313562232,48.66657690603566,53.93105779566214,63.89228962081031,68.15909041381171,88.4434051034768
97.21367999925408,58.31585379515525,48.62013355443106,53.95279353397244,63.86529868515261,68.36537095992664,88.33602899924401
97.22943578645535,58.46994855059581,48.575054863272534,53.970954999780595,63.83835313244031,68.57723342384392,88.22915676114046
97.24308250791712,58.62059769073782,48.53155508543678,53.98541849292187,63.81156180767283,68.79416614383436,88.12291159536068
97.25462003320301,58.76750813097117,48.489841798996935,53.996075281654434,63.785079174026016,69.01566188885623,88.01741229964118
97.26401297943441,58.91042682551111,48.45009852382706,54.00281522352775,63.759108934708486,69.24124728669639,87.91281848024411
97.27120690966888,59.04913850543781,48.412490472064626,54.00553713014036,63.733871762870535,69.47048242327685,87.80934479248671
97.27617439227821,59.183438554172426,48.37718177466257,54.004170073256965,63.709583004323925,69.70292932149435,87.70723401141828
97.2789277252771,59.31311924420668,48.34433522706001,53.99867708645303,63.6864689609877,69.9381336400196,87.60673809370907
97.27948375102228,59.43798960744444,48.31409235434869,53.989044131111726,63.66479336050782,70.17564351060707,87.50813043995558
97.27783324664973,59.5578993772555,48.28656283051133,53.97527914041942,63.64485398068109,70.4150342644929,87.41171344745374
97.27395672259688,59.672732628102786,48.26184340376303,53.95742225986631,63.62696047743915,70.65590123382187,87.31779253300614
97.26785981818256,59.78238448905095,48.24004702998403,53.935543892102935,63.6114310809321,70.89783610067043,87.22664530656878
97.25957584206186,59.88675721475353,48.22130919711321,53.90972372495355,63.59860512752703,71.14042911109999,87.13852945126449
97.24913966753456,59.98577740175062,48.205771699866936,53.88003612924344,63.58883535977056,71.38329508015862,87.05371718059816
97.23658392624057,60.07940062522967,48.19357021583042,53.84656497855942,63.582453673711306,71.62607948760352,86.97250308978066
97.22196646052758,60.167589596788076,48.18483495027883,53.80943096451725,63.579747223184135,71.86843128242326,86.89517549773477
97.20538039691796,60.25029749967886,48.179689344657604,53.76879676664487,63.58097226819325,72.10998299538889,86.82199761916289
97.18692383048067,60.32748455858843,48.178237483620386,53.72484994700459,63.58638180969072,72.35036955478171,86.75322106548687
97.16667309170539,60.399145457414754,48.180553754994484,53.67779406406949,63.59622498643585,72.5892572449287,86.68909638266123
97.14470274972781,60.46530786213511,48.18669093740655,53.62785989244098,63.610718964778506,72.82633749706962,86.62985011072297
97.12112484873367,60.526004652635734,48.19669629470848,53.57531467239585,63.63003017650417,73.06129194826727,86.57565417130441
97.09609084359269,60.58126092970322,48.210610771245825,53.52045018117237,63.65427886252565,73.29377680382864,86.5266304692089
97.06976030730233,60.63111484375873,48.228451842963395,53.463565339317086,63.683541211457495,73.52344615137316,86.48288148435974
97.0422912547638,60.67563924274236,48.25020447668492,53.40496874233761,63.7178300512085,73.74997674814598,86.44449795311614
97.01386559844983,60.71493013169254,48.275827023075514,53.344992374740535,63.757074831810314,73.973057013442,86.41153581122884
96.98470163479705,60.74907987324563,48.305252571134034,53.28398777069346,63.80112990505062,74.19235906083358,86.38400829214335
96.95502589878907,60.77817456064099,48.33837537051737,53.22230395977065,63.849801229381164,74.40753410903584,86.36191223068514
96.92504456381408,60.80231617752217,48.375041059268725,53.16027786821369,63.9028547992699,74.61822912502376,86.3452470347057
96.89495857942848,60.82163276079042,48.41506134398436,53.09825332626619,63.959999911188724,74.82408735891815,86.33399281309796
96.8649981166414,60.83626001890714,48.45824042576329,53.03660275030753,64.02088475283645,75.02472113377931,86.32807710819766
96.83542067444927,60.84632379931595,48.50438158512377,52.975720251421826,64.0851308992223,75.21969326597221,86.32737981481911
96.80647560189429,60.85195145420792,48.553267450416335,52.915995570764,64.15237718632375,75.40854058957459,86.33177044206016
96.77838989893611,60.85329358552881,48.604639750956125,52.857800165839805,64.22228685889496,75.59081630865828,86.34112387335824
96.7513905983959,60.8505202739656,48.65820194294587,52.80149023316344,64.29452108769524,75.76610080450445,86.35529961544565
96.72571598129375,60.8437935526152,48.713635904657025,52.747402789989515,64.36872356811212,75.93397756918613,86.37413292637417
96.70158673270912,60.83325348049912,48.7706065691585,52.6958346650503,64.44453978068803,76.09402119862968,86.39746587138136
96.67917647355269,60.81903656388388,48.82875111447095,52.64702838912807,64.52164335723434,76.24582281618322,86.42517682944462
96.65862580225914,60.80129750448213,48.88767325289417,52.601186619817604,64.59973432194441,76.38901960112248,86.45716499087659
96.64007618682194,60.78020144116708,48.94695131245424,52.55849649447981,64.67852197616388,76.52329042860191,86.49331367913085
96.62366908797478,60.75590076538428,49.006145834534465,52.51913106474141,64.7577299387166,76.64833379053039,86.53348566149448
96.6095125242723,60.72853428905546,49.064795310882765,52.483228490773946,64.83711998099595,76.76386792623993,86.57755076256562
96.59766812588782,60.69825144512868,49.12241224486482,52.45087907285543,64.91649527682809,76.86965137268324,86.62539521213839
96.58817332328773,60.66522425086388,49.17849746421615,52.422138853531585,64.99567268392089,76.96548540386368,86.67689492626356
96.58105231003968,60.6296281973506,49.23256409665044,52.39705359017321,65.0744615123563,77.05118632503894,86.73189328343038
96.57628747990124,60.591623291980426,49.284145863552965,52.375664236632005,65.15267952050833,77.12656520340629,86.79020953682442
96.57379043677342,60.55136914385837,49.332786607671494,52.35799574912027,65.23018302780294,77.19144924354833,86.8516490985327
96.57341981715227,60.50905767032101,49.37803189635489,52.34405686112857,65.30686777098214,77.24572227501359,86.91598636085443
96.57502568395154,60.46492002940231,49.41943453618395,52.33385478209811,65.38264055514198,77.2893345806864,86.9829425139795
96.5784625743421,60.4192012455687,49.45656296356131,52.327397581035065,65.45739830023719,77.32227569264843,87.05220008152283
96.58356698950669,60.37214138801777,49.48899897878099,52.32467321105276,65.53102881082636,77.3445535622692,87.12344572064686
96.59014988042526,60.323987739812445,49.516333193823165,52.32563084978482,65.60340938014126,77.35621015270868,87.19638795149132
96.59802062382177,60.27501076921377,49.53817467884048,52.33018738133492,65.67438485972306,77.35734762684638,87.27073365997498
96.60699945795808,60.2254901265817,49.55416674307098,52.33824402749981,65.74374416666232,77.34812447975972,87.34616848067247
96.61689158113887,60.17568318084929,49.56398657668083,52.34968485929244,65.81122457045477,77.32873080919593,87.42237186429466
96.62746023484407,60.12581359025667,49.56732670423879,52.36435867706119,65.87653810001821,77.29938432747467,87.49903664688514
96.63844321526423,60.07608647039689,49.563879257373394,52.38207394598995,65.93938430347943,77.26035051070168,87.57585742639375
96.64959224708012,60.02669793574378,49.55334220522151,52.40262184997027,65.99943597213016,77.21194697050704,87.65251143716975
96.66068022149757,59.977819308053874,49.53544042480834,52.42580213960825,66.05632882253721,77.154515049534,87.72868226736351
96.67147557142518,59.92958058263263,49.50993561604705,52.45142182784215,66.10968483499553,77.08839384320622,87.80411689466297
96.68173551174674,59.882082995808915,49.476617437072434,52.47927757089236,66.15915008148791,77.01393185328178,87.87865089411277
96.6912322771527,59.83542755940447,49.43529407683437,52.509153629641425,66.20440511387666,76.93151707377618,87.9521800601271
96.69976574560697,59.789721186493935,49.3857936311287,52.54083842222066,66.24514571536662,76.84157915876368,88.02462732475202
96.70713560640334,59.74505439444651,49.32796654755351,52.574132131474144,66.2810732448908,76.74456018508569,88.09593983768859
96.71311378207938,59.70148776542356,49.26167968462656,52.60883279527695,66.31191505419888,76.64090021431642,88.16608971021037
96.71746320642887,59.6590724884525,49.18681229193937,52.64472621316174,66.33744673121738,76.53106535967211,88.23504685386199
96.71998030608667,59.61787899404138,49.10326824536967,52.68160583231261,66.3574856178932,76.41558345791346,88.30274456792993
96.72050284163647,59.57799619060216,49.010994406584146,52.719305773512126,66.3718734223806,76.29504014705118,88.36907871905868
96.71887955924515,59.53950873046353,48.90998263237143,52.75770767252093,66.38048528274904,76.17004559771567,88.43393317626747
96.71495402123497,59.5024897810625,48.80025525086981,52.796716509271505,66.38325954650733,76.04121817926786,88.49718535893088
96.70858332041968,59.46701795522109,48.681855958324526,52.83624186125671,66.38020690528472,75.90919330412365,88.55868261456456
96.6996497268321,59.43318602937255,48.554859495184125,52.87620963386366,66.37138809616225,75.77462026799088,88.61823018012693
96.68803385601977,59.40108166977799,48.419386560444245,52.91658259735041,66.35690027213673,75.63813158176761,88.6756113362069
96.67358454308325,59.37076650848839,48.27560265129288,52.957356706558336,66.33690313237801,75.50032315572781,88.73060697611044
96.65613371484736,59.34228553843247,48.1237024033203,52.9985395835593,66.31165529626269,75.36177984747643,88.78298282532295
96.63553813067803,59.31569473258625,47.963900212628175,53.04014161722338,66.28151211057938,75.22311765632938,88.83246717155878
96.61168962846894,59.291067289171664,47.79643871471389,53.08218319912069,66.2468894702085,75.08498806008055,88.87876407667918
96.58448889815264,59.268470524795134,47.62160379537131,53.124692111655165,66.20824419121772,74.94804332832484,88.92159534488236
96.55383557365437,59.247949822351856,47.439727823537694,53.1676818208444,66.1660936253123,74.81291389716573,88.96071809504274
96.5196540228255,59.229543954139594,47.25118383060612,53.211139767784935,66.12103653657012,74.68022386901819,88.99590070004794
96.48190988464256,59.213305568317026,47.056388590904035,53.2550531566697,66.0737354033207,74.55060876325994,89.02690159562665
96.44058610002762,59.19929274729198,46.85581284716216,53.29945133916748,66.02487775036042,74.42469630411506,89.05349022154181
96.3956559465979,59.187543193652985,46.64997842847531,53.34441924175419,65.97515809439814,74.30306617014477,89.07548748362947
96.34710149843914,59.17806842509424,46.43943734103109,53.390076027938335,65.92528132926496,74.18623027640818,89.09277548787688
96.29495717274892,59.17087308963775,46.22475041263972,53.43655631984895,65.87595237520662,74.0746392848978,89.10527722849214
96.23931782053171,59.16596466115943,46.00648081541652,53.484016559918985,65.82784016006573,73.96868161775882,89.11295458257207
96.1803056256323,59.16333453392697,45.78519576171505,53.53264563419455,65.78154906135494,73.86865787860933,89.11583545065352
96.11805010668895,59.16293928009087,45.56145938376791,53.58265220961486,65.73762622974502,73.7747614644516,89.11402487028472
96.05270433354261,59.1647151691325,45.335816363832045,53.63423813899348,65.69658307482598,73.68709743748258,89.1076769147275
95.98445545391891,59.168611604504974,45.10878225221292,53.68758885501273,65.65889179943278,73.60571923663765,89.09696468172562
95.91349786303665,59.174600535921925,44.88084809037093,53.74288430557826,65.62495935676043,73.53063764916364,89.08208848831009
95.8400043760001,59.18265294459818,44.65248796842408,53.800301412568984,65.59511585335977,73.46179850072984,89.06330409460894
95.7641430010245,59.19272014888256,44.42415652351739,53.85999359397139,65.5696309873955,73.39907251112278,89.04092189439126
95.68611938556077,59.204747282725585,44.19628369055672,53.922073612028576,65.54872835202754,73.34228484789294,89.01527599697921
95.60618444769197,59.21869546751401,43.9692824715781,53.9866279044538,65.53257463412817,73.29125453207911,88.98671121536242
95.52460095023235,59.23453682495071,43.743563533365425,54.053745813307636,65.52126833491452,73.24579963221048,88.95560111607254
95.44162289702136,59.252229436323766,43.51953614922641,54.12352456817339,65.51485692806123,73.20571445241835,88.92235382487638
95.35751093661244,59.27170794043167,43.297592414234096,54.196045177029674,65.51336288800877,73.17075841635092,88.88738156220433
95.27254206993568,59.292896969609494,43.0780924433051,54.27135155252107,65.51678213332984,73.14066448535971,88.85106980372294
95.18698202481887,59.315716736569165,42.86136486722673,54.34945542956819,65.52505947413579,73.11513701153174,88.81378798412102
95.10105622443787,59.34006398798519,42.647715084436435,54.4303518518685,65.53807556890062,73.09382711098426,88.77592565266308
95.01496794220374,59.365794479733665,42.43742400339048,54.51401703480278,65.55565562705877,73.07631673718113,88.737901607009
94.92894395572773,59.3927367002664,42.23073648922331,54.6003897411987,65.5775737053435,73.06213933129453,88.70014034049244
94.8432464251167,59.42072370784819,42.02785490781011,54.68936218433787,65.60353485447703,73.05081553649363,88.66306308920629
94.75814354623688,59.449603445318346,41.82894604902356,54.78078772137892,65.6331551662648,73.04186175006909,88.62710650189646
94.67389214306863,59.479218574126776,41.63415183372154,54.874483480504914,65.66596575483271,73.0347696144659,88.5927267986871
94.59075589578038,59.50939077532955,41.44359075253368,54.97021504975975,65.7014319787712,73.02899726631904,88.56037072300082
94.50901765128403,59.53993499463792,41.25735376337442,55.067683789254204,65.73895778060957,73.02399665320094,88.53044982112674
94.42895159602679,59.57068028544326,41.07550875675902,55.16654163435669,65.7778701838358,73.0192474867672,88.50334661267092
94.35078861991813,59.601462628658226,40.898112221156104,55.26642150145016,65.81741573817011,73.01425863592156,88.47942760309965
94.27472577880069,59.63209745176269,40.72521209804743,55.3669486494454,65.85679288600892,73.0085465695142,88.45902767444646
94.20096550658184,59.66236980976842,40.5568366332599,55.467726847269304,65.89519622684325,73.00162782018829,88.44242075972224
94.12972505438206,59.69205530435654,40.39298311772664,55.568329718087966,65.93183237759571,72.99302995000245,88.4298221331511
94.06120641425396,59.72094096115947,40.23362152420129,55.66832006515028,65.96591036166059,72.9822913054486,88.42142246442364
93.99557920931814,59.74881659566827,40.07870809573937,55.767280614782734,65.99664457877857,72.96893729439608,88.41740158367256
93.93300129624893,59.77545078790136,39.928190311492436,55.86482306586423,66.0232826341912,72.9524613855523,88.41789796966216
93.87363431372346,59.80058941359008,39.78199810372386,55.960573981733845,66.045126693353,72.93233851580084,88.42297477204865
93.81761881284167,59.82398617889549,39.64003404887554,56.054168703239995,66.06152491597582,72.90805432560519,88.43262714068653
93.76504420950103,59.84542948808281,39.50217280985562,56.14526559372346,66.07185539349993,72.87911214964332,88.44681589281797
93.71596490862612,59.864734948572746,39.36826587003503,56.233554819314186,66.0755363331381,72.84501402182896,88.4654781152411
93.67044423692602,59.88172307913781,39.23814132612784,56.31874435700605,66.07205610700682,72.80525251640921,88.48851201292732
93.62856341565052,59.89621945599889,39.11159833036059,56.400546887222625,66.06098535387262,72.75933800660395,88.51578342103646
93.5903862541146,59.908075469924,38.98840732020607,56.478692827588546,66.04195939869881,72.70683498390406,88.54716385360332
93.55593383692863,59.91717464960168,38.86832285530245,56.5529518705034,66.01466717036388,72.64736826651153,88.58255069168173
93.52519737071174,59.92341326038858,38.7511007157571,56.62312937118696,65.97887711521167,72.58060623946426,88.62184276618281
93.49815056933498,59.92668732285043,38.63650410029737,56.6890398157384,65.93447381040022,72.50625810820972,88.66490854048381
93.4747273524457,59.9269106899916,38.52429581037434,56.750492924927556,65.88145949090513,72.42409100059946,88.71159068521465
93.45479767276072,59.924039856780915,38.414229164086024,56.80731266761994,65.8199238165502,72.3339357051264,88.76173529097181
93.43818983058542,59.918069666615565,38.306050373163174,56.859364915287195,65.750027151605,72.23566700622739,88.81519856762218
93.42474008304184,59.90900814976929,38.199510518732325,56.90655912973443,65.67201796466527,72.12918932362923,88.87182475864
93.41430759466026,59.89686806886232,38.09437256074622,56.948829738344905,65.58625193837226,72.01445817936907,88.93144131401954
93.40674660435889,59.88168334402475,37.99040685595562,56.98613034751792,65.49317762398856,71.8915167935022,88.99388855685824
93.40188966701345,59.86351744546792,37.887387260270586,57.01844853591072,65.39330427683541,71.7605031270228,89.05903919108934
93.39956706034596,59.84244285174404,37.78509915162171,57.04581386192602,65.28719191814938,71.62162513359475,89.12677584159192
93.39962260796518,59.818515529373904,37.683352699545694,57.068281063076114,65.17546464388273,71.47514602958964,89.19695924328178
93.40189339543771,59.79177709261572,37.58198621636071,57.08590858279853,65.05880900418246,71.32140162130732,89.26943068108118
93.40618598187947,59.76227871532299,37.48085767552287,57.09875992539976,64.93794226997638,71.16081902612649,89.34403586468194
93.4122962368119,59.730090274653904,37.37983862136162,57.10692103808126,64.81358411260199,70.99390116044196,89.42062431432375
93.4200546904449,59.69528182906044,37.27881906258674,57.110503905852596,64.68646362351556,70.82119037477175,89.49902227997876
93.42933703841555,59.65791019318594,37.17771405109806,57.10962702723092,64.5573426878808,70.64325099032689,89.5790245101363
93.44003136041692,59.61803902585889,37.076460395162414,57.10439604600367,64.42701323467344,70.46067740915532,89.66041851019807
93.45201688528124,59.57576978727199,36.9750087436497,57.094906798608264,64.29626597997708,70.27409473972745,89.74299956705016
93.46518248482766,59.531243607795076,36.87332474443276,57.08125902898675,64.16587149320465,70.08413321615735,89.82655089983464
93.47944368124773,59.48461690247442,36.77139811221033,57.063554600607944,64.0365976334862,69.89140548471113,89.91082144944205
93.49472021339072,59.4360504915571,36.66924537362772,57.04188484692927,63.909235339074336,69.69652236408656,89.99553900294094
93.51090631933104,59.38572955136423,36.566901553426355,57.01633474187519,63.78459416315193,69.50013089422177,90.0804409864232
93.52788612521145,59.33388288411397,36.46441338558527,56.9870042449505,63.66347666361221,69.30292393713631,90.16527662354687
93.54557921620298,59.280770910650695,36.36184646244591,56.95401578348565,63.54667007487317,69.10561034014378,90.24978176328335
93.5639534041433,59.226662387658116,36.25929791932345,56.91749523822641,63.43495735353808,68.90889225015596,90.33367695481029
93.58299190307825,59.17183656449973,36.15689550245989,56.87755208144392,63.32911186004825,68.71348451282856,90.41670417960641
93.60266894546767,59.11660427623142,36.054781172032705,56.83428328905437,63.22986468102656,68.5201466309809,90.49865263204659
93.62296548843037,59.06130954739614,35.95309562308134,56.78778887979078,63.13787932487471,68.32967951152855,90.57933878493864
93.64388675582636,59.00630167823984,35.851977499162516,56.73816999499678,63.05376040499918,68.14289277816692,90.65857669381064
93.66544236295157,58.95191174290022,35.75157460485267,56.685507485882816,62.97807206790379,67.96058474309616,90.73618798176263
93.68761940530744,58.89846086174586,35.65205020791495,56.62985139490419,62.91132818949818,67.78354427706763,90.81203806803633
93.71040066243505,58.84628003722356,35.55357490991986,56.571242152598046,62.85395973867802,67.61254328360096,90.88604466393949
93.73381116997713,58.795705476801615,35.456316480094806,56.50974131203415,62.806300436270156,67.44830457071991,90.95815152271149
93.75792871861093,58.74705370584885,35.36044268653245,56.445437411357936,62.768610965830845,67.29147393018341,91.02831596976537
93.78284693588309,58.70061272048179,35.26613101904666,56.37843262126296,62.74111058236159,67.14262625117425,91.096527785281
93.80864660620604,58.65665818027191,35.17356868197702,56.30884168067937,62.723976049526314,67.00228838028299,91.16281797156815
93.83540753425596,58.61546186082533,35.08294395015831,56.23680681621966,62.71731694521383,66.8709383098956,91.22723280732758
93.86322363511383,58.577272109720454,34.994444020566235,56.16250185088131,62.72116656751588,66.74897954330233,91.28980723085117
93.89218233488279,58.54229320707566,34.90826090087525,56.086113030522505,62.73549514828673,66.63673334906197,91.35057051494802
93.92233674282065,58.51069848293312,34.82459209479351,56.00781931392503,62.7602142974832,66.53447207720245,91.40956168466629
93.95372145460665,58.48266684141741,34.743630516200795,55.927798432512354,62.795157626716616,66.44245793939164,91.46681754364286
93.98639746430489,58.458397917769965,34.66555702371094,55.84624912616343,62.840063890747366,66.36094250038957,91.52234912492943
94.02046327719113,58.43808919042097,34.59055079482436,55.76339664209565,62.8945900711255,66.2901380362183,91.57615367721458
94.05602019491857,58.42190830238811,34.518808376133215,55.67947293526407,62.95833901006092,66.23020613268845,91.6282577477567
94.09314805696015,58.409992717889885,34.450548054279274,55.594698761937224,63.03086492470855,66.18127318450347,91.67873380629706
94.13192326443237,58.40246318845251,34.38599604258028,55.50929024642659,63.11165677943588,66.14343686804331,91.72767164723096
94.17243809237813,58.399417803412135,34.32537389143066,55.42347433276281,63.200140791062815,66.11674173762047,91.77515371653304
94.2147806219344,58.40090761620645,34.26890186844763,55.33748465951217,63.29572227316361,66.10115068788188,91.82126914492993
94.25900590835879,58.40692993422084,34.21680947709313,55.25154178798687,63.3978296340736,66.0965465296657,91.86613392833736
94.30515116714355,58.41745392844623,34.169334668677074,55.165844168015774,63.50591886450192,66.10275413517418,91.9098758016365
94.3532802589343,58.43244430227999,34.126712735881036,55.080574270212445,63.619452593781816,66.11954533217158,91.95260463362564
94.4034939958315,58.45184992964727,34.089170915266436,54.995898181220134,63.73789613704962,66.14661927327145,91.99442068539145
94.45589324226432,58.475573333524025,34.05692949982241,54.91194783840366,63.860736426391476,66.18359517359983,92.03545673453735
94.51054908937347,58.5034628939211,34.0301951096823,54.8288063691066,63.98748976399665,66.23004230161435,92.07589330154767
94.56751252623003,58.5353397770116,34.00914403350402,54.74652280442585,64.11768121695229,66.28551715569571,92.11592249466293
94.62682735721812,58.57102378224402,33.99391470739243,54.665147688925316,64.25082398933874,66.3495657986187,92.15570777857421
94.68850954020293,58.61032455293682,33.984623786650644,54.58475261150849,64.38642854874962,66.42170058561112,92.19538894321194
94.7525234814726,58.653014038083136,33.981389147226565,54.50542229552679,64.52402492713786,66.50139382372696,92.23511590084088
94.81880518924207,58.69882101427951,33.98433307664419,54.42725081119703,64.66316071973122,66.58809787403396,92.27505625071605
94.88731339684865,58.74745770457427,33.99356733168848,54.350363534215155,64.80337563529623,66.68125727535289,92.31536868823517
94.95804287542927,58.79864385008177,34.00918112960892,54.274939779064255,64.94419312971694,66.78029170086303,92.35619071046479
95.0309880700795,58.85209876644131,34.03124056297865,54.20120545909229,65.08514876996439,66.88457577206776,92.39766001564267
95.10611381854761,58.90752137058563,34.059790597529734,54.129407177222085,65.22582113115153,66.99344882159218,92.43992781546616
95.18336692216229,58.964596515490456,34.09484914306807,54.05979988213365,65.36582763163722,67.10624356844583,92.48313050445392
95.26269122492877,59.02302554716728,34.13639668228005,53.992652831777654,65.50479952138438,67.22229414732148,92.52734681921211
95.34400658131025,59.08254155674331,34.184374544661075,53.92824910995336,65.6423733354547,67.34091729162286,92.57258960136696
95.42718028563526,59.14289316704304,34.2386917957099,53.866865515428756,65.77820055015414,67.46140880919066,92.61883143173867
95.51204341012745,59.203827831592015,34.29922634489291,53.80875316713732,65.91194512172106,67.58308405032851,92.66601458405702
95.59843961358062,59.26510171058314,34.36581512605306,53.75414220169813,66.04325819290965,67.70532810420725,92.71402692775477
95.68624230724969,59.32649698031369,34.43824641374484,53.70325888245658,66.17175928974609,67.827604929287,92.76268383975537
95.77532238374303,59.3878136132088,34.51626653128227,53.65632355624275,66.29705176472493,67.94943030806961,92.81174372089079
95.86552099321644,59.448840734874246,34.599592820973086,53.613526246216374,66.41875362803111,68.07035146409069,92.860929073506
95.95667027689899,59.50934487810211,34.68791583129212,53.57501098558452,66.53650275789806,68.1899469502386,92.90992079687335
96.0486305441484,59.56909081390307,34.78088986329223,53.540887096981834,66.64993379975019,68.30782222350861,92.95834635669492
96.14128887659963,59.62786342869158,34.87812615098759,53.511244962613596,66.75866502106737,68.42358634105217,93.00580344103274
96.2345270691397,59.685459461557016,34.97919866181601,53.48614933820659,66.86231914520346,68.53683331202421,93.05190664743083
96.32821480852051,59.7416671095631,35.083657575965766,53.46562287695589,66.9605544981986,68.64715766704559,93.09630258500712
96.42223847435783,59.79626995619872,35.19103651590448,53.44965489153932,67.05306934135606,68.75419064906806,93.13864172421421
96.51651313529159,59.8490716393039,35.30084903342156,53.438236810358475,67.13958421884004,68.85761235951699,93.17855228675755
96.61094905443362,59.899904097150234,35.41258685725344,53.431383716410394,67.2198394285227,68.95713022282715,93.21564663124208
96.70541647170072,59.94860776206347,35.52573129297721,53.429118530634895,67.29361475277248,69.05246728870405,93.24953716007965
96.7997605536513,59.99501710032641,35.639769903873635,53.43144506835785,67.36073705805735,69.1433909807931,93.27982792446706
96.89384675807875,60.038978941485944,35.75420246243667,53.43834121217254,67.42105860145568,69.2297493909291,93.3060929423913
96.98757239126515,60.08038152751262,35.86853791182101,53.449765130695376,67.47443725388463,69.31146873916454,93.32788147536385
97.08083112170769,60.11915506847768,35.98229799723186,53.465648908282624,67.52074991324194,69.38852249439807,93.34475121369131
97.17348496021692,60.15524642486664,36.095028987879566,53.48587717442401,67.55991989047124,69.46091672217442,93.35628386026036
97.2653840231489,60.188608985218984,36.20630692510442,53.5102762649395,67.5919171302602,69.52870000315467,93.36206563069345
97.35640275391219,60.21922609962584,36.31573003613978,53.53863240744445,67.61673012654656,69.59196313138912,93.36167211250842
97.44643855344394,60.247134372536394,36.4229120396448,53.570720455245144,67.63435042251533,69.65080837196548,93.35468689989621
97.53538055356397,60.272413067896046,36.52749321816984,53.606310819214556,67.64479418828239,69.70531418162288,93.34072554257146
97.62310332781416,60.295159267781756,36.62916185101936,53.6451567369026,67.6481323929742,69.75553153851376,93.31942657391285
97.70949421484953,60.315490944817626,36.727661345147375,53.686991332970685,67.64448989748199,69.80150697536793,93.29042625617454
97.79446236499071,60.33357692448623,36.82277685748331,53.731540603472396,67.63402063206699,69.84329139932075,93.25336639952481
97.87790440585087,60.34964947845539,36.914319464920425,53.778527793834776,67.61689453140096,69.88091888101097,93.20793716346893
97.95967297436971,60.363979430585566,37.00212348875561,53.82765715507854,67.59330199429695,69.91439084699226,93.15390104018019
98.03959815280369,60.37684759611043,37.08605309708843,53.87859892851711,67.56344871829789,69.94369775814761,93.09107432435802
98.11753778023474,60.38854579730967,37.166002530155794,53.93099812130415,67.52753070867115,69.96885489510589,93.01930679876246
98.19338949194031,60.39939100837529,37.241883243091536,53.98449432349251,67.48571833623107,69.98990702856776,92.93849265272895
98.26705016123238,60.40971689463533,37.31360871452369,54.03872340119922,67.4381754311587,70.00690190025598,92.84858797508652
98.3383793130883,60.4198445902812,37.38108994616661,54.0932993828546,67.38509187352916,70.01987256545841,92.74959831934629
98.4072138579388,60.43007022090622,37.44423910140978,54.147805318717474,67.32668800403815,70.02884489809789,92.64154906301806
98.47340768846905,60.44068500623545,37.502968222490864,54.20181238715424,67.26318956073447,70.03384290208301,92.52448244223652
98.53683751578389,60.45199464470381,37.557180579828355,54.25490793249605,67.1948127056411,70.03487197665004,92.39848424282152
98.59737494416801,60.46430579216829,37.60676619880659,54.30670145813065,67.12178178561904,70.03190522584296,92.26369505091962
98.65487888319322,60.477897693452775,37.6516090201106,54.356811839745184,67.04435276108333,70.02490420867322,92.12028955875115
98.70922271441594,60.49301755183664,37.69159816132798,54.40486340771313,66.96280709445935,70.01385701390831,91.968461401874
98.76030736420489,60.5098999772038,37.72662973861029,54.450496928318266,66.87742769748485,69.99878793830561,91.80843617453155
98.80803148945608,60.528772575600904,37.75659851768465,54.49337386691372,66.78849571473698,69.97973160034651,91.64048334473911
98.85225956279491,60.54983144961969,37.781394825575,54.53316222965936,66.69631112655634,69.95671422094611,91.46489695773242
98.8928367769888,60.57321914048638,37.80091678716263,54.569522662148124,66.60119963293921,69.92977263539427,91.28196675014273
98.92963162939016,60.59903465183106,37.81508631925449,54.602116553548676,66.50348814841385,69.89898425079724,91.09198702671743
98.96254508881628,60.62735597927722,37.82385164248298,54.63062628348147,66.40347947427564,69.86446569413326,90.89530145550704
98.9914729471876,60.65823794491001,37.827180212562126,54.65475929129553,66.30145790049625,69.82634683822828,90.69232676380962
99.01627397311938,60.69168655854871,37.825060186294074,54.67423276969885,66.19771061628488,69.78476078186101,90.4835295966762
99.03678808778885,60.72764952267583,37.81751367904983,54.68876867951749,66.09252697298534,69.7398597442717,90.26939608938588
99.05287895625663,60.76604667309057,37.80460732460104,54.698118670183135,65.98617344914273,69.6918239136255,90.05042835132316
99.06444374551127,60.80681056384777,37.78645037940258,54.702095475395275,65.87888227857285,69.64084107200809,89.82714926821795
99.07138925400925,60.84989398152371,37.76319076931031,54.700577029421964,65.77087473934016,69.58708194666485,89.60008527198542
99.07362758486855,60.89525099225825,37.73502369304503,54.69348953942005,65.66238984149835,69.53070812680252,89.36974116471704
99.07110503373343,60.942830837567925,37.70220362685557,54.680801524940236,65.55368249600873,69.4719043851946,89.13660884285522
99.06381421764564,60.9925912273071,37.665039189853246,54.66253499282022,65.44500206304328,69.41089023767816,88.90120744490416
99.05176113529345,61.044499331574876,37.62387215147929,54.638768276262844,65.33658897164393,69.34789779440459,88.6641020775827
99.03493027676215,61.09850714307917,37.57906034105054,54.609616936676744,65.22869440083223,69.2831606478643,88.42587974681945
99.01329914627748,61.1545312911389,37.53097606468734,54.575214932590335,65.12158876048967,69.21694890289046,88.18712269339211
98.98688419360285,61.21246504458825,37.48001135541448,54.53572230919635,65.0155406807245,69.14961545790419,87.94841133550244
98.95575506838296,61.27220299423827,37.42657432166156,54.491348672828586,64.91079368903578,69.08159841769947,87.71033369988712
98.92000010918234,61.333639637851114,37.371077452400776,54.442358609800564,64.80757148328136,69.01338701049136,87.47346813855296
98.87969513951441,61.39664236849561,37.31393254138174,54.38905273117002,64.70609901054654,68.94550197553748,87.2383552357673
98.83492236704407,61.46103928727057,37.25555636628382,54.33175469966613,64.60660221564089,68.87850402389469,87.00550147873349
98.78581398273671,61.52664279622324,37.196375950550134,54.27082390646475,64.50928239165503,68.81299331466957,86.77541150088273
98.73255985105197,61.59327721897186,37.13682334508824,54.20667174317485,64.41430330892253,68.74957650092306,86.54859905023118
98.67537675818876,61.66077442069213,37.07732693574381,54.139752289632455,64.32181542668613,68.68882993319168,86.32555816890587
98.61449512644562,61.728951919710866,37.01831453892644,54.07053574705233,64.23198787188424,68.63129897013683,86.10673233332594
98.5501811752289,61.79761191302576,36.96022346997736,53.999495031719945,64.14500838798952,68.57752555428807,85.89251351404887
98.48274614367466,61.866562823638105,36.903497141440944,53.92711131243315,64.06106117714361,68.52805651102587,85.68325392934977
98.41251278875025,61.93562730379749,36.848564478731916,53.85387389952001,63.98032025448359,68.48341482261898,85.47925751905959
98.33978048880262,62.00462062823522,36.79581948772836,53.78026047503668,63.90296153599808,68.44407369021593,85.28076020409368
98.26483708738499,62.07332942332829,36.74561608770547,53.70671881940459,63.82916264368288,68.41047031667784,85.0879394425832
98.18799567191644,62.14152127667666,36.69827335612156,53.633675952320964,63.75907846913099,68.38303616877002,84.90095217259814
98.1095982123695,62.20897047066544,36.654075122468974,53.561563526977025,63.6928206918153,68.36219600177898,84.71995152929696
98.02998406165858,62.27546230621481,36.613262952949825,53.49082406316405,63.630468272773726,68.34833571169786,84.54506427884061
97.94947703296127,62.34077283897556,36.576035947837674,53.42188962552838,63.5720921015478,68.3417843298985,84.37637194714188
97.86840763187003,62.404662367994376,36.54255816744534,53.35516289004486,63.517756508960076,68.34283093345594,84.21393229282437
97.78712254423287,62.466905194632474,36.51295972684386,53.29102541660552,63.46749551596834,68.35174175150236,84.05781654873176
97.7059522581184,62.52732393865987,36.48732637318473,53.22985809676313,63.42130113601512,68.36874288988356,83.90811579615702
97.62517813521325,62.58578901330351,36.465691129235815,53.172041915365504,63.379147075806465,68.39398887542475,83.76492376375086
97.5450460908459,62.642196535685585,36.44804230928838,53.117940043745996,63.34102047420981,68.4275597826639,83.62834521218278
97.46580441783219,62.696466234712425,36.43434073684905,53.067894797933185,63.30692239076671,68.46948627438108,83.49853273514998
97.387708914841,62.748562594981486,36.42452673038398,53.02224964273242,63.27684479639044,68.51976006709901,83.375699595313
97.31099404971897,62.79850110379764,36.41851268124914,52.981362794025415,63.250763053121716,68.57831313403314,83.26008778763928
97.23586146703552,62.84632241476706,36.416175544862995,52.945589457948216,63.228651334998034,68.645004317974,83.15193190125689
97.16250115277882,62.89206580810211,36.41736148382637,52.915256511816224,63.2104882037049,68.71964804210582,83.05145646788948
97.09110056754002,62.935772332428314,36.42189753914045,52.89065909669859,63.196235231217486,68.80205782119913,82.95889106872126
97.02181537008148,62.97750087459405,36.42959653587929,52.87206948492806,63.18581852911166,68.8920531563752,82.87446323107775
96.95474237796067,63.017321039486575,36.440255318341904,52.859729421905094,63.17914590969716,68.98942897809188,82.79837128589654
96.88993969826919,63.055283298276215,36.45365869576155,52.85382602770863,63.1761422765457,69.09393679528722,82.73078022229616
96.82746864740997,63.09140498291408,36.469589350203236,52.854484811751185,63.17675876530612,69.2053084065558,82.67184736699018
96.76739922648933,63.1256929151413,36.487830259936835,52.861796594400865,63.1809483599315,69.32329201574662,82.62173092349776
96.7097787074761,63.15817171330907,36.50815515969972,52.8758461951206,63.18864707172235,69.44765449571061,82.58055715328388
96.65461604511744,63.18888047226864,36.53032147527488,52.89670685321108,63.19979182021203,69.57815867891105,82.54838176378551
96.60190131375809,63.21785125860228,36.55408031902097,52.924446985352674,63.21435413285019,69.71455966697893,82.52518820826214
96.55161901699975,63.24510984001723,36.57919442313277,52.959285191801136,63.23234590765305,69.85662228907974,82.51091539805188
96.50372286997492,63.27070050613488,36.60544219214905,53.00191669137891,63.253796001070896,70.004119632574,82.50546984698389
96.45810223611021,63.294695025412416,36.632604662862896,53.05378233051949,63.27873616073935,70.15680126523581,82.50870882126647
96.41458993906744,63.31716856875989,36.66045364568003,53.11707788890074,63.30720890499496,70.31437238609634,82.52042982758763
96.37300349305575,63.33817752869709,36.688755680557136,53.19461097260554,63.33926730226665,70.47651751647744,82.54038529080812
96.3331638885148,63.35777286924003,36.71728451088778,53.28977159512564,63.37494891051052,70.64294038045308,82.56829483880601
96.29487759120846,63.376029510148406,36.74582404377254,53.40669470264473,63.41425090499874,70.81336875933525,82.60383068906255
96.25792717276437,63.39304831056142,36.7741580786012,53.5503939889561,63.45713779512456,70.98752456925429,82.64659575809416
96.22209070711015,63.40892655858222,36.80205944937697,53.72666900700306,63.503568050017186,71.16510590673799,82.69613096375241
96.18715128091131,63.42373604801476,36.829289058065235,53.94188816304162,63.553499137006256,71.34580331139198,82.75194765358482
96.15287079589847,63.43753361807492,36.8556015323271,54.202840540677734,63.60686375695192,71.52931755485982,82.81354291666428
96.1189615323477,63.45037973674293,36.88074673167781,54.51666091409739,63.663555108863704,71.71534641394366,82.88038728676985
96.08509368547372,63.46233096077106,36.90446623229262,54.89071318318315,63.72344798446286,71.90356344143869,82.95192402191303
96.05091905332883,63.47341554957475,36.92649554409739,55.33241077089799,63.786429117418066,72.09363055448371,83.02759765257964
96.01606596459538,63.483628827204214,36.946576127736854,55.84904563856655,63.85239635970281,72.28523449698599,83.10687560062426
95.98010816766745,63.49295371235949,36.96446761818533,56.44763935908204,63.921233237839765,72.47809785326933,83.18923289131546
95.94255872453647,63.50137124968679,36.97995051436577,57.134777593283616,63.99279664964522,72.67195133887135,83.27412354958471
95.9029260567946,63.508842495640586,36.99282590071846,57.91644050588957,64.06692596074025,72.86651180838,83.36097931686946
95.8608041565486,63.51529309659721,37.00292735556451,58.79786819188332,64.14344452169165,73.06150351764659,83.44923181542234
95.81592765905813,63.52063476149349,37.010140395653494,59.783461955255284,64.22213902781779,73.25669521708954,83.53831909359039
95.76816042605655,63.52480523861589,37.01440763769694,60.876719186234986,64.30274490497611,73.45190046065333,83.62767161075351
95.71743968864996,63.52778014741391,37.01571430321962,62.08022331784903,64.38496604132165,73.64694325038215,83.71671434778435
95.66370353820034,63.52954981583867,37.014072382233685,63.395681893564394,64.4685081599235,73.8416393202349,83.80489343704731
95.60686894144159,63.530101935670494,37.009519524404354,64.823974244481,64.55308348109553,74.03581205572961,83.89168997453046
95.54702504046934,63.52943621494217,37.00212642091756,66.36518366352027,64.63838470527054,74.2293040426919,83.97659901841749
95.48489504804729,63.52758496760756,36.991995244470125,68.01859995500038,64.72406816601699,74.42195505326292,84.05910073373411
95.42227474857964,63.52460660544635,36.97924726489672,69.78269466882621,64.80977121645084,74.61358012160422,84.13866209724935
95.3621222096573,63.520566984843725,36.96401441793021,71.6551214012273,64.89513900205978,74.80399048570357,84.21476436103562
95.30841016090613,63.515545139116405,36.94644262723174,73.63281989226226,64.97982336398368,74.99303533741623,84.28691491339534
95.26618055168456,63.50965892282015,36.92669773454766,75.71221379595973,65.06346051837212,75.18060846960076,84.3546348214734
95.24195301004944,63.503070122083074,36.90496286684623,77.8893594782761,65.14566501274709,75.36661555946442,84.41745992219353
95.24406246503004,63.49595574455394,36.88143222133774,80.15994710345234,65.22604821349239,75.55095552348023,84.47496838448217
95.28253496979438,63.48847968055366,36.85631379446586,82.51922120987598,65.3042290254078,75.7335478092249,84.52679822146393
95.36866831086216,63.480796720620035,36.829836900169965,84.96193754013473,65.37981873655562,75.91436783256702,84.5726287660191
95.51465504897487,63.473073838748974,36.80224881107042,87.48242524309826,65.45240873559813,76.09344058674621,84.61215023682453
95.73332593189066,63.46548875323295,36.7737987655541,90.07474690927732,65.52159250626487,76.27080640615571,84.64506284964537
96.03791267778522,63.458200614659795,36.74472574678662,92.73284360537092,65.58700370813769,76.44650927099323,84.67110520338186
96.44176451839837,63.45133395183947,36.71526444893397,95.45056416023439,65.64832728633674,76.6206126439073,84.69006852690141
96.95805298853075,63.44500177352498,36.68566123382431,98.22162374942097,65.70527994122973,76.79319970440665,84.70178068149941
97.59949608077834,63.43933449639202,36.65617830348226,101.0395785942688,65.75760016980811,76.9643409296958,84.70609836196559
98.37807177695632,63.43447315426493,36.6270820619759,103.89781063202007,65.80507159572647,77.13406770434518,84.70293155138685
99.30471434688873,63.430540602978475,36.598632438536214,106.78948898072275,65.8475513493169,77.30238412166536,84.69226605869457
100.38905583754169,63.42763211625814,36.57108401022574,109.70753546908476,65.88496625435278,77.46928919636984,84.6741467889916
101.63928838206218,63.42582998518204,36.544691583817304,112.6446590948603,65.9172853152544,77.63476576586562,84.64864017555409
103.06214819448698,63.42520808268288,36.51970820543132,115.59349672181392,65.94450444890556,77.79874392029305,84.61582316818452
104.66292063059318,63.42580935123545,36.49637891163294,118.54680123196188,65.96665039059093,77.9610865985456,84.57580463746592
106.44538807909605,63.42762423664884,36.47494329540745,121.49755461141231,65.9837759190478,78.12162041112292,84.52873613259467
108.41177614654612,63.43060241673126,36.45564304693926,124.43896203255413,65.99593317092574,78.28017755193913,84.47479259673977
110.56277224157974,63.43468449531032,36.438717839047946,127.36439094897203,66.00315216335103,78.43660215465344,84.41415785062811
112.89757291011018,63.43981153244888,36.42438838297859,130.2673116154443,66.00545159090869,78.59073022330578,84.34703993057256
115.4139029567005,63.445902920227795,36.41284354162913,133.14124518416025,66.00286414001154,78.7423916882524,84.273689366646
118.1080490688212,63.45283754750212,36.4042445453048,135.97974029023104,65.99543799144335,78.89144213361739,84.19438550709322
120.974938235441,63.46046307628096,36.39873837122601,138.77641162216088,65.98321330186128,79.0377794361759,84.10940144329253
124.0081982296974,63.468612331465955,36.39646198981053,141.5250165724844,65.96621335113669,79.1813237963877,84.01899067816224
127.20016566413716,63.477096666807014,36.39753651260061,144.2195097627833,65.94447409356158,79.32199787839265,83.92340749238305
130.54191611268223,63.48568678640529,36.40206620756297,146.85405358337283,65.91808203358832,79.45973947540708,83.82292262787801
134.023387405838,63.49411594250441,36.41014706381187,149.42300071248812,65.88717863442368,79.59452085086268,83.71781223958207
137.63354368134628,63.50210801934805,36.42187379269303,151.92087069181062,65.85193862728468,79.72633606055827,83.60835039226642
141.36047835535382,63.509393905686586,36.437335540971375,154.34234817731766,65.81256080251335,79.85517155856951,83.49482785700782
145.19145299201608,63.51569799007071,36.45660720664888,156.68234057157045,65.76927818732217,79.98100417150678,83.3775710225068
149.11294669201362,63.520724901737054,36.4797504604967,158.93614590524814,65.72235661109524,80.10382524524384,83.25692829729118
153.1107392021126,63.52417839612857,36.50682091819154,161.09973278767035,65.67206645323525,80.22364509758957,83.13323723153958
157.16999174910885,63.52579585782623,36.53786477440869,163.1699910645462,65.61865506534548,80.34046046018803,83.0068180489463
161.2753286956118,63.52535646299879,36.572902167600965,165.1447904081406,65.56234976334265,80.45422426671352,82.87800333398852
165.4109695705605,63.52265386136289,36.611912629544506,167.02286625607974,65.50337814629914,80.56485463198773,82.74715822265445
169.56091691036607,63.51746556825328,36.65483621134814,168.80366137417414,65.44196888585583,80.67226215991214,82.61466400770999
173.7091358870432,63.50955314254843,36.70158471785638,170.48719564447336,65.37832843673468,80.77634977516239,82.48089692004598
177.83966207550165,63.498690760854814,36.75204626804689,172.07398436019403,65.31263047747825,80.87698446997858,82.34623339196244
181.93663682406228,63.48468599350086,36.806080701446064,173.56500479875942,65.24504262144933,80.97398905441555,82.2110647731631
185.9843341363698,63.46737540949653,36.863518730472265,174.96169135223624,65.17576180962563,81.06718237751865,82.07578684478547
189.96726030461403,63.44661864589817,36.92417137465507,176.2659363648186,65.10501577723251,81.15643037319322,81.94076785413822
193.87033472353923,63.4223051185973,36.987842363535606,177.48005584674172,65.03303676726772,81.24165476226587,81.80633872726656
197.67906343426844,63.39435195469065,37.054333548946424,178.60669660466186,64.96004878754182,81.32280874861665,81.67282120542868
201.37964573234416,63.3626813771573,37.12344736538457,179.64875056504545,64.88627968318877,81.39986936432501,81.54055041404231
204.95903254040252,63.32720568745452,37.19499848134584,180.60933505829615,64.8119658886766,81.47285366627851,81.40985969854306
208.40494162914615,63.28784810523865,37.26882813011979,181.49177797224442,64.73732971836999,81.54181819647071,81.28105739648649
211.70582672721653,63.244579897770144,37.34480220794026,182.29953294122842,64.66255496672616,81.60682404645522,81.15443237901673
214.85085281495998,63.1974373288953,37.42279221271932,183.03605066293238,64.58779137962885,81.66790493376193,81.0302737718161
217.8299301820301,63.146537460947386,37.502657275144074,183.70468608665485,64.51317465017094,81.72508029997248,80.90886492820243
220.6337751347706,63.092143119639886,37.58424149968515,184.30867595462567,64.43882597933913,81.7783968069476,80.7904513507462
223.2539313241284,63.03475809857739,37.66738007940679,184.85113942412718,64.36482929696129,81.82794215151105,80.67522612931721
225.68276938951269,62.975170995551494,37.75189718278307,185.33504559384923,64.29122399620144,81.87381786106717,80.56334960681593
227.9135297935563,62.91442161047607,37.83759380070072,185.76315930445148,64.21803594884028,81.91611414541624,80.45496416504328
229.94038581199533,62.85376492844698,37.92423942916884,186.13801622840808,64.14531687893054,81.95491098294262,80.35017797615453
231.75845381842,62.79471360213182,38.01157600937708,186.4619377967638,64.07314948269448,81.99027719261751,80.2490481154188
233.3637699975742,62.73913347933706,38.09932818607857,186.73703293920548,64.00162284226909,82.0222439383075,80.15159477222579
234.75330017568692,62.68928709081652,38.187209364555024,186.96515566040827,63.93081746045257,82.05078090098131,80.05782694811973
235.92496318502566,62.647774058476905,38.27492574348562,187.14785804548896,63.860813715022985,82.07581695072741,79.9677398552858
236.8776015344282,62.61741693035549,38.3621889295763,187.286368984007,63.79169639462626,82.09729234143049,79.88128725296933
237.61089257637602,62.601152615572346,38.448731273261814,187.3815856832125,63.72353415731711,82.1151834366131,79.79837393872253
238.125250159191,62.60193468545763,38.53430635487366,187.4340848052947,63.656353664195166,82.12947706455715,79.71888368897474
238.42176741289632,62.62263098974411,38.61867327298482,187.44417604416864,63.59014127892165,82.14013643750118,79.64270086493887
238.50220230967855,62.6659292718469,38.70158221566458,187.4119706048869,63.52487079342966,82.14709954105433,79.56969763411199
238.36895647568608,62.7342857306031,38.7827762488375,187.33741322266002,63.460521723728824,82.15029474441718,79.49971693065788
238.02501548577095,62.82992998761722,38.86200334867968,187.22029436403548,63.397071709540434,82.14963501084354,79.43258341100152
237.47388121213893,62.95488743311909,38.93902007186137,187.06032393732372,63.33449065889709,82.14499247535315,79.36812490044994
236.71954207217595,63.110966472597134,39.01358346709473,186.85729919984425,63.27275808494423,82.13619202794567,79.30616845122607
235.76647297602793,63.29971817848084,39.08544532459723,186.6113040749224,63.21187860722088,82.12303574301194,79.24651562642218
234.61962307505064,63.522430511507814,39.15435698261832,186.32286889243468,63.15186912012119,82.10532135412777,79.18893853220446
233.28440158534258,63.78018286772443,39.220077532749585,185.9930672496608,63.09273767530493,82.08282578034071,79.13320791527097
231.7667000037479,64.07390354694263,39.28237409880464,185.62354497427575,63.034483872571656,82.05527576382609,79.0791125516655
230.07291807174713,64.40436965709954,39.341016323792324,185.21647407032012,62.97710908898,82.02234445874144,79.02644531753714
228.20993126788372,64.77217517494425,39.3957782857766,184.77443818601063,62.920606263373635,81.98367488581415,78.97498601173994
226.18501386914528,65.17773221223672,39.44644902054107,184.30028051289221,62.864930215494,81.9388944892076,78.92450987623232
224.00578485023016,65.62130640954838,39.49283850480308,183.7969565513721,62.80998568467875,81.8876025858021,78.87480341202526
221.6801981150943,66.10303621482024,39.53477183095183,183.26743361173084,62.755667726221795,81.8293602022724,78.82565635544563
219.21652679672016,66.62292509824455,39.57208047773692,182.71464490078304,62.70193545222321,81.76371689361766,78.77683976556501
216.6232959779776,67.1808319723824,39.604604230285695,182.14145900220234,62.64885541114504,81.69025768270478,78.72810893404369
213.90919348467142,67.77645788596108,39.63220094489982,181.55064240578406,62.59659059215592,81.60862102888585,78.67923383320512
211.08303715497388,68.40930977670097,39.65474804790243,180.94482544272606,62.54537491574023,81.51847696059117,78.63001466664868
208.15381717272155,69.07864298651263,39.67213237838496,180.32648195316057,62.49550128848342,81.41950610614215,78.58026614609975
205.1307242210702,69.78339900626536,39.68424234131541,179.69796986609464,62.44730502784061,81.31141016158377,78.529806840927
202.0230928739639,70.52215530652991,39.6909730576899,179.06167653900812,62.40112939993826,81.19393184915705,78.47847722370742
198.8403158649644,71.29311940412404,39.69223850986595,178.4201834783257,62.357300437443115,81.06684948153044,78.4261583222614
195.59182166619112,72.09422036393053,39.68797644095974,177.77631689062716,62.316139967808724,80.92995345283138,78.37276031010218
192.28711117657946,72.92329449621782,39.678144256482646,177.13307899333927,62.277996309922116,80.78303777950563,78.31820027918226
188.9357650623694,73.77825040056044,39.662718334034004,176.49355047040368,62.24324628957493,80.62591220853302,78.26241123726663
185.54738039651187,74.65710846098511,39.641701930198536,175.860837098913,62.21226347819078,80.45840761150046,78.20537816621778
182.13148214775396,75.55793509084015,39.61513167854409,175.23807148310473,62.185396104522255,80.28035982611914,78.14715214511645
178.69744710290118,76.47877634209388,39.583072636016674,174.6284147508429,62.162983447873714,80.09159516149126,78.08782540204534
175.25443204376532,77.4177236972075,39.5456076986644,174.03500576715658,62.14538234914007,79.89194556506662,78.02750628382935
171.81129910501718,78.37315813398274,39.50283572272414,173.46086777359253,62.132962076145475,79.68128042086363,77.96632503972232
168.37655352247177,79.34400423484658,39.45487852472424,172.90881646877747,62.126077349484504,79.45951504678068,77.90444905094633
164.95831009643163,80.32979540822836,39.40188292862019,172.3814007935627,62.12506517305039,79.22658740085208,77.84207228703454
161.5642786179949,81.33059584075059,39.3440123434866,171.88086690537338,62.13027535569963,78.98244159999443,77.77938740332233
158.20174212111758,82.34696224487546,39.28144007916999,171.4091209696436,62.142091396207796,78.72705370571563,77.71658044154232
154.87753237764164,83.37998594885146,39.21435677228367,170.967705467488,62.16091234543106,78.46048067989459,77.65385300123434
151.5980377279867,84.43130911930893,39.14298470141053,170.55780879488867,62.18712381962741,78.18288112784826,77.59142958835339
148.36924071673477,85.50307421232222,39.06758185949437,170.18027700091787,62.22108923300426,77.89449791679345,77.52952901665131
145.19673282568817,86.59791485724686,38.98843172711177,169.83559936574247,62.26314429190155,77.59564265418032,77.46833595227469
142.08568536005095,87.71909329398783,38.90583208109419,169.52389151575636,62.31356814054936,77.2867017763698,77.4080118252666
139.04082465660116,88.87071491546918,38.82009631962981,169.2449230999866,62.37254021727783,76.9681367908845,77.34872834631746
136.0664588682645,90.05784003946404,38.731561293825266,168.99824043162195,62.44011596715752,76.6404586707061,77.29067702413356
133.1665323578691,91.28641237734773,38.640584704484354,168.78338534598942,62.51624287070383,76.30420293308295,77.23405239958724
130.3446474019804,92.56309503973984,38.54753101700468,168.60011755154457,62.60079688070062,75.95993897603145,77.17905039256658
127.60405262443709,93.89514469898138,38.45276028506359,168.44854094221793,62.69359649616582,75.60829929354466,77.12589063718043
124.94766164961737,95.29031460732432,38.35662779607273,168.32912257995804,62.79438811420557,75.24998409592588,77.07482316797761
122.37811993399885,96.7566732869991,38.25948834896323,168.2426475194959,62.90283522718549,74.88573295485232,77.02609929760024
119.89785188624575,98.30232349255643,38.161695288216784,168.19013142109185,63.0185237762258,74.516305304605,76.97994139605144
117.50904239345267,99.9351078926032,38.063596887163236,168.17270253844904,63.14096106741311,74.14249973301095,76.93655334716624
115.21360016725035,101.66235878370631,37.965541315596916,168.19149434504322,63.26956184578559,73.76518243966248,76.89615887408029
113.01316119662334,103.49073133677403,37.86788620601457,168.24757008088937,63.40365931844396,73.38527897055157,76.85901478053763
110.90911256530373,105.42616118524565,37.77099634426548,168.3418511644986,63.54257082666117,73.00373156522184,76.82538205025725
108.9025807571875,107.47389478875131,37.6752270856769,168.47504946482692,63.68567881535914,72.62146123172109,76.79549567851373
106.99438377627334,109.63846431566674,37.580909545028796,168.6476414721895,63.83245956822414,72.23935870994538,76.76957111220698
105.18500111600062,111.92359858917825,37.48835118216846,168.85986962180678,63.982451662348936,71.85829063972658,76.74783098077269
103.47458780121761,114.33226883863021,37.39784502644477,169.11171061746606,64.135211887611,71.47909757681808,76.73050836125363
101.86299571976274,116.86699404595245,37.309670492175414,169.40279696251125,64.29029001709279,71.10260175852912,76.7178247206969
100.3497681623469,119.5301900671522,37.2240844768055,169.7323314681322,64.44721240528236,70.72966245331806,76.70998616404846
98.93413656457257,122.32429808645807,37.14131647683088,170.09903311778893,64.60546014076851,70.3612544360541,76.70721011855726
97.61506677057123,125.25170268786087,37.0615727728169,170.50112278993518,64.76444471299257,69.99849742145366,76.70973804456658
96.39133700723376,128.3145414303879,36.98503969797588,170.9363372304465,64.92348774405787,69.642619827962,76.717804939184
95.26157797931002,131.51444645957847,36.91187826196288,171.40197943253048,65.08181333282123,69.29491896124719,76.7315969994666
94.22425318935215,134.8522780799483,36.84221968583349,171.8950323619499,65.23856288333216,68.95677921275262,76.75124360358359
93.2776379740067,138.32790697360733,36.77617518389646,172.4123161494571,65.39283003875435,68.62973276866731,76.77684101182523
92.41985058973306,141.9400428201272,36.71385233600914,172.95062326203984,65.54369903372792,68.3154968226949,76.80846270868894
91.64890603611697,145.68609254615012,36.65535867320738,173.50679308211312,65.69026597834818,68.01597954862645,76.8461370211779
90.96272641526046,149.5620715541523,36.60078826075579,174.07773319348587,65.83164247622626,67.73330197738693,76.88982446875315
90.35910506863151,153.56263206558057,36.55020426667548,174.66042323196066,65.96696170482625,67.46982046756426,76.93942609789336
89.83568470172672,157.6812643707284,36.50363186138485,175.25193019415616,66.09540116524707,67.22808891420877,76.99480686485222
89.38997648318572,161.91069493771556,36.46106215016051,175.8494217448374,66.21625813074499,67.0107817232183,77.05579857122387
89.01937777726283,166.2434056001575,36.42245397505549,176.4501662885637,66.32912969582092,66.82066790141346,77.12218840244118
88.72115004779138,170.67200974765692,36.38772883787598,177.05154552125424,66.43413860258532,66.66065494989516,77.19373333267609
88.49238652704108,175.18927301824974,36.356777125355805,177.65110439724452,66.53205356310465,66.53381918321722,77.27020150531843
88.33004085351754,179.78789489808466,36.32949053222059,178.2466261810952,66.62426872341615,66.44336749826086,77.35139345708896
88.23103061606108,184.46028572582986,36.30580065793333,178.83618002204565,66.71272707428261,66.39257497541966,77.43712171293194
88.19232705057195,189.19841279240543,36.28569131160474,179.41812552572082,66.79982370977399,66.38475289344699,77.52718356845139
88.2109622722701,193.99368326602405,36.26918325974566,179.991117767742,66.8882867423196,66.42322959998191,77.62136401512203
88.28400821034141,198.83685118277046,36.256315123546145,180.55410040166848,66.98108603412865,66.5112976223682,77.71945524354221
88.40860297203588,203.71795728481857,36.24713485306376,181.10623896961368,67.081425146416,66.65213106312183,77.8212527788265
88.5820025802481,208.62629295771495,36.24169658720928,181.6468288889133,67.1927914525641,66.84872539216511,77.92652842514208
88.80158895263452,213.55036548243643,36.24005044947911,182.1752413114048,67.31899074321497,67.10387868394346,78.03502067382496
89.06483587318208,218.4778804451732,36.242224191993515,182.69089973735797,67.46413471726552,67.42016361852703,78.14645365596131
89.36929499901525,223.39582314180612,36.24821180364934,183.19326926950095,67.63259255301067,67.79986655665093,78.26054848419928
89.71261144477434,228.29067616895514,36.25797873342428,183.68192037580198,67.82892842844069,68.24497084859622,78.37700680994585
90.09251311104876,233.14867352357547,36.27147126919576,184.1567014668817,68.05784206514974,68.75723195083843,78.49549328697825
90.50674871316609,237.95597660667772,36.288615895705625,184.61790630509373,68.3241047128008,69.33825881993268,78.61564187490151
90.9530215234043,242.69875441576295,36.309317952969025,185.06633161925342,68.6325120062738,69.98953443403781,78.73706813279266
91.42898332830777,247.3632158916641,36.33347533615897,185.5032735370726,68.98789068412198,70.71241944263127,78.85935928375383
91.93228750930598,251.9356628190657,36.360998276047624,185.93052402598045,69.39509525326791,71.50816879309427,78.982056385095
92.46062411778573,256.40258686596326,36.39181259804298,186.35032793438768,69.85890514047193,72.37792643533959,79.10466929207875
93.01168782943473,260.7507653603352,36.42584238663254,186.76527652571372,70.38385572771186,73.32267490688216,79.22672168493564
93.58312494313832,264.96731461109795,36.46299077746741,187.17818431679177,70.9740987719565,74.34318346137671,79.34777475167326
94.17253191210473,269.03970183442084,36.503141383173094,187.59195996893897,71.63332443816603,75.44001292732604,79.46740701977764
94.77750705935135,272.9557549053927,36.546182779737116,188.00945101742428,72.36470202549535,76.61354119934855,79.58518637974183
95.39568868140817,276.70373606424096,36.59203187519902,188.43329233646986,73.17079856488809,77.86392903385303,79.70066943312906
96.02475352424045,280.272491686727,36.640638048379,188.86580625798427,74.05348837294119,79.19104360826407,79.813415739855
96.66243063776005,283.6515871034879,36.691979469056655,189.30895880005926,75.01388781098963,80.5944318228436,79.92298434583094
97.30655354526766,286.8313548693244,36.74606267959201,189.7643258335345,76.05232809423694,82.07336598016799,80.02891593764116
97.95509141345191,289.80292229286835,36.802918179401225,190.23302705503727,77.16835110683402,83.62687489213738,80.13073652230496
98.6061238860048,292.5582940320617,36.862595909606924,190.71564549101632,78.3607125932121,85.25371298273096,80.22798744205882
99.25779864629482,295.0904277428475,36.92517640976884,191.21218567059543,79.62741992882358,86.9523632912932,80.32024196700125
99.90830408043853,297.39323377968014,36.99078951255344,191.72209655294245,80.96583780687894,88.72113930699456,80.40708720992748
100.55583990618433,299.4615392570606,37.05961659203519,192.24433411976133,82.37281559231202,90.55827066839161,80.48810095096157
101.19857253397265,301.29105177313573,37.13187305707596,192.77743630396338,83.84475790089736,92.46187911929002,80.56285791913977
101.83460055472163,302.87830275762013,37.20778852444233,193.31961080796293,85.37764398133754,94.42996036516855,80.63095447561223
102.461954725142,304.2205697859059,37.28759774356654,193.86881388769726,86.96705537695291,96.46050711939691,80.69201484345763
103.07861815417228,305.31581470594904,37.37153597327657,194.42278944418842,88.60821896282853,98.55170808365851,80.74567931653212
103.68253637036392,306.1626876983973,37.459824121261725,194.9790952478701,90.29603132454388,100.70206772749746,80.7916122203512
104.27160921551209,306.76064641165567,37.55264647867418,195.53516167530123,92.02506450952791,102.91038760905874,80.82953463699927
104.84369338515509,307.11016170314326,37.65014531011202,196.0883652070294,93.78958113410393,105.17564243512395,80.85923948324644
105.39665071470772,307.2128832763286,37.752451120547036,196.63605056578552,95.58357312142766,107.49682113053103,80.88056532651142
105.9284205734006,307.07174675322733,37.85973580470782,197.17548634403101,97.40081902419124,109.87280663263336,80.89335889294966
106.43705190664707,306.69111694129407,37.97225434999603,197.7038263829907,99.23493458704984,112.30233870842329,80.89746963236193
106.92068253798662,306.076894190215,38.090358876194635,198.21813270178905,101.07939689337132,114.78405875784655,80.89277623439023
107.37752791777159,305.2364352087143,38.21449499587686,198.71542263262552,102.92756928584521,117.31655817090866,80.87920122920653
107.8059236763265,304.1783213373286,38.34518720277913,199.19268010670498,104.77276004219928,119.89832944931563,80.85669025574397
108.20438001093785,302.91208103313113,38.48301491254339,199.64682995871416,106.60828908129896,122.5276326461952,80.82518573028355
108.57158861176104,301.4479129523253,38.6285993504793,200.074736200065,108.42752159973843,125.20237486429949,80.78463108187826
108.90641023868766,299.7964323160781,38.78263855686825,200.47328114649994,110.22389453644104,127.92004459089691,80.73499688495592
109.20792051382364,297.9684545765016,38.945993616682486,200.83948635964785,111.9910039242511,130.67767383841175,80.67629012593044
109.47550708642706,295.9748371141254,39.11975832581169,201.17058432099162,113.7227548159796,133.47183455678584,80.60853908575665
109.7089195074802,293.82642125316545,39.30525164203533,201.4640260563571,115.41349359905966,136.29874802613585,80.53178916709726
109.90822673682146,291.53405807758156,39.50395844690538,201.71745980632892,117.05807488184175,139.15451178648158,80.44612476597288
110.07374992470903,289.10861031102667,39.717477116857545,201.92869165204607,118.65189418018502,142.03527452255145,80.3516843513788
110.20603618900995,286.56087200284026,39.947491252078635,202.09565820560954,120.19092882415192,144.93726011535225,80.24864382186085
110.30584969393274,283.90147495260663,40.19574195670535,202.21645725943839,121.67178602430236,147.8567811110297,80.13719494159628
110.37412817399672,281.1408721617888,40.463987379858466,202.28941848526307,123.09171710068574,150.79033091717577,80.01755843190412
110.41191184025054,278.2894258128136,40.753981711589795,202.31314759970658,124.44858366866086,153.73462388152046,79.89002046707144
110.42029312773141,275.35758002336763,41.06749659589726,202.28650497255396,125.7408182585691,156.68649537774186,79.75494395005997
110.40040241249972,272.3561064689185,41.406341191334946,202.20854000401624,126.96739709927185,159.64274332926854,79.61274618768421
110.35339620375284,269.2964005739159,41.77233988502065,202.07843770416687,128.12778694690553,162.59998928193195,79.46388737211075
110.28042829579357,266.19068658327683,42.167306048700844,201.89550562830775,129.22185620501565,165.55457060853374,79.30888927281651
110.18264039876176,263.05196449256476,42.593063561014695,201.65917591859343,130.24979399138434,168.50246853973266,79.1483467568609
110.06120630510755,259.893739248446,43.05149272152272,201.36899290653838,131.21205362466472,171.43926691271122,78.98290431897556
109.91738761094443,256.72971705730714,43.54454038620247,201.02459708387613,132.10929298245492,174.3601300787913,78.81322673510452
109.75253222081555,253.57356492242747,44.07418578167773,200.6257278734818,132.94231534995313,177.259799306094,78.64000492062058
109.568019016385,250.43870607576628,44.64240187857878,200.17224285652497,133.71203988198278,180.13259559536925,78.46398575034254
109.3652129758463,247.33811558830857,45.251132402362764,199.6641364672475,134.41948230347322,182.97242071402616,78.28597708476188
109.14546736291653,244.2841246028543,45.90226474452619,199.10153710299068,135.06570320981933,185.77279677639348,78.10681762005329
108.91014192254757,241.28824990559474,46.59757262511086,198.48468304659568,135.65173149954543,188.52699293136226,77.92735356119631
108.66059098971088,238.36105316869325,47.3386288974259,197.81392137250418,136.17851252306662,191.22820914168437,77.74844438118856
108.3981320940705,235.5120300758834,48.12671923381538,197.08975733911484,136.64691235916052,193.8697288068578,77.5709669843683
108.1240390006092,232.74952100678604,48.96279066427202,196.31290752396245,137.05775330002615,196.44499378719695,77.39579096010442
107.83955630750079,230.08065139860483,49.847437363279944,195.48430096463505,137.4118349768902,198.94761140117885,77.22374852670599
107.54589021609505,227.5114052899023,50.780901312755674,194.60504100089048,137.70995154616526,201.37131921079887,77.05563749990053
107.24415904694285,225.04696953845198,51.76309626188787,193.67636287726395,137.952953277451,203.7099520638799,76.89224723024687
106.93533974125872,222.69226144068455,52.79367251759322,192.6995833520802,138.14183440768818,205.9574474057819,76.73436164247924
106.62026658176775,220.45236136159016,53.872072601399395,191.67604837845957,138.2777657038752,208.1078693693837,76.5827310515709
106.2996937879064,218.33273811319108,54.99752141707661,190.60714520317504,138.36204565814927,210.15542156744152,76.43805433260295
105.97435597361168,216.33931428825977,56.16897557699438,189.49440761179758,138.39603067631722,212.094474849096,76.30099302477177
105.64496973233872,214.4783544067547,57.38508596556678,188.33961577339954,138.38110899054988,213.91965360953213,76.1721848539335
105.3122111003346,212.75618036047615,58.64419772531741,187.14479996040708,138.31872744961706,215.62595645713262,76.0522255362102
104.9767247841359,211.17883074146027,59.94438386637735,185.91218288611557,138.21043165078373,217.20882765978394,75.94164060569733
104.63915048780125,209.75177426248166,61.283497127434224,184.64411494142368,138.0578872661708,218.66414268796711,75.84088755292723
104.30011993065796,208.4796971363111,62.65922933260145,183.34299999284923,137.86289900068516,219.9881606787271,75.75038202869068
103.96023039155548,207.36632691124893,64.06915709445008,182.01121482106447,137.62743857759082,221.1774974423329,75.6705045249313
103.62003721390037,206.4142752724468,65.51074016281855,180.6510698477511,137.3536377965739,222.22910787285596,75.60157910865122
103.28007290291036,205.62492114558364,66.981283139379,179.26485947719337,137.04372171483666,223.14026025564883,75.54386482747472
102.94085983461757,204.99834135968092,68.47794120562766,177.8549768749107,136.6999328488425,223.90855371565254,75.4975785037333
102.60289504461937,204.5332694343343,69.99783406406308,176.4240086769109,136.32449372212741,224.5320357754781,75.462912847647
102.26663335665987,204.22709573278416,71.53821405245282,174.9747804367487,135.9195850937274,225.00935695553667,75.44001781642841
101.93250521567074,204.0759931236185,73.09657874320996,173.5103811083854,135.4873002721516,225.3398388989739,75.42896710299374
101.60094722988927,204.0752121211703,74.6707048953317,172.0341464166014,135.0295838865049,225.5234462841831,75.42975187506148
101.27239689474592,204.2194023642259,76.25864336930623,170.5495710792479,134.5481931569221,225.5607526818637,75.44230127710122
100.9472581624719,204.50278070785635,77.85868407526849,169.06020213048205,134.04469475560794,225.45293182016852,75.46648968136641
100.62588094404214,204.91919108330248,79.46929568112792,167.5695790368427,133.52047103766282,225.2017187960517,75.50211951912792
100.30857106889924,205.46220396357796,81.08906272614828,166.08121739912218,132.97670933965102,224.80932915397034,75.54891556769387
99.99561182258827,206.1252439836267,82.71661951534279,164.59861661001432,132.41439935840447,224.2784253284463,75.60654704830245
99.68726653698684,206.90166738696928,84.35056999652691,163.12529368045367,131.8344048966215,223.6121748922142,75.67464434158148
99.38376175515072,207.7848167519591,85.98940572638043,161.66482057046278,131.23760959002897,222.8142946453144,75.75278412829316
99.08528965784875,208.76807358984,87.63144695936776,160.22082612014552,130.62503762729202,221.888986545731,75.84046818727943
98.79203945149816,209.84484061279687,89.27483019112957,158.79695244561148,129.99790932836572,220.84083220813173,75.93713715221158
98.50421148089764,211.00842963438478,90.91754170082024,157.39678303051636,129.35768357499117,219.67476067737707,76.0422124951887
98.22199179225366,212.25192042796067,92.55745864171362,156.02378707473292,128.70607637703932,218.39608892661954,76.15511778660937
97.94553548772356,213.56806092444995,94.19236423410618,154.68131014168785,128.04500338176618,217.01053810796668,76.27526494759772
97.67500643270714,214.94923173101927,95.81994933826746,153.37256536690853,127.37647418912758,215.5241872907945,76.40204523982318
97.41064122745351,216.38744160090204,97.43783097659521,152.10057112882413,126.70251145603369,213.94342286397853,76.53484652288854
97.15276513766462,217.87430795891183,99.0436040355099,150.86806489286883,126.02512393823092,212.27490493477538,76.67306675745714
96.90175122874481,219.40101525871071,100.63491992330425,149.67745549817465,125.346296490103,210.5255045084264,76.81609727990188
96.65798822249252,220.9582703832291,102.20955066505296,148.53081751302025,124.66795085273583,208.70221938757174,76.96329839017555
96.42189985944876,222.5362773935213,103.76540799218704,147.42988183246058,123.9918918280222,206.81214786977733,77.1140070621686
96.19397596454169,224.12476252729755,105.30056320682783,146.3760003741894,123.31978369420632,204.86253204445526,77.2675721314719
95.97475704548741,225.71308755707068,106.8133108184339,145.3701067098135,122.65315302460415,202.86077655035766,77.423371356727
95.76478779639467,227.29046141349562,108.30222598847774,144.4127012771392,121.99337464872579,200.81438952986747,77.58079523964862
95.56460733914251,228.8461799619709,109.76615921588007,143.50388522029183,121.34163311969564,198.7309243632479,77.73923488070261
95.37478799750642,230.3698072572641,111.20417831736688,142.64344912708444,120.69890307696444,196.61803723230983,77.89809719148326
95.19595687122644,231.85135412669334,112.61548559415863,141.8309853768978,120.06597398845147,194.48363786129153,78.05681847898207
95.02876783419505,233.28154144292685,113.99934214286539,141.06598855105386,119.44348727487704,192.33595730842822,78.21484680961169
94.8738697864583,234.65202940572672,115.35504388190834,140.34791947291083,118.8319599882902,190.18343245062928,78.37161492797273
94.73190162217318,235.95545785170256,116.68195051295771,139.67621488308532,118.23182845940704,188.03450369021408,78.52654673739715
94.60348321168124,237.1853495913239,117.97951220326286,139.05026436375363,117.64353241079394,185.89746896530636,78.67909406310055
94.48917675176362,238.33600634302323,119.24726870139216,138.46939564159615,117.06757924085778,183.78043241413712,78.82875536600105
94.38944482942696,239.40243311116538,120.48484933315433,137.93287300810235,116.50452995404476,181.69128422270842,78.97505825006243
94.30463709249044,240.38025511311375,121.69198556688791,137.4398879965713,115.95494526786334,179.63767502392196,79.11754210076336
94.23498679930317,241.2655997953319,122.8685218923957,136.98952666675177,115.41937351461813,177.6270188297619,79.25576551520533
94.18058163177018,242.0549639607512,124.01441894315558,136.58071472726627,114.89838948887379,175.66650880837452,79.38931393495574
94.14132040899759,242.74511807308994,125.12975053633173,136.2121584815971,114.39261292365143,173.76307385340866,79.517781449974
94.11690502680906,243.3330743553006,126.21470070668838,135.882314019887,113.90266295782233,171.92326117974662,79.64074648491459
94.10688478623922,243.81608459944493,127.26956636743448,135.58943324805756,113.42908578833455,170.1530937914597,79.75777978542664
94.11070454789277,244.19162837142161,128.29475871638917,135.33168613007842,112.97230632043433,168.4579519744472,79.86847959604266
94.12770505807259,244.45742372019734,129.2907864201548,135.1072650951869,112.53261079960124,166.84249455434565,79.97248751072979
94.1570911439585,244.61155437064667,130.25821424832165,134.91440630722727,112.11013486773204,165.31060793563967,80.06946996872169
94.19792776517548,244.6527307061995,131.19761129382252,134.75135989779443,111.70483949430549,163.86537841208798,80.15910371337716
94.24919112978002,244.58052255805586,132.10950326729815,134.61634890253424,111.31649766275582,162.50909196598982,80.24108938768755
94.30983133689608,244.39543210729983,132.9943322782352,134.50755052816552,110.94472424955508,161.24325939066136,80.3151650997153
94.37879111966484,244.09891657828797,133.85242774800975,134.4231419667689,110.58902711867917,160.0686868443778,80.38108910917616
94.45499754239742,243.69347054653727,134.68400222683235,134.36137997376403,110.24882628144472,158.98561116047856,80.43860940027668
94.53738448198061,243.18265230918286,135.489186564606,134.320624240337,109.92343796594092,157.99386295512826,80.48746319356874
94.62494459177675,242.57095514464137,136.26807988519673,134.2992892461329,109.61207148185464,157.09299422620796,80.52740958884716
94.71675563544218,241.86361258274636,137.02075516811772,134.29580519990802,109.31386392774817,156.2823400043487,80.55825007523119
94.81196723660717,241.06641692711008,137.74721123292596,134.30865534625468,109.02792617445834,155.56106478617545,80.5798147848981
94.90978759583143,240.1855258997029,138.4473270318049,134.33645988030932,108.75337751613414,154.92825878816,80.5919486344228
95.00948811649019,239.22724908795547,139.12084601943414,134.37801845078585,108.4893823749703,154.38302037552992,80.59452455491277
95.11040073103005,238.197855907775,139.7673680787461,134.43228884398292,108.23518812861897,153.9244270135843,80.58745948701976
95.21189371642292,237.103431364382,140.38634972154853,134.49835944199327,107.99012791312765,153.55143904688586,80.57070185523261
95.31336448534687,235.94976882388664,140.97713195367893,134.57544039451923,107.75357279688312,153.26285471845205,80.54420382139914
95.41429493739895,234.74228192601788,141.53896833455715,134.66284710193108,107.52486744014534,153.05734735752338,80.50791559582493
95.51433391190974,233.48593990319316,142.07101874100655,134.7599718068143,107.30329544957246,152.93350261988112,80.46180544154274
95.61332037879129,232.18525381001194,142.57233396933023,134.86627069415584,107.08808565438201,152.8898013238446,80.40587022736946
95.71123734641648,230.84431978747818,143.04186716586727,134.98128710061496,106.87843104464847,152.9246029785495,80.34012127326102
95.80817175664693,229.46687024189515,143.47849860082496,135.10469623825495,106.67350153003356,153.03616496044685,80.26457504867834
95.90431844088,228.05628928591102,143.88104532919274,135.236321455933,106.47246515202067,153.22263899388395,80.17926978986397
95.99998058138827,226.61562201770556,144.24825822815228,135.37608770397645,106.27451909309163,153.48200911765954,80.08428264795654
96.09552508937313,225.14765358155145,144.57881855757276,135.52393314395346,106.07890457039905,153.81201369315158,79.97971768924263
96.19132546411818,223.65507654500868,144.871333957213,135.6797172842818,105.88490084827959,154.21008900450906,79.86568234679822
96.28773902477518,222.14063691356534,145.1243372126451,135.84313994277227,105.69182585582399,154.6733206614521,79.74229452723623
96.38510556668167,220.60716151988834,145.33629114123949,136.0136832848184,105.49905691961148,155.1983921610861,79.60972014233171
96.48372455253033,219.0575470612096,145.50559802561258,136.190597686474,105.30604164626219,155.78157537453836,79.46819372783735
96.58381577429283,217.49480865528528,145.6306223721919,136.37291984325174,105.1122674948139,156.41881175063816,79.3180022079748
96.68551617391755,215.92211249170234,145.70973023928497,136.55948777498276,104.9172196882905,157.10583626214776,79.15946913177214
96.78892674742967,214.34270691718018,145.74132375578506,136.74895559880736,104.72039928288753,157.83823529875175,78.99296768058475
96.89414942816897,212.75982836707024,145.72385478713713,136.93983071033256,104.5214103023789,158.6114120435619,78.81893601002861
97.00126951119238,211.17667442016437,145.65582897271065,137.13051432579246,104.32003388689841,159.42053704109045,78.63786111185331
97.11032293317261,209.5963999418915,145.53582326583293,137.31931458552162,104.11625133857164,160.26056746164818,78.45024641325593
97.2212983939347,208.02205517497308,145.36253829128214,137.50444803888283,103.9102697573007,161.12633915405894,78.25660441570255
97.33415330592877,206.4564794548434,145.13487880599035,137.68408228597798,103.70256503228156,162.0126562739515,78.0574766377298
97.44879638497852,204.90222611139674,144.85201801275431,137.85644499772798,103.49388727940891,162.91432734963013,77.8534399671746
97.5650408227298,203.36154848221963,144.51341551249902,138.01994115820202,103.28520352728678,163.8261678912682,77.64508131257946
97.68257109243305,201.83642314476944,144.11879793382187,138.17319533057395,103.07761836974805,164.7429872334796,77.4329738794944
97.80094681049738,200.32863835941225,143.66812762416512,138.31501853774776,102.87232523789322,165.65955323974086,77.21768889335786
97.9196233914228,198.83999730278524,143.16159226606538,138.44435738850146,102.67058785058325,166.57055095810756,76.99982667545503
98.03795694154361,197.37254526489585,142.59962954158576,138.56025038375344,102.4737075121307,167.47056476123672,76.78002350894955
98.15520324621853,195.92866777286773,141.98296088463127,138.66178121557618,102.28295823818252,168.35408250129808,76.55893084481507
98.27055134899442,194.51107041377335,141.3126048022807,138.74803546809943,102.099519104268,169.21550344060506,76.33720894440874
98.38318350823621,193.1227854094556,140.58986198858753,138.8180935455247,101.92442942076792,170.04915990763638,76.115548618283
98.49230488790495,191.7672483617635,139.81628155672865,138.87106295819336,101.7585534359181,170.84937961362752,75.8946809224044
98.59713056884704,190.44831817367267,138.99363247149626,138.9060983156952,101.60253330473216,171.6105955965137,75.67534754216838
98.6968730480607,189.17015780635575,138.1238933986597,138.92238331954033,101.4567389623565,172.32748237113026,75.45826083596523
98.79074718599709,187.9370712851644,137.20924503274506,138.91911538597694,101.32125117128594,172.99507405303927,75.24409649341546
98.87796484380452,186.75339769973655,136.25204697879101,138.89551478991004,101.19591082814509,173.60883246945934,75.03351511365202
98.95770541545178,185.6234226350261,135.25480339848218,138.85082444701663,101.08041291578839,174.16467759343143,74.82717002994558
99.0290907165028,184.5512343400816,134.22012677392868,138.78428124646982,100.97437201723645,174.65899343482968,74.6256888589948
99.09119715026503,183.54054917481972,133.15069896322163,138.69508356005247,100.87732605044489,175.08859643674998,74.42966493222106
99.14309302880396,182.59459519758605,132.04923884065252,138.5823804080366,100.78872115625252,175.45067613095196,74.23967738840672
99.18385574496341,181.71608611891,130.91849525003656,138.44528199033607,100.70793262209702,175.74274295634015,74.0563074787423
99.21255518088337,180.90721410866288,129.76126291159704,138.28287240820802,100.63432305157436,175.96259594007634,73.88011951373625
99.22824511334616,180.16958966440154,128.58039821304024,138.09421591548775,100.56728200072972,176.10831526241063,73.71162425354393
99.2299998057062,179.50414449635957,127.37881306246844,137.8783759982686,100.50621119486074,176.17830594933926,73.55126791294622
99.21696735051108,178.91105537535663,126.15944685372547,137.63445276285492,100.45048577993656,176.17137969214355,73.39945408625057
99.18838276674092,178.38973907849456,124.92523771555003,137.3616055125739,100.3994266820622,176.08680099751317,73.25655778543532
99.14353903805036,177.93892642565842,123.67909750635341,137.0590415789748,100.35229939993245,175.92428228022163,73.12290383546217
99.0817721087119,177.55677267183353,122.42387493732346,136.72599541998238,100.30838143937406,175.68398960259293,72.99873636978995
99.0024948878147,177.2410032728555,121.1623128778929,136.36172522135755,100.26710796414832,175.36656141850438,72.88422093452253
98.90524459792185,176.98913985692022,119.89702293844884,135.96552577038048,100.228189291642,174.97308621112904,72.7794758064949
98.78968984272917,176.7987893195043,118.6304793839312,135.5367434303831,100.1916016226192,174.50503973838272,72.68458886392548
98.65560889137211,176.66791093540718,117.36501382088412,135.0747990536257,100.15749476983991,173.9642243936147,72.59960424996355
98.50289633312843,176.5949545039532,116.10279672974282,134.5792310017963,100.12611834389376,173.35273374235047,72.52451349377422
98.33160415402439,176.5788134875936,114.84580827479435,134.04973950206127,100.09779899106681,172.67293490839933,72.45927281041116
98.14195964983169,176.61865162496892,113.59581671494925,133.48620273013216,100.07292441068293,171.92743368767702,72.40381955798061
97.93433712613592,176.71370572333726,112.35439360613755,132.88865867520326,100.05189237013711,171.11900449128728,72.35805754556766
97.7092321584479,176.86313230599015,111.12297716403073,132.25726859805562,100.03504463610575,170.25052711134208,72.32182493777182
97.4672723676129,177.065922811119,109.90294827683115,131.59229118691303,100.0226277319774,169.32497466562688,72.29488582895299
97.20923029671488,177.3208604785071,108.6956745864123,130.894098298389,100.01478288457294,168.34543020781803,72.27695422641492
96.93599793376943,177.6264608508541,107.50252373370803,130.16323262130686,100.01153910315742,167.31508317899596,72.26771284376002
96.648543095392,177.98088054809668,106.32486845211609,129.4004644829165,100.01280459522306,166.23721182928466,72.26680868495663
96.34789877903361,178.38184690932948,105.16408280653194,128.60682487469498,100.01838296541241,165.11519422918886,72.27385823827443
96.03518870454721,178.8266434268136,104.02153052160966,127.78364360489617,100.02802584146562,163.95254110401922,72.28848089691859
95.7116367158107,179.3121106963819,102.89857406782892,126.93259124944633,100.0414893000627,162.75289553868564,72.31032652909673
95.37853575360865,179.83461703928788,101.79661018834503,126.05567875457145,100.05856571303481,161.51997289730562,72.33906337520087
95.03722555090557,180.39002208091418,100.71708969860883,125.15522704801758,100.07910426293869,160.25747854432979,72.3743417645064
94.68912565179156,180.9737037720959,99.66149552943232,124.23386304563368,100.10302760001456,158.96908000060725,72.41577695187797
94.3357861677289,181.5806812595194,98.63130118213743,123.29452518637488,100.13032101262908,157.65845775763907,72.46296442854252
93.97889057087428,182.2057914746456,97.62793674704173,122.34042380276537,100.16098873668813,156.32935532012812,72.51549347514542
93.62022773927664,182.84386901697107,96.65276464841327,121.37497046856448,100.19501642708626,154.9855729530682,72.57293090660042
93.26170363967016,183.48990484481683,95.70705847871571,120.40171596517095,100.23237427129665,153.630958692834,72.63479639196137
92.90538857905312,184.13914883817014,94.79199639346722,119.4242882479759,100.27303901567295,152.26943415452513,72.70056619758383
92.55352075397951,184.7871234784036,93.9086839930796,118.44631613550638,100.3169863564352,150.90501553449246,72.76970255992539
92.20843345413542,185.42956166776636,93.0581865105433,117.47136016328145,100.36414615905738,149.54179944471915,72.84167113187603
91.87245679928229,186.06232622553753,92.24154172435746,116.50286723465803,100.41436055406562,148.18391719220241,72.91593418878185
91.54785301262257,186.6813677683165,91.45976633794739,115.54413600801155,100.46737474477942,146.83546648305384,72.99194883388544
91.23678953623124,187.28272248028327,90.71388270838612,114.59828911313842,100.52284301830726,145.50043553517614,73.06918558374205
90.94130873090619,187.86249939713935,90.00495281536222,113.66827571696598,100.580323621377,144.18264409505207,73.14714295402037
90.6632742634361,188.41683565477877,89.33408167058248,112.75691022620414,100.63927776102943,142.88572422344453,73.22533374178951
90.40433189078277,188.94186689934108,88.70239641021502,111.86690866053641,100.69910324751126,141.61313079981915,73.30325672179416
90.16592305206095,189.43375505680032,88.1110389705605,111.00088183856792,100.75918533647848,140.36813564783532,73.38039163675683
89.94932507788754,189.8887570245043,87.56115850921196,110.16129221144928,100.81891241219242,139.15377609578692,73.45622524020487
89.75566229198256,190.3032925797895,87.05386265478438,109.35042596904698,100.87765338363506,137.97277307625382,73.53027028338947
89.58589001514702,190.67398349879113,86.59014047113136,108.57041242474051,100.93476249198494,136.82746476652127,73.60205525290347
89.44079950475196,190.99768061466796,86.17081196649504,107.82325204531142,100.98964866788639,135.71981679712493,73.67111167957921
89.32104448195527,191.2715132168212,85.79654035089494,107.1107980052239,101.0418495802613,134.651516571265,73.73698055626815
89.2271399674097,191.49294725096354,85.46788265923212,106.43470196499742,101.09103537622848,133.6240747607252,73.79921922245933
89.1594193010851,191.65982790660917,85.18532033902609,105.79637628594229,101.136947948585,132.63889884161986,73.85738766846461
89.117998586675,191.77041693457602,84.94925401239017,105.19698743193852,101.17933382959384,131.6973760616741,73.91102765255809
89.10280557118227,191.82343560619842,84.75998658999245,104.63745428932594,101.2179131670408,130.80094520039572,73.95966614977105
