HandOpen,HandClose,Wrist Flexion,Wrist Extension,Supination,Pronation,Rest
82.87784699848133,261.1576209029694,133.0374266351896,257.4794779624213,75.91733096004194,131.12853705149715,63.00587074885252
83.44945390518585,261.3282428033281,133.50038888129575,257.2356371656934,75.66301300665968,131.72924719207944,62.97510996016702
84.00304641248879,261.39956727088014,133.95943251866038,257.0131354212835,75.40652670705852,132.3272176774116,62.94340559046233
84.53771884241628,261.3663966704477,134.41181026600233,256.8139411069051,75.14811744778129,132.92061254269578,62.91068842473143
85.05267021644707,261.2240056410788,134.85473184919633,256.6402815217465,74.88806739796271,133.5075525007298,62.87687738053368
85.54720305236873,260.96821749368064,135.28538282915815,256.49442623555484,74.62667449217699,134.08610807114442,62.84190285568524
86.02068874048811,260.5954626502789,135.70095240526075,256.37853023410196,74.3642302131899,134.6542611945353,62.80570841018828
86.47255604724633,260.102820811304,136.09865206812904,256.2945219402491,74.10103116741665,135.20985934758858,62.76823134436522
86.90233494690976,259.4880584625089,136.4757575526925,256.2440293471599,73.83740745061858,135.75061470145053,62.729399575787085
87.30971671799016,258.74966850333414,136.82970835581432,256.2283606144877,73.573724360673,136.27416819508986,62.6891613748787
87.69457370056092,257.8869105146019,137.15820987699425,256.24851890271486,73.31035334340385,136.77815852177466,62.647514558637184
88.05694627752705,256.8998666055041,137.45925190255787,256.30522132634377,73.04765541678663,137.260238242582,62.60450096115157
88.39704242158894,255.78951666413136,137.73105030072105,256.39893931788134,72.78600592822512,137.7180787813032,62.56018209379848
88.71524678361247,254.55777732715924,137.97200166724323,256.529994659639,72.52582968537064,138.14944214495608,62.514634383293426
89.01209890599394,253.20745655380048,138.18071421333755,256.6986943135263,72.26760026236899,138.55230148090573,62.467965729865476
89.2882448335968,251.74213967307477,138.35607647402517,256.90542663493534,72.01181203883826,138.92491581163247,62.4203181319876
89.54441174653269,250.1660389143699,138.49727392494705,257.15064380408955,71.7589719950933,139.26583806343493,62.371840174567325
89.7814171594599,248.48383564148494,138.60374073521263,257.4347394258325,71.50962235312232,139.57393269675518,62.322657741267186
90.00016706306769,246.70058096526535,138.6751313733134,257.7579200954974,71.26435285908045,139.84842764538232,62.27287400795357
90.2016205928472,244.82172021421513,138.7113629924165,258.12015383991434,71.02377426404728,140.0889340941475,62.222587802028215
90.38676095868283,242.85318481036148,138.71266149029168,258.52117257815337,70.78848005673086,140.29541436869914,62.1718945427591
90.55660280906062,240.80140574868474,138.67953199589985,258.96044713534417,70.55903650799299,140.46815385079503,62.120862530574804
90.71220138188785,238.6732256831889,138.61267793187739,259.4371039229998,70.33599667469377,140.6077439180723,62.06951772808133
90.85462294472923,236.47585421678122,138.51292915927408,259.9498197432287,70.1198997167166,140.71502580368767,62.01786096441083
90.98489699217151,234.2169677941606,138.38118112074983,260.4967457071675,69.911242664874,140.79098881346533,61.96589412610622
91.10399611226859,231.90485405102515,138.21832218732166,261.07549171404014,69.71045730612467,140.83666625224294,61.91362086112183
91.21284342749902,229.54843006940652,138.02515607545965,261.6831481894625,69.5179170177367,140.85306147698643,61.861030531413235
91.31230561510719,227.15714078275622,137.80235245453898,262.3162885854734,69.33394955238585,140.84110421850923,61.8081007425462
91.40315483306715,224.7408674900206,137.55046260527777,262.97095725645926,69.1588229447237,140.80162366373108,61.75482217299701
91.48603405738572,222.30985917146992,137.269991122234,263.64270429731124,68.99271858533702,140.73533038990672,61.70121176870376
91.56146100630944,219.87463502674558,136.96144930983084,264.32667748636356,68.83573742859922,140.64280949409022,61.64729668705754
91.6298554847516,217.44590945940507,136.62534029474415,265.01772314233574,68.6879490365499,140.52453286504965,61.59309562788782
91.6915468725081,215.0345697331784,136.26211563244132,265.71046917162937,68.54943302958861,140.38088562910227,61.53862842303519
91.74675427094137,212.65160551203863,135.87216579987592,266.3993764573032,68.42027472711938,140.21220405642916,61.48394241869272
91.79557648742103,210.30794376076827,135.45584684134113,267.07874213354,68.30054701633478,140.01886279376788,61.429117539820794
91.83801621401436,208.01428407426988,135.01349845611355,267.7426832034726,68.19032123711823,139.80141696722086,61.374241377194956
91.87401337886638,205.78100271477066,134.5454411331005,268.38513913094357,68.08968962722945,139.56070575383112,61.319388536726635
91.90345514308135,203.61810144768555,134.05200377170348,268.99987763449656,67.99875913549944,139.29785761019662,61.26463078309894
91.9261845938333,201.53518078519033,133.5336225011582,269.5805028072699,67.9176302093329,139.01426961266418,61.21005737591253
91.9420526673486,199.54145551156967,132.990958335847,270.12055683437796,67.84642013319221,138.71164892912714,61.155771662861895
91.95099101164827,197.64579422694777,132.42494119476578,270.61376037329666,67.78534269871638,138.39209178378445,61.101871317468785
91.95303611580978,195.85669459109852,131.83673119632664,271.0542526302029,67.73476974612792,138.05809417011892,61.048447123108566
91.94829295836107,194.18214938719842,131.22765576126102,271.4366981070299,67.69521542397835,137.7124510488362,60.99560327630881
91.93689576458766,192.62946704427367,130.59914412562483,271.7563023439714,67.66727764509575,137.35811356398688,60.9434644116243
91.91900199816682,191.20511448428636,129.95265142821492,272.00880271310064,67.65159439954087,136.99808127957198,60.892153500754446
91.89479135836406,189.9145917335651,129.28959683568635,272.19042445881183,67.64881668703443,136.6353336940851,60.841768576170864
91.86443664357441,188.76234533451756,128.61134915113698,272.29782103568175,67.65957284572225,136.2727646248849,60.792386412541234
91.82806558976786,187.75175266710954,127.9192458900315,272.32810394295836,67.6844347478919,135.91312036237954,60.74408057956947
91.78575506205839,186.88516737781427,127.21460615133107,272.27901455520026,67.72392283227032,135.55898009138073,60.69692220369985
91.73755654682587,186.16394264087685,126.49873978988754,272.1490963802976,67.77854830554145,135.21276635400025,60.65096173353357
91.68350737273292,185.58838569612544,125.77298516970176,271.93771531679636,67.8488417121782,134.87672346577986,60.60622383936642
91.62360371351184,185.15770540321012,125.03877447892671,271.6449925790446,67.93533326486022,134.55285510936608,60.562733584203954
91.5577673061841,184.87001655281423,124.29769610024876,271.2717827688163,68.03850116882151,134.2428821588846,60.520546658390245
91.48584495311758,184.72238673291963,123.55152343483745,270.81969989087645,68.15871874274148,133.9482535993149,60.47974878189413
91.40763149750791,184.71090634941032,122.80218618103666,270.291143401472,68.29621148183071,133.6701672395779,60.44043479191761
91.3228765589435,184.8307890661518,122.05169302404548,269.6893195026076,68.45102112327503,133.4095561698453,60.40270562072576
91.23126686636138,185.07647535636787,121.30208059001122,269.01825528806785,68.622987499445,133.16705465643957,60.36668857466422
91.13241899830926,185.4417099817468,120.55550169496729,268.28277544183214,68.81178131701088,132.94296806336183,60.33254644918132
91.02590534441961,185.91963469562998,119.81445154560778,267.4883988902536,69.01698850765578,132.73724207427523,60.30045688518751
90.91128756284309,186.50293899250843,119.08193693609513,266.64114884028237,69.23818042207945,132.54942539195545,60.27058944360415
90.78811999462833,187.18402253423716,118.36143532055785,265.74732605674126,69.47491911939873,132.3786461076605,60.243111682537766
90.65593097333837,187.95509138899104,117.65671779570265,264.8132964350747,69.72672490857633,132.2236311424858,60.21821052733572
90.51422763524415,188.80817193705437,116.97167944009863,263.8453319315373,69.99305595486001,132.08276490237253,60.19609119021117
90.36253665352278,189.73508056176453,116.31023320965963,262.8495399958542,70.27331563954823,131.95414575156528,60.17694950301673
90.20043457991925,190.72738838911613,115.67624576327543,261.8318633259107,70.56687059930793,131.83562045617361,60.16095296453117
90.02753556609805,191.77639566898972,115.07346548679268,260.7980859305549,70.87306327157258,131.72482069801427,60.148252946732505
89.84346792674435,192.87311161040657,114.50542577220601,259.75380654516056,71.19123912729393,131.61921814416496,60.13900465579562
89.64787721888325,194.0082383639307,113.97535332613192,258.70439181471613,71.5208081453139,131.51617784342528,60.13336178335082
89.44044238259637,195.17217686062315,113.48610717899632,257.65495931626555,71.86130206554479,131.41298015807226,60.131454654144314
89.2208711079426,196.35507385512108,113.04014762160936,256.61040288494513,72.21238453990432,131.30681305073344,60.133387393868695
88.98887602549435,197.5468955427472,112.63951919531675,255.57539573385878,72.57384227979884,131.19477316780842,60.13925786245118
88.7441679077472,198.7375051152077,112.2858254970567,254.55437516083688,72.9456014535002,131.07389745958076,60.14916508135557
88.48648495931718,199.91677368194178,111.98019327570157,253.55162502524783,73.32774297936605,130.9411964801591,60.163186824774066
88.21562828050271,201.07474906562416,111.7232455328149,252.57147463913438,73.72046624559397,130.79365763662722,60.18135791844836
87.93146851890606,202.20181177804056,111.5150866104913,251.61846292486086,74.12402370304807,130.62823012118938,60.20368324983733
87.63394046806792,203.28874227206285,111.35528582419008,250.69733072705984,74.53869694253704,130.4418255430453,60.230171046913625
87.32305696744615,204.32673040418848,111.24286268015292,249.8128491632268,74.96483826213567,130.23134820296372,60.26084256820279
86.99892468997383,205.30739844079704,111.17630174839752,248.96958766077995,75.40294695031817,129.99373577595367,60.295709087558016
86.66172806402432,206.22285154861893,111.15362985258223,248.17172114770082,75.85373672330738,129.7259860832084,60.33475387775776
86.31168916000622,207.06571108939124,111.17254002794331,247.42291418179914,76.31814558293657,129.4251713078455,60.37794542368811
85.949042753944,207.8290920825423,111.2304952687983,246.72625016616527,76.7972712745274,129.08845490955432,60.42525802945228
85.57405249756842,208.50654291489838,111.32479096558811,246.0841664955131,77.29227118776258,128.7131114366381,60.47666559682915
85.18704812420893,209.09199296697733,111.4526198597772,245.49842105617626,77.8042702463685,128.29653524560374,60.53211741216305
84.7884372493548,209.57972502574293,111.61114092879895,244.970128862726,78.33430984275584,127.83624070481925,60.591531385214644
84.37868110974345,209.96435550655016,111.79750367720992,244.49983085027972,78.88335179226485,127.32988861501586,60.654809806346144
83.95827237173542,210.24082771905194,112.00882556264807,244.08752476151963,79.45228978958758,126.77536248319731,60.72184479166507
83.52774299591857,210.40448040208065,112.24216272247615,243.73265387406732,80.04190941861465,126.17085596499834,60.79249465775265
83.08767937370298,210.45120769088223,112.49448785365351,243.43412194724087,80.65281726186984,125.51491104134551,60.866555720633365
82.63871070030069,210.3775942301025,112.7626673692719,243.1903706351017,81.28541850369811,124.80640311122711,60.943762209531215
82.18148187679786,210.18093406349175,113.04343875892955,242.99944949463784,81.93996839681377,124.04451469720813,61.02380947298181
81.71665186236841,209.85921155964888,113.33340639767249,242.8590243566591,82.61662271272199,123.2287192892285,61.10636578188823
81.24492374654417,209.41114328632418,113.62909946627826,242.76637485318426,83.31542644778015,122.35876212834745,61.19106017671973
80.76706449247267,208.83623707408785,113.92710030731652,242.71841397014563,84.03627952166137,121.43462627892846,61.27747472927154
80.28388683267151,208.13477504041316,114.22415521053085,242.7116937911446,84.77893359762811,120.45649764722559,61.36516389379167
79.79622109747486,207.30773396446705,114.51719167459302,242.74238916074316,85.5430089656867,119.42475976339749,61.453680098494445
79.3049125780039,206.35674431541526,114.80328387880499,242.8062913905755,86.32798717294473,118.34003386323134,61.542574484589494
78.81083241351463,205.28412484523636,115.07963833727474,242.89881330041223,87.13316927256007,117.20323141040481,61.63138116313701
78.3148656896363,204.0929031444337,115.34360018892656,243.01497479082366,87.95763933585161,116.0155720548981,61.719620015498066
77.81787569036891,202.78675858271362,115.59264059181824,243.1493672097726,88.8002678335144,114.7785774421808,61.806824355852385
77.32068600185661,201.36998213471142,115.82431713650355,243.29613221821464,89.65973815456103,113.49408417518816,61.892558612932575
76.82410769442714,199.84756523053883,116.03623910568,243.44897839157153,90.53455929987662,112.16426852665761,61.97640398513287
76.3289792249872,198.22534385767267,116.22606417832,243.60121865398983,91.42306298341413,110.79163668117575,62.05793798216971
75.83616896669054,196.51001782496442,116.39151740153358,243.7458102965934,92.32341051923053,109.37897413089118,62.13674077073077
75.34654211593892,194.7090017991903,116.5304218096313,243.87543093225747,93.23361189211022,107.92930799697457,62.21241801667427
74.86093739288027,192.83022177440023,116.6407668269495,243.98261999629324,94.15153654015573,106.44593853433183,62.28460428612164
74.38017677479779,190.8819484712494,116.72081349612978,244.05992620223554,95.07492256801983,104.93251959662528,62.35294171155017
73.90507979113502,188.87266766094086,116.76915930324282,244.0999843168868,96.0014130405041,103.39309802578846,62.41706999811167
73.43645052300282,186.81096941206567,116.78471037805956,244.09552920774124,96.92860945853549,101.83206516126448,62.476652411695774
72.97505566896265,184.70545920504307,116.76660825532612,244.03939956967582,97.85409838115804,100.25406821659537,62.5314108903542
72.52163185378167,182.5646834043287,116.71418713539457,243.92455330195736,98.77543534321126,98.66393915987662,62.58113002158864
72.07691490131697,180.397044915926,116.62698141388007,243.74407948582018,99.6901142593424,97.06663794170757,62.625635621404406
71.6416484317862,178.210706223773,116.50473819114947,243.49119378343772,100.5955518449914,95.46718103499694,62.66478704631152
71.21656333786392,176.01351317805452,116.34738889663777,243.15923617721666,101.48908600096047,93.87055236912312,62.698493815254935
70.80236469892098,173.81296066497393,116.15499127517954,242.741706070347,102.36797460623039,92.28162000138383,62.72672370534346
70.39974285370508,171.61616864548435,115.92768466582031,242.23233635272143,103.22939854453004,90.70510666017215,62.74948054257474
70.00937865403627,169.4298339024779,115.66567446295072,241.62515985144844,104.07049325891548,89.14567617873385,62.76677684777442
69.63191975593868,167.26017411031407,115.36922099514685,240.91453467798462,104.88841674207512,87.60811764348313,62.77863417141643
69.26795373396837,165.112905473425,115.03861213822316,240.09515300834377,105.68041014823179,86.09748769205999,62.78510181426186
68.91801687774843,162.99326970213764,114.67413978414248,239.1620707847771,106.44380586615596,84.61910483329238,62.78625797365017
68.58262966608297,160.90608385004927,114.27611115659543,238.11075413013114,107.17600438960302,83.17843623187984,62.78218567088412
68.26231004256408,158.8557709244356,113.84490378214349,236.9371098456922,107.87447263064752,81.78096060703965,62.77295600446793
67.95754732743276,156.8463566061177,113.38105732107812,235.63748916898544,108.53677484926764,80.43203981458183,62.758642194319116
67.66877749989648,154.88144727036274,112.8853679199312,234.208688497058,109.16060774291641,79.13682472916781,62.73934144337673
67.39639796604396,152.96420045985266,112.35892780607617,232.64796632036428,109.74382271814294,77.90023896059532,62.71517054613781
67.14080048618105,151.09728681075856,111.80309138524315,230.9530639970682,110.28444036849262,76.72702690393851,62.68624419181321
66.90237499142957,149.28285379567922,111.21939937969073,229.1222096057236,110.78065596423096,75.6217798653925,62.65267202079077
66.68148399849795,147.52251952765437,110.60949353205338,227.15411474214457,111.23082349130999,74.58890881897864,62.61457862019511
66.4784489529442,145.81741658487735,109.97504664593576,225.04800801397948,111.63341943336212,73.63263319278387,62.57211235434514
66.29356091469384,144.1682699458514,109.31773771796664,222.80372424075802,111.98701704153929,72.75701497319493,62.525425001530884
66.12708263383102,142.57547587621409,108.63927413210294,220.4217929543508,112.29030399978105,71.96596819713477,62.47464768989549
65.97922042587693,141.0391690987034,107.94141143589641,217.90346043310328,112.54213149913551,71.26319722388592,62.41989350215174
65.85008846227754,139.5592730641859,107.22592831178369,215.25066028231188,112.741544251766,70.65209411021313,62.36127829454317
65.73969710353178,138.13551933964933,106.49457875055141,212.46598837371477,112.88776707694021,70.13562922589315,62.29892568198106
65.64796183882213,136.7674459545419,105.74907070642693,209.55269498876586,112.98017931343108,69.71625158837082,62.23294790475155
65.57470231226854,135.45441520136202,104.99107837470032,206.5146815763982,113.01831525486253,69.39582923655664,62.16343430379762
65.51962119784628,134.19566191698348,104.2222478243817,203.35652503187103,113.00188962955183,69.17564779554449,62.090470733199254
65.48229556277445,132.99032975709233,103.44416676099438,200.08354289127888,112.93082829578168,69.05643351435363,62.0141661397646
65.46221661526353,131.8374653068043,102.65831896987295,196.70183035020955,112.80529893111907,69.03835766126114,61.934652137136986
65.45885830228602,130.7359865245509,101.86607491499647,193.21820111392591,112.62573795115878,69.12102155620563,61.852066883737535
65.47171721349666,129.68464963768625,101.06874753994153,189.64006173409928,112.39285139447713,69.30343963872573,61.76656229705231
65.50031290318988,128.68202192850904,100.26767225894093,185.97528175430412,112.10757531364717,69.584028895202,61.678336519977876
65.54419188789322,127.72645518167532,99.46423776102027,182.23208378204131,111.77102023270088,69.96060554274727,61.587649806017154
65.6029486212618,126.81605609658008,98.6598570546434,178.4189605918926,111.38444035413723,70.43038364819333,61.494802418379535
65.6762268718568,125.94866834248946,97.85594485917537,174.54463073123407,110.94923295392448,70.98998527463252,61.40010380082026
65.76368432673424,125.1218876645118,97.05395627622188,170.61804213566052,110.4669335495778,71.63549672246764,61.30386615340827
65.86495434128678,124.3331030878164,96.25545516375735,166.64840544805818,109.93919033724046,72.36258493678251,61.20641423371082
65.97964221844923,123.57952880747656,95.46213981268494,162.6451956311369,109.36774434554755,73.16662603634512,61.10807977294535
66.10734503118016,122.85821140879274,94.6758125159301,158.6180797599492,108.75443084565714,74.04277961750518,61.00917570383131
66.24765228413101,122.1660362002615,93.89832900995238,154.5768070517074,108.10117762997449,74.98600771052689,60.90998213298458
66.40011686969234,121.49975208371107,93.1315424081745,150.53112843172565,107.40998071883035,75.99108881028464,60.810764640640635
66.56423213442874,120.85600068367762,92.3772389660426,146.49076721128608,106.6828764376514,77.05264087374411,60.71179927946978
66.73943959795187,120.23133811854102,91.63707875067725,142.46540155532986,105.92194070741128,78.1651250622321,60.613368729690976
66.92514375336759,119.622275641446,90.9125553832188,138.46461292055795,105.12931179995488,79.32282528489318,60.51573672688993
67.12070104005382,119.02535462113994,90.20496758029225,134.49779933907428,104.30719731665815,80.51983544069309,60.419137171363644
67.32539221079611,118.43721283640441,89.51538799483127,130.57408909184318,103.45784541700425,81.75007770374354,60.323787346143206
67.53841951642016,117.8546013729233,88.8446287151315,126.7022933427404,102.58350798165243,83.00733622716122,60.229895539435674
67.75894339023024,117.27436984955547,88.19321803107115,122.89089892234405,101.68643093601895,84.28527778242783,60.137642715765516
67.98611978562927,116.69346209399245,87.56141686794346,119.14805726603107,100.76886913957046,85.57746690178489,60.04715852205009
68.21909937870275,116.10894860160158,86.94929300566947,115.48154479408343,99.83309267438815,86.87741846601413,59.95852144072173
68.45700653286518,115.51808299694224,86.35681626618722,111.89872494289278,98.88136993113432,88.178697146684,59.87177883151888
68.69894238842207,114.9183413861572,85.78392073166897,108.40653395062822,97.91595905049051,89.47500492241444,59.78695512734044
68.94401441054003,114.30744040807596,85.23055438692646,105.01146337237614,96.93913819934951,90.76021274702133,59.704038870897634
69.1913511581472,113.68336745964498,84.69676452985156,101.71951601263814,95.9532449496196,92.02837404164681,59.622980638387595
69.44008443895834,113.04441888459922,84.18277969766207,98.53615591148586,94.96067281259478,93.27376811343677,59.54372658797707
69.68933281675415,112.38920622092074,83.68901463113062,95.46628131550423,93.96383433675176,94.49095423342293,59.46626071685051
69.93821377598688,111.71662056392205,83.2160115616952,92.51421640322947,92.96515755312826,95.67478872264708,59.390613356951135
70.18585946731297,111.02578615337133,82.76438752665028,89.68369648674422,91.96714502927274,96.82040469952132,59.31684028906909
70.43140385127792,110.31603462577749,82.33481178656936,86.97784394895325,90.97243348415888,97.92320388660123,59.245011789842074
70.67395678918555,109.58689979086857,81.92797982230579,84.3991667325491,89.98378795647962,98.97889068828634,59.17522322347496
70.91260523796592,108.83811376702192,81.54456219601472,81.9495958926715,89.00405796596111,99.98351350831642,59.107598086255216
71.14644662388649,108.06959909360445,81.18516263165144,79.6305261057683,88.03615343448126,100.93346328592075,59.04226544606512
71.37461474503164,107.28146820043789,80.85033298923767,77.44282012181176,87.08302965157897,101.825433046654,58.979337453874145
71.59627285616946,106.47403315393176,80.54062885558587,75.38679336325352,86.14764180449895,102.65638168837054,58.91891900091956
71.81060352232338,105.64780417290079,80.25663483113708,73.46222761478658,85.23287941097853,103.4235328937136,58.86113680114331
72.01683122646978,104.803458478167,79.99895074612516,71.66842872746086,84.34152065521545,104.12441086029041,58.806145601273705
72.21425951456281,103.94180925065727,79.76823454978214,70.00428648830798,83.47621338229504,104.75689266889722,58.75410177031839
72.40227800298833,103.06383325855728,79.5653410260183,68.46829633044158,82.6394519423607,105.31924461556753,58.705141864733434
72.5803352677911,102.17075890527778,79.39143075068785,67.058553700324,81.83353094117702,105.81011878648995,58.65939556377509
72.74791696688423,101.26414590229888,79.24793787983596,65.77275790177747,81.06049650931686,106.22851301672144,58.61701112250707
72.9045554143827,100.34591752841585,79.13644999767415,64.60824515435407,80.32212582203454,106.57371264698719,58.57815509046756
73.04984933095399,99.41836531023772,79.05859619849831,63.56203421445578,79.61993226651153,106.84523314165307,58.54298843435509
73.18345793041003,98.48412722176134,79.01596217145998,62.63085081575405,78.9551638991901,107.04278538758268,58.511652255016585
73.30507128758317,97.54611764401041,79.01001486622847,61.81112569072534,78.3287832694592,107.16627879744712,58.48427351389675
73.41439273417598,96.60742474774155,79.04204206207145,61.09899690564092,77.7414591750669,107.21584489989685,58.460965607528145
73.5111504788683,95.67122612699728,79.1131233035361,60.49033759687024,77.19359536607902,107.19184224778151,58.44180781805725
73.59511242327022,94.74075241247698,79.22412129078404,59.9807907887606,76.68537099008627,107.09483374178359,58.426826065167674
73.66607676905184,93.81927302889031,79.37565970304182,59.56578549986895,76.21675152646297,106.92556846101668,58.416002596310584
73.72385331281735,92.91006137811387,79.5680751323741,59.24054170944046,75.78747253744609,106.68498843259275,58.409303612196894
73.76826617851103,92.01634776475952,79.80136865922853,59.000091819322016,75.39704182735413,106.37423851527065,58.406688292341904
73.79917345495885,91.14130339334515,80.07518325677968,58.83932285152562,75.04478741275636,105.99465136117338,58.40809017094543
73.81647142615851,90.28805438483329,80.38879914026,58.753012520781596,74.72991527225254,105.54771156279132,58.413404059965316
73.82007611197113,89.45967716286893,80.74112164938855,58.73584411066298,74.45152436785976,105.03502101596855,58.422505117317776
73.80991531283762,88.65915344801908,81.1306590939706,58.78242274092201,74.20857894344674,104.45827428338168,58.43527826054673
73.78595630263324,87.88931362914651,81.55551873494326,58.88731426363341,73.99987762163674,103.8192370283908,58.45161988794805
73.74824421316768,87.15279497225323,82.01344439613264,59.04508861938342,73.82404975442645,103.11972412908554,58.471415336521396
73.69690980019242,86.45200464559578,82.50187674821632,59.25033876396605,73.679576601752,102.36158813071616,58.4945290381576
73.63214955830614,85.78907203869183,83.01799353642973,59.49768003096425,73.56481080381296,101.546727638393,58.52081931676198
73.55421292927734,85.16580598110257,83.55872390887848,59.78176254342782,73.47798401508233,100.67710362278338,58.55014799781198
73.46340386155214,84.58368418291039,84.12077246707348,60.09731329516498,73.41722035816538,99.75474066675639,58.582363145387774
73.3600717938289,84.04386726554223,84.70066689288821,60.439183528366364,73.38055943611059,98.78170956157825,58.617277526736665
73.24458315472063,83.54719958139768,85.29479830460645,60.80236891865195,73.36596740049627,97.76011804270996,58.65467555871978
73.1173028980022,83.094185851818,85.89943332669377,61.18200711011624,73.37133579029557,96.69214803044201,58.69434137834864
72.97861568331685,82.68497899814857,86.51072345624436,61.57338865634183,73.39450873633707,95.5801378524303,58.73607049322383
72.82896749053172,82.3194163830885,87.12474198594403,61.9720074177216,73.43335907061658,94.42664598356248,58.77965252443377
72.66887949753162,81.99710483050742,87.73753407145229,62.373630566032425,73.4858633576359,93.23444896369452,58.82485410085925
72.49892395363895,81.71751613278711,88.3451451576791,62.77434381432199,73.55012146182604,92.00650384911881,58.8714261754351
72.31970594459393,81.4800452699781,88.94362843346327,63.17056838877047,73.62434681264403,90.74592053554952,58.91911884899424
72.13189259823767,81.28402233756637,89.52906457979775,63.5590799961462,73.70689310033715,89.45593978478647,58.96767499635799
71.93626792902198,81.1287027913687,90.0976074499344,63.93702611850214,73.79631905348717,88.13989600930817,59.016809842448644
71.73375142254669,81.01324350564774,90.6455292079196,64.30191157246598,73.89142326177704,86.80117198825836,59.066209801503284
71.52536702073638,80.93666428376027,91.16923610818743,64.65155571730949,73.99121513325572,85.44316401087549,59.11555738691564
71.31221142025008,80.89782150124951,91.66526100947442,64.98405940334207,74.09487114735458,84.06925763545618,59.164549489059894
71.09545000125847,80.8954165523969,92.13025886348478,65.29780690859631,74.20172562379769,82.6828025467024,59.21288622492478
70.87631061948527,80.92801880374839,92.56101408818617,65.5914864142245,74.31127383756791,81.28708216433289,59.260251685687145
70.65604844283801,80.99407592632005,92.9544462991176,65.8640950604655,74.42314303706873,79.88528879502715,59.30631917513537
70.43590774179985,81.09192312096803,93.30760920055603,66.1149252239383,74.53704009852557,78.48052280643753,59.3507762296082
70.21711797698848,81.21981147504206,93.61770436505155,66.34355018883089,74.65273038165206,77.07581544672198,59.39333474021273
70.00091086716837,81.37593938196558,93.88212720654181,66.54980280852213,74.77007349681911,75.67414639963926,59.433714783273864
69.7885137441983,81.55845393162326,94.09852086878882,66.73372921589151,74.88906795083463,74.2784360791649,59.47163300827368
69.58111631843032,81.76542369381505,94.26480081842847,66.89553226269369,75.00984509583434,72.89153267649627,59.50682312245118
69.37985734053393,81.99482304359836,94.37915288716624,67.03554965982032,75.13262288085251,71.51622082036005,59.53906946817422
69.18584831202854,82.24454964174512,94.44003548905538,67.15429113024706,75.25767449194244,70.15523858737106,59.56821422620952
69.00018813220223,82.5124471610587,94.44619367327702,67.25249510084963,75.3853300677164,68.81127156940975,59.59413749897765
68.82393404406037,82.79630928617428,94.39666206040101,67.33114428099147,75.51597470650827,67.48692838816194,59.61674928813929
68.65805990460551,83.09389001814598,94.29074312720545,67.39143614742696,75.6500164710464,66.1847290762,59.63601105451086
68.50344632136137,83.40294478190258,94.12797975799944,67.4347446320922,75.7878520974859,64.90711306808522,59.65195458280701
68.36089675543614,83.72127408727049,93.90814831485332,67.46258455391373,75.9298567513644,63.656444198209506,59.66466764264471
68.23113829306241,84.04672981611347,93.63126932038419,67.47656451188544,76.07637356598612,62.43501068651835,59.6742656080696
68.11479626730531,84.37719323074985,93.29760705599374,67.47832780355198,76.22767573764551,61.2450515776864,59.68088525637655
68.01238502269318,84.7105697436063,92.9076491947509,67.46950930748496,76.3839191571669,60.08881098165288,59.68469837345822
67.9243433711505,85.04481700898961,92.46209897815596,67.45173183266489,76.54512104895112,58.96856624507943,59.68591091548213
67.85107398757356,85.37796941243435,91.96190542294747,67.42661980138057,76.71116984326369,57.88659925488336,59.684736550883116
67.79293700295229,85.70812548074194,91.40830249396434,67.3957898153154,76.88183546514406,56.845149190932815,59.681376556185356
67.75021285443988,86.03342070644494,90.8028120601336,67.36082220143804,77.05675596322047,55.84638975097981,59.676034634532364
67.72308341617621,86.35202893097016,90.14721162020012,67.32324757157622,77.2354184983985,54.89242060703868,59.66894641871379
67.71164674784359,86.66219043272933,89.44350331591592,67.284547491001,77.41716847344568,53.985240265913006,59.660382619501135
67.71593458879097,86.96222679782198,88.69390347443172,67.24613700082453,77.6012442171433,53.126696247499915,59.650625825229554
67.73590476886955,87.25053078856696,87.900834041003,67.2093272492128,77.78679902376088,52.3184377323358,59.63996016500227
67.77142892393255,87.52555602458713,87.06689199610383,67.17530957221327,77.97289379665459,51.56189162345649,59.628688693797876
67.82230930668307,87.78581496461884,86.19480879982915,67.1451824817628,78.15849210317589,50.85825463570161,59.6171454412005
67.88830909307124,88.0298734254351,85.28743345602759,67.11998291454903,78.34249208778414,50.2084784668912,59.605676719025745
67.96915327018829,88.25634509867024,84.34774061266968,67.10067805206859,78.52377920993185,49.61324612564898,59.59461633002612
68.06449986152732,88.46389931529184,83.37882594927953,67.08812961258552,78.70125245569955,49.07296240278622,59.584288727659
68.17392110965245,88.65127854467681,82.38386720829835,67.0830711828823,78.8738150687657,48.58776645365978,59.57502896699403
68.29691000927217,88.81730740637639,81.36607541680512,67.08610956299049,79.04037389739993,48.1575425460271,59.56718078147212
68.43288504228833,88.96087954957494,80.32867090152267,67.0977245428015,79.19987533557556,47.78190960226973,59.561063827668725
68.5811716700377,89.08093022037374,79.27488281070536,67.11824938345656,79.3513440914755,47.4602032339073,59.556941683796964
68.7409785817919,89.1764320428331,78.20794116242129,67.14785283187966,79.49388251715506,47.19147866676064,59.55501924186704
68.91139826513039,89.24644976601124,77.13105333308059,67.1865545499919,79.62664408968851,46.9745422035021,59.55545823234808
69.09142879209655,89.29022883135016,76.04739442214209,67.23426877207568,79.74882781606347,46.807988773750054,59.55837793590254
69.27998478650692,89.30724956208387,74.96012349630007,67.29083702806322,79.8597094291542,46.690222239124715,59.56383761046927
69.47588799625764,89.29723491345123,73.87239279492437,67.35603072758808,79.95867587562208,46.61946150212927,59.57183388200201
69.67787415997033,89.26016894111306,72.78732288024118,67.42954556103835,80.04523119230159,46.59375817302865,59.58232994879489
69.88464323625173,89.19634384541718,71.70797023836845,67.51101147551638,80.11899628816136,46.61104036405009,59.595286434691594
70.0949167272445,89.10637649936267,70.63734310116986,67.60000822519437,80.1797342382011,46.66915582020383,59.61066244635279
70.30745200959154,88.99115880626886,69.5784724817359,67.69606198018684,80.22737184401933,46.76588234507774,59.628403667754085
70.52102363790439,88.85178711516788,68.53446901900152,67.79863027026346,80.26197604067855,46.89891947892262,59.648453129323585
70.73442056522322,88.68952604713662,67.50851568158517,67.9071110700968,80.28370578145197,47.06589509610635,59.6707794754073
70.94647416761957,88.50580380709052,66.50383428198722,68.02088071002017,80.29278772061649,47.2643877314316,59.69538445879037
71.15608166998662,88.30220259343201,65.52366702003603,68.13931745215025,80.28952210070302,47.49193995371702,59.72227774661972
71.36219668128403,88.08043291056507,64.57124891831563,68.26178400297088,80.27428210292491,47.74606201491669,59.751451752525185
71.56380184562569,87.84230745783296,63.64974461054903,68.38759636578885,80.24748518689819,48.02425658224388,59.7828894434021
71.75988811777258,87.58971537072125,62.762181730431365,68.51601629473498,80.2095642296169,48.324070337719945,59.81659296614572
71.94944216033814,87.3245785187165,61.911439833780186,68.64626729540929,80.16097134096096,48.64313060766445,59.85259177513637
72.13143090817546,87.04879127143715,61.10029891684694,68.77754472418317,80.1021967379283,48.97913744271939,59.89092140090838
72.30478336370557,86.7641782727781,60.33147541651964,68.90900674591805,80.03376229267727,49.329830456563776,59.931610304368334
72.46838855958639,86.47249109234608,59.607598809219105,69.03977197452795,79.95619854151407,49.692961559819636,59.97469684839774
72.62112485248254,86.17541271819421,58.931171637812334,69.16894475261985,79.87005636163249,50.066282410857475,60.020246162427824
72.76190106040661,85.87453291746408,58.30455475900729,69.29564147147548,79.7759595410106,50.447536750275944,60.06833504667447
72.88967352248083,85.5713069418727,57.72995057782162,69.41898413463632,79.67463715223474,50.83444951788941,60.11902309664002
73.00343995894822,85.26703125364078,57.20935263461292,69.53807262308788,79.56690001069954,51.22472367299823,60.17234763079265
73.10224781345693,84.962839521675,56.74448363628459,69.65197452669759,79.45360361375195,51.616063645876785,60.2283403194671
73.1852303650337,84.65970196620579,56.33676799062228,69.75975204087187,79.33564380728923,52.00621829919918,60.28702887865093
73.25163529841394,84.3584336781912,55.987350808337794,69.86050365151335,79.21396562149731,52.393009308396415,60.348412066811846
73.30081850812586,84.05972960098397,55.69712288772006,69.95338289796886,79.08954240477776,52.77432738882792,60.41244004127141
73.33222959692894,83.76420923345032,55.46671094230501,70.03759374384688,78.96333711701352,53.14811374314682,60.479025617432605
73.34542503280935,83.47243684305847,55.29644744083905,70.11239575575243,78.83630549366642,53.512352831953656,60.5480663740237
73.3400943488623,83.18491879219972,55.18636143225431,70.17712623670656,78.70945588499649,53.86508471366997,60.61944261269819
73.316058768959,82.90210203542472,55.136195338851486,70.23120800074268,78.58389650131124,54.20442341920383,60.692993509778795
73.27324073823954,82.6243791910687,55.14541422658137,70.2741315601345,78.46080992244491,54.52856612598676,60.76850870718147
73.2116457625113,82.35209161713253,55.21319511413821,70.30544986876049,78.3413779176962,54.835792357034585,60.84575274623985
73.13138160925641,82.08552326238556,55.33843744321903,70.32481273259751,78.22671534102953,55.12445884260705,60.924492076826766
73.03268548421566,81.82488403628138,55.51983167209347,70.33200405533954,78.11784377742366,55.39299242640521,61.00449282985054
72.91591919034688,81.57029568804475,55.75594736697297,70.32693457885735,78.01569017322255,55.63988056569178,61.08550506846356
72.78154284468614,81.32179293433671,56.04526768685546,70.30959844689511,77.92108211932148,55.863660057945694,61.167269475996655
72.63010353281535,81.07932870983794,56.386160537807264,70.2800355980866,77.83475300796032,56.06290726084802,61.24954482325459
72.46223828025973,80.84276734828602,56.77684230702966,70.23832283126478,77.75738323281108,56.236235973332235,61.33211940393992
72.27866133553992,80.61188180789975,57.21537592203613,70.18457824449546,77.68964354992633,56.38231653474961,61.41479196995982
72.08012930421873,80.386386428892,57.699686614424444,70.11895115820855,77.63218674509267,56.49992395505815,61.49735329337608
71.8674135391127,80.16599329294365,58.227558218682795,70.04159872095951,77.58559887765425,56.58799204172107,61.57959877096699
71.64130516761207,79.95044298363183,58.796612250420615,69.95267859189093,77.55036718208895,56.64564169551612,61.66135571407234
71.40263619302827,79.73949641855478,59.40430455512745,69.85236989842825,77.52688617712961,56.67218665860144,61.74248610078213
71.15228050762371,79.53292049063275,60.047948258857275,69.74089494043854,77.51546446803884,56.667139681767345,61.822861645072436
70.89113530740423,79.33048326280714,60.72473297694268,69.61851345396376,77.51629877250578,56.630219423397136,61.9023490684208
70.62011724493863,79.13194148738678,61.431726375502656,69.4855021225523,77.52943328239402,56.561341118194115,61.980826981881386
70.3401819917471,78.9370153421888,62.16588982998484,69.34214838379832,77.55473989381368,56.46058897426244,62.058205918882486
70.05233472652618,78.745375844446,62.92412975764377,69.18875626761037,77.59192711015778,56.32818630986954,62.1344177947234
69.75761087663709,78.55667132423359,63.70334834590288,69.02563837539864,77.64055450355863,56.16447764574143,62.20938749174193
69.45705356761947,78.37058140385363,64.50044968604759,68.85309113243382,77.70002767387182,55.969923594798644,62.28302205414641
69.15172325481758,78.18685533916077,65.31231155665141,68.671383648967,77.76957649344665,55.74509926081068,62.355219886404846
68.84272742345495,78.00532276177157,66.13577084948675,68.48077740233242,77.84824577361194,55.49069255932665,62.42586946272706
68.53122448038708,77.8259032741455,66.96765006962666,68.28154933424393,77.93492489889837,55.20750805781511,62.4948253090061
68.21839138800131,77.6486148348231,67.80479969810114,68.07398725071218,78.02840501411961,54.89647145391703,62.56188852139356
67.90539633052639,77.47355544850545,68.6441199482026,67.8583699951373,78.12742357745827,54.55862094231515,62.626818612036814
67.59340530710345,77.3008557300129,69.48257337697306,67.63496668696831,78.23069290160687,54.19508964945057,62.68936142408308
67.28359580379666,77.13062191461232,70.31721707260188,67.40406046902383,78.33694807945643,53.80710045108359,62.74925652573195
66.97713992901802,76.96289810966525,71.14523807920999,67.16596662970872,78.44500731505416,53.39597856786186,62.806221792094846
66.675167489844,76.79768113012628,71.96395453631175,66.92102668132388,78.5537961754065,52.963159474277404,62.859951629920786
66.37875206806196,76.63498479030616,72.77078311663693,66.6696034580333,78.66233214491274,52.51017304825523,62.91014657397668
66.08893209586105,76.47490614774887,73.56321001734123,66.41210186582674,78.76971381747373,52.03861563687255,62.95654278358715
65.80672761696087,76.3176767465797,74.33879221743348,66.14899158750319,78.87512768642414,51.55014105826453,62.99890814793791
65.53312098352099,76.16371243665083,75.09517506159314,65.8807973203988,78.97783947184067,51.04648536456266,63.037020125333115
65.26902633040432,76.01363234348948,75.83009607326507,65.60806735418869,79.07715655823155,50.52949919567556,63.070663050228845
65.01529039593625,75.86821362779393,76.54137436455042,65.33136018320457,79.17239716370632,50.00114737783278,63.09964719929044
64.77272123588216,75.72831177575328,77.22691246426713,65.05126282538423,79.26290049749606,49.46347821267609,63.12381588323105
64.54210101202068,75.5948015775899,77.88472464234006,64.76841026635981,79.34805827958188,48.91861402080406,63.14302583231158
64.3241606373523,75.46855980872682,78.51297184720613,64.48347385731826,79.42731910995845,48.36879353796366,63.157129282684025
64.11954190528166,75.35046515392963,79.10997374064651,64.19713318231075,79.50015906692089,47.81642328319257,63.165986752154446
63.92878371476667,75.24138508820417,79.67420729796393,63.91007659056933,79.56606547293596,47.2640835974327,63.16949515459978
63.75233478279092,75.1421580025877,80.20433187661429,63.62303954981348,79.62456297672071,46.714498898185944,63.16759270306938
63.590561554637425,75.05359503768653,80.69923747709497,63.33683302184835,79.67524566368942,46.17050443064492,63.16023757248508
63.44373790629934,74.97648942460984,81.15806283100407,63.052328686413475,79.7177687908058,45.63500780016374,63.14739935429608
63.31204420906896,74.91159954868316,81.58016369991361,62.77043157819121,79.75181025034134,45.11093508695287,63.12908572745716
63.19559267497124,74.85960965542525,81.96507774778415,62.4920750777656,79.77704862691213,44.601169120652294,63.105373795719515
63.094450469084514,74.82110500527396,82.31253000184206,62.21822157137154,79.79317930201991,44.10848955707012,63.076408183598396
63.00863178974649,74.79657071010713,82.62245858167928,61.949839090077,79.79993857963626,43.63552036148553,63.04237913721286
62.93807618421548,74.78638455168777,82.89501028327291,61.68786169522925,79.79710533853172,43.184689201262394,63.003519430965596
62.88264749597611,74.79079929220127,83.13050128640234,61.43316451190894,79.7845187966044,42.758195762639595,62.96011919261773
62.84215015020025,74.80996976262463,83.32938485843853,61.186564180356854,79.76217427745276,42.35798603213656,62.91252293366855
62.81632998737842,74.8440473500627,83.49224632135308,60.948821657407805,79.73036028717918,41.98573939596206,62.8610978307631
62.80485360610259,74.89325846346242,83.6198032965246,60.72062687708302,79.6897217337677,41.642871235639625,62.80620398578027
62.80730162649447,74.95789003942859,83.71290563579157,60.50258219028112,79.64121042717707,41.330538451507856,62.74819471266668
62.82319898020744,75.03821533187416,83.7725609247962,60.29520831318016,79.58599351400268,41.04963517379421,62.687432653796044
62.85205111817123,75.13443496706515,83.79997816745407,60.09896020361899,79.52538363161293,40.80078483401414,62.62428615256049
62.893344771444326,75.24665932489067,83.7965811438164,59.9142249468575,79.46078566748598,40.584349147591446,62.559101440738004
62.946523461233966,75.37490217257057,83.76396727021276,59.74130058312646,79.39363432225005,40.40046126893473,62.492184026204235
63.0109776915749,75.51905269899538,83.70383684005947,59.58038230963625,79.32533048308126,40.2490615123169,62.42381123610299
63.08605685048881,75.67883543468922,83.61793737434499,59.431574805209415,79.25720698797117,40.129909945254575,62.35425360065455
63.17107296207217,75.85378961684202,83.50804583196025,59.294913554141324,79.19052604750918,40.04257641392616,62.28377301651164
63.26528059798574,76.04327881501631,83.3759657047191,59.1703658558061,79.1264723889761,39.986428915192214,62.21260564895556
63.367856735687376,76.24650958980028,83.22350225231713,59.05781273646294,79.06611911332438,39.960637704271555,62.14096329517109
63.47791163967081,76.46253870869546,83.05241500693916,58.957037350519855,79.01038889685312,39.964193619124934,62.06905630108225
63.59452456173315,76.69028787491025,82.86437775284496,58.86773347735807,78.9600447016943,39.99592828617347,61.997102787231455
63.71676514802577,76.92858941046664,82.66096526194518,58.78952048690237,78.9157062282971,40.054540844220504,61.92530662392924
63.84368930924724,77.17623458923693,82.44365336121,58.721943239132905,78.87785485962897,40.13864362538619,61.85383372481814
63.97435322135418,77.43198247813184,82.21380841842334,58.66445992210169,78.84681166145397,40.24680826862756,61.78281882989377
64.1078703243459,77.69453431252559,81.97266994695443,58.61644474096376,78.82271885738658,40.377580989095954,61.712389088617556
64.24346161107292,77.96251294433056,81.7213504743633,58.577215511673394,78.80555254270809,40.52946936315743,61.642666417210876
64.38044950365887,78.23447577186815,81.46085271608241,58.546060050802055,78.79514730740125,40.70092839563321,61.573745456137345
64.5182172270149,78.50894785290504,81.1920757453209,58.52223856283752,78.7911986243973,40.89036138602539,61.50568560531136
64.65618538210425,78.78443728889256,80.91579767652641,58.50498012461559,78.79324938169596,41.09612836662241,61.43853868072271
64.79382474984634,79.05942864061323,80.63265720008731,58.49350208786074,78.80069801099695,41.31655593663676,61.372381052713706
64.93067890575428,79.33239909538754,80.34315521986963,58.48704218967753,78.81283767410022,41.54995884731431,61.30731201680928
65.0663606713884,79.6018818091296,80.04766488377106,58.48486987207278,78.82888964292569,41.79467681552453,61.24342812796343
65.20052708619404,79.86652748839003,79.74642946779039,58.486276905556046,78.8480042475196,42.04910540331509,61.18081140510726
65.33287015799465,80.12510705396362,79.43955661810975,58.49058607828235,78.86925873509928,42.311698894987366,61.11954004074883
65.46313294697438,80.37646962277708,79.12703450941179,58.49719205421422,78.89169472150064,42.58094864358681,61.05969183755743
65.591117430471,80.61950982615582,78.80877006462272,58.50559276828658,78.91438166822437,42.855359405444844,61.00132310345675
65.71666489251666,80.85316513175876,78.48461819517318,58.51537630171784,78.93645119461054,43.13344264270077,60.944450118614206
65.839640603883,81.07641753900579,78.15438593240523,58.52618335695901,78.95708515091943,43.41372641904616,60.88906352949709
65.95995582390556,81.28827743415927,77.81784610737292,58.537682666810085,78.97549227714792,43.69476381392142,60.83515949871823
66.07760275996704,81.4877741788047,77.47480856543658,58.54956929462657,78.99089532998943,43.9751278307078,60.782747416038305
66.19265485403388,81.67399759621566,77.12523024329874,58.56156822957536,79.00251401429715,44.253408139000676,60.731828854246466
66.30523353638753,81.84618252185999,76.76928334905675,58.573426111271225,79.00953523326821,44.52823702547973,60.68238403509081
66.41548280712757,82.00376743338802,76.40734714006896,58.58490003632234,79.01109810211726,44.798340347539984,60.63439121703267
66.5235675521034,82.14638750487715,76.03997244806982,58.595762049581545,79.0063304875655,45.06257178685036,60.5878559513168
66.62966916817702,82.273842640708,75.66786350673776,58.60581147420692,78.9944242794126,45.31990935467966,60.542813589128606
66.7339576650136,82.38608367217785,75.29186238820073,58.61487025178289,78.97468457475887,45.5694440760546,60.499311368920345
66.83655983580503,82.48319777137633,74.91291021861075,58.62276150941717,78.94652005480232,45.810389888763254,60.45740500478655
66.93755434393546,82.56536506202258,74.5320039368874,58.629301767200054,78.90941510464252,46.04209853292534,60.417174057599745
67.03698769579113,82.63280716525416,74.15019204745833,58.63432297421275,78.86292943883578,46.26404997533339,60.37872430845636
67.13487547028191,82.68576347998786,73.768607577504,58.63769777036069,78.8067138952784,46.47582496104055,60.34216239571965
67.23117813375626,82.72449145331579,73.38848247133073,58.63933589299781,78.74050292366105,46.67709736038158,60.30757114295529
67.32578625832309,82.74925676464804,73.01111420067711,58.63916275101523,78.6640793230001,46.86766343146688,60.27501758661589
67.41854692237165,82.76030123912697,72.63781862099965,58.63711819750805,78.57724603423443,47.04747402998365,60.24458132832973
67.50930881355073,82.75781566339695,72.26990647980044,58.63318356804899,78.47982422489562,47.2166300433534,60.2163626695493
67.59793874665156,82.7419413796021,71.90867675114139,58.62740174658918,78.37165431857427,47.37535125364857,60.19046148610498
67.6843080488346,82.71278402652122,71.55539670437005,58.61986539579285,78.25257544987585,47.523952097248475,60.16696102350726
67.7682884393592,82.67041100736992,71.21125997894404,58.610695875156416,78.12239920873834,47.66282771001912,60.145941591621636
67.84976967771037,82.61484037799616,70.87734522300342,58.600043461072275,77.98091457143532,47.792431466358146,60.12750338420823
67.92866838695313,82.54605047449017,70.55459306619858,58.58810030553459,77.82792879056255,47.91324428280431,60.111764904673535
68.0049110870212,82.4640098653648,70.2437904546063,58.575097380917946,77.66330345711451,48.0257624788913,60.098843517225866
68.07841908605207,82.36869495003604,69.9455466538865,58.561280916779126,77.48695561056974,48.130515989948194,60.08885329090125
68.14912237493617,82.26008092232928,69.66026724661228,58.54688833590094,77.29884595866596,48.2280859255672,60.08192456784183
68.21698231607324,82.13813513203498,69.38815287759073,58.53213775081359,77.09899194132393,48.31909020801615,60.07821002114872
68.28198601494407,82.00283879983265,69.12924495152828,58.51722385623149,76.88750564755586,48.40414782765123,60.07785951495469
68.34411671421287,81.85421482570577,68.88349680122644,58.50230681769659,76.66461793177135,48.48384941624248,60.080992692533705
68.40333778165238,81.69232619657964,68.65081504364909,58.48750095645257,76.43066214300114,48.55874299257634,60.08770230644234
68.459601910864,81.51725012548161,68.43105411765328,58.47288111273211,76.18603792973424,48.62932344285894,60.098077318292304
68.51285584420849,81.32906857636148,68.22400849934175,58.458499029442585,75.93119251572648,48.6960139133712,60.11220679321482
68.56302066249644,81.12790264767082,68.02944382833033,58.44438341473488,75.66662286706175,48.75914344258418,60.130155324174204
68.60996917580894,80.91396367754994,67.84714734317072,58.43052386835119,75.3928694902446,48.81893894133453,60.15194451751478
68.65352618717017,80.68757257888105,67.67694860896006,58.41686999037278,75.11049316364934,48.87554158472518,60.177567005541874
68.69348098426583,80.44915344999,67.5187096229311,58.40335931688354,74.82006464938864,48.9290300633865,60.207010942431424
68.72958432836376,80.19924299598323,67.3723285053482,58.38994460487348,74.52218301758923,48.97942593876327,60.24025864454595
68.76152979323571,79.93851010372389,67.23776552981566,58.37658922108257,74.21749298019665,49.02668680094376,60.277265244482344
68.78895076755471,79.66774433789658,67.11505096872229,58.363242126112794,73.90667815747291,49.07071362813081,60.31795393237978
68.81145203382849,79.38780924429395,67.00425865018995,58.34983159596342,73.59045505898499,49.111375626731764,60.36223473365731
68.82864941995147,79.09959297596703,66.90548416129533,58.336291289603246,73.26959083416551,49.14852646484327,60.410013612513424
68.84017838321466,78.80397624543654,66.81885913614957,58.32258503325351,72.94491808595915,49.18199589357477,60.46117335785582
68.84567614005816,78.50181212928526,66.7445731545387,58.308699761975156,72.6173136207315,49.211569053599824,60.515549953428184
68.84477909236291,78.19390724801855,66.6828576571075,58.29462746729671,72.28765307714015,49.236969704569724,60.572930649510425
68.83715066837496,77.88101268616674,66.63393597710082,58.280372193358346,71.95677751475502,49.25785123990932,60.63306429078169
68.82250355897433,77.56384592955142,66.59798748732355,58.26597421904454,71.62548376763078,49.27379634592683,60.695656744287376
68.80058500293713,77.24313339369759,66.57515737142377,58.251513814635715,71.29451597434978,49.28432937196005,60.760350387085474
68.77114326342137,76.9196276684545,66.56558587404544,58.23708874182862,70.9645402487784,49.288944894606736,60.82671973451457
68.73391673238699,76.59407994048091,66.56941067962542,58.222802785979674,70.63612410978858,49.28714876895855,60.89430314767102
68.68865999562773,76.26719647606197,66.58674744194221,58.20878798156263,70.3097592270995,49.278493618169726,60.962642760707816
68.63517441262853,75.93961132621888,66.6176880318386,58.19523115417159,69.98592213927408,49.26259192778494,61.03129332648773
68.57330755081851,75.61187687746826,66.66231409704268,58.182366623180506,69.66511545383062,49.239120057927444,61.099806492559345
68.50293543315567,75.28445296364305,66.72068673303747,58.170445013809854,69.34785605156783,49.20783921575966,61.16772876400687
68.4239654384142,74.95768520562108,66.79280792475718,58.15972059647955,69.03464430805543,49.16862588415396,61.234622336263875
68.33635936061485,74.63179090062177,66.87860193038688,58.150467760727025,68.72596127609972,49.121479118508496,61.3000778248289
68.24013996844657,74.3068790695429,66.97795679506523,58.14298953077277,68.42229130256486,49.066495036468304,61.363700110695376
68.13536998086163,73.98299799448421,67.0907951291342,58.137592860743084,68.12412855557038,49.0038307268368,61.42509186065194
68.02214000166762,73.66016785243384,67.21710179997588,58.134555520325065,67.83194861384207,48.93368501064029,61.48386537916459
67.9005912919166,73.3383777554335,67.35688881677439,58.13412043443464,67.54617546929373,48.85630516157467,61.53967195877554
67.7709441707635,73.01757521783766,67.51014285074474,58.136514042224036,67.26718574727938,48.772000823891915,61.59221071234439
67.63349237450355,72.69767661441601,67.67678919201559,58.1419523966148,66.99535339976342,48.681141008058695,61.64120760866888
67.4885716814268,72.37858852517739,67.85666144181107,58.150620909611675,66.7310915429942,48.58414077371734,61.68639803175975
67.33654797359104,72.06021255498808,68.04946151118006,58.16265896729194,66.47485689907074,48.48146159768727,61.72753987267561
67.17784663796087,71.74243226043153,68.25472029930431,58.17817482349512,66.2271362871857,48.37362161615072,61.764437889107434
67.01298693776681,71.42511605263545,68.47178447200278,58.19726749994782,65.98844368572765,48.26119281500277,61.79694389182388
66.84257882309099,71.1081543530023,68.69983921331142,58.220022071408664,65.75931373196325,48.14479051630122,61.824936483666306
66.66730255908298,70.7914958560749,68.93794063910084,58.246486034406445,65.54027234818379,48.025079296604794,61.84831572159702
66.48791776823232,70.47514905151219,69.18502442460314,58.27665750142581,65.33181086640764,47.90278833469744,61.86702113375279
66.30529267172228,70.15916680566187,69.43989612459501,58.31049048343312,65.13440245994556,47.77870511155398,61.88104041588681
66.12040297678348,69.84364346562478,69.70123290715335,58.347894175329984,64.94854534519556,47.65363941679126,61.890388797488974
65.93428947837666,69.52872448303778,69.96760072165898,58.38871469125811,64.77477609946172,47.528376574360756,61.895085120942944
65.7480182145014,69.2146093688534,70.23746295809545,58.43271939577758,64.61363472742691,47.40363868103908,61.89515760936154
65.56267691368636,68.90154190966923,70.50917555613489,58.47960511587395,64.4656218051373,47.28006706360958,61.89066941683613
65.37938616051765,68.58981554753971,70.78100638946717,58.52901820238547,64.33118350879847,47.15823406814853,61.881724904094
65.19928438718871,68.27981315935125,71.05121352898631,58.58055866031837,64.21071117202357,47.03867239581032,61.868446492502876
65.02348818763765,67.97204226233538,71.31814924496733,58.63376748382266,64.1045237774036,46.921900786060725,61.85095646295181
64.85306891338267,67.66712264898403,71.58031624308413,58.68812455514913,64.0128359477703,46.808444485148776,61.829390319441764
64.68906436011817,67.36574718183911,71.83635498045103,58.74307166774,63.93575253842754,46.698852949643396,61.80391927421832
64.53249247251112,67.06865849741601,72.0850053339054,58.798039054362455,63.873315995017194,46.59369908422354,61.774745349909125
64.38433190882729,66.7766405094632,72.32509034353441,58.85244861997361,63.825568898228,46.49355430269278,61.7420755393639
64.24548619486067,66.49049444874098,72.55553636377711,58.905703421022416,63.792571319225104,46.39896323148154,61.706113166353134
64.11677347192122,66.21099508033998,72.77540409148797,58.957195257712755,63.774372696520885,46.31043955732306,61.66707548082463
63.998944809190476,65.9388595428897,72.98390182278123,59.00633317488598,63.7709917689259,46.22847163161362,61.625203493994
63.89269115090713,65.6747511672975,73.18038871907405,59.05255942002872,63.78242931462753,46.153512658704706,61.58074212650724
63.7986181554159,65.41929501202691,73.36437974477741,59.095333484908195,63.80867928675423,46.08595822559327,61.53391583184004
63.717217949644834,65.17306885244031,73.53553427839672,59.13410704658702,63.84970663080846,46.02614467078974,61.48493373467313
63.64886888182852,64.93657067021593,73.6936178027797,59.16832472336876,63.905412548213576,45.974383072542196,61.43401619836704
63.59384929299448,64.71019725341765,73.83846428381142,59.197453902562216,63.97562525971272,45.93099367986445,61.38140359587592
63.55233265858448,64.4942565623814,73.96996801846376,59.2210101445467,64.06011588054841,45.896303509662594,61.32733534666682
63.52436812138313,64.28899383268221,74.08809001671818,59.23855426460733,64.15860370514493,45.87062581108488,61.27203253519656
63.509881791879074,64.09459476737273,74.19284737520609,59.24968338272569,64.27073224269668,45.854273954229406,61.21571098035054
63.50870592759562,63.911162853617384,74.28429392001061,59.25405346475538,64.39604004408164,45.847619238763386,61.158603620228945
63.520599443141286,63.73870149726038,74.36252083951305,59.251427512124856,64.53395608340765,45.85113535969182,61.100955283405376
63.54523412577231,63.57711837931414,74.42766857540435,59.241703644749364,64.68381255520744,45.865386645722644,61.04299175119787
63.58216512802576,63.426233623581005,74.47991759088526,59.22491056350455,64.844845659959,45.89098849263219,60.984900081845275
63.63082165015346,63.285771265148675,74.51945512677388,59.20121273891278,65.01618169924623,45.92857753313029,60.926838951213874
63.69052998603383,63.15534832072387,74.54644772757217,59.170943587276,65.19683919711899,45.97878373331745,60.868953971596945
63.76054198998776,63.03449267859698,74.56104092425305,59.1346230609507,65.38576018603379,46.04218694224105,60.81137041355686
63.84004333495568,62.922688218298234,74.56337096050281,59.09292746440292,65.58183913656616,46.11927008796648,60.754177923375536
63.92816309736412,62.81940661596557,74.55355867679837,59.04664025572802,65.78392057580734,46.21039776288167,60.69743987741643
64.02401141192298,62.72410554459917,74.53168653336549,58.996624205929656,65.99078118104957,46.3158272516201,60.64122364391149
64.12671774952643,62.63622834420048,74.4977959036739,58.943812042262934,66.20112509894936,46.435724005113656,60.58561419232797
64.2354297746448,62.55523835829475,74.45192334209949,58.88918461831265,66.41359176607307,46.570156050880904,60.53069746891331
64.34928548231949,62.48066049532223,74.39413796738705,58.83372986770556,66.62675727433931,46.71907587714655,60.47654592272971
64.46740346267438,62.41208484281949,74.32454075122901,58.77841410731795,66.83912462394744,46.882311219623055,60.42323420890984
64.58890456569563,62.34914392786282,74.24324569698105,58.724187195799374,67.04911714407527,47.05956882871425,60.37086487964997
64.7129310858677,62.2915194626418,74.15038040553192,58.671994764354295,67.25508533537224,47.25043685295826,60.319567754475145
64.83863570878755,62.238993145116886,74.046099056351,58.622761177731036,67.45532253393527,47.45437387520938,60.269476569333854
64.96515981260842,62.191484201458294,73.93057589025526,58.577351742905485,67.6480872288232,47.670690257147804,60.220718352914425
65.09163492331412,62.14902655443643,73.80397706047779,58.536556451495336,67.83163607599204,47.89853753637903,60.17342650845382
65.21720565753546,62.11171338121126,73.66644742786828,58.50111680534932,68.00426377617917,48.13691480765509,60.1277482216558
65.34104179336022,62.07967134099791,73.51814270217614,58.47176540449131,68.16433921205845,48.38468499439348,60.0838254281418
65.46232393863454,62.053087851058486,73.35928405357807,58.44923257446768,68.31032407403934,48.64058867098648,60.04177133009966
65.58022878241448,62.032247510792494,73.1901803289728,58.4342187701681,68.44076546767965,48.90325622892756,60.001671475341425
65.6939474734939,62.017524453863345,73.01120505863078,58.427366751677155,68.55427836809568,49.17122609341683,59.963599742304694
65.8027273367554,62.009342949337444,72.82277331263408,58.42924655821287,68.64955136881379,49.44296473357141,59.927617922246846
65.90589301099716,62.00815779266155,72.6253533065794,58.44033663070383,68.72538797096063,49.716876416320936,59.89375679119157
66.00283574394612,62.01446372495978,72.41948889172977,58.46099462939902,68.78075156987491,49.99130482432519,59.862011007552645
66.09301122954817,62.0287935143516,72.20579333636562,58.49143888878937,68.81477476964903,50.264547093480765,59.83236518112691
66.17597418485846,62.05168590587958,71.98493539385778,58.53175878573843,68.8267396934817,50.534890580322774,59.8048229913783
66.2514198636886,62.08365794698199,71.75768920948913,58.58193876605339,68.81607086453916,50.800651089348484,59.77940400394024
66.31918798105765,62.12520993317538,71.52505312988534,58.64186558363067,68.7823552741078,51.060188233176255,59.75611700855955
66.37923561000277,62.17683697607746,71.28833391868393,58.71131829841176,68.72535692395918,51.31190919185227,59.734951231460784
66.43162234385622,62.23901041911022,71.04912800777156,58.789973200335474,68.64499706059264,51.55429124591995,59.715900988425005
66.4765168565258,62.312136742297255,70.80925223802718,58.877438267973126,68.5413177167038,51.78592192328279,59.698990104427935
66.51418914800347,62.396529473704426,70.57068424793766,58.97328642353682,68.41446912008111,52.00552147713249,59.684264267237715
66.54497258950336,62.49240786716534,70.33550328924149,59.07705558681237,68.26473090732362,52.21193191619745,59.67177004687927
66.56923035280549,62.599899667554375,70.10581506654185,59.1882302156499,68.09253049067316,52.40409862499097,59.66155615998468
66.58735846077992,62.71902424245877,69.88368493907716,59.30624130715872,67.89842680030397,52.581072332143094,59.65369177329075
66.59980454102538,62.849667147422736,69.67110671113767,59.430488308468725,67.6830786355788,52.74202447051744,59.64826641266645
66.60705959866678,62.99157537428662,69.46999140307807,59.56035041603331,67.4472378532423,52.88625361326414,59.645362655418786
66.60962081913574,63.14437581019738,69.28214113144158,59.69517295249608,67.19176999768311,53.0131933455234,59.64503512467709
66.60796467268817,63.30758713716612,69.10920890726233,59.834258212055154,66.91766350866993,53.12245529157051,59.64732345313131
66.60255354852143,63.480612088219054,68.95267725655123,59.976884823868005,66.62600464539855,53.21389609079291,59.65227893916806
66.59385000381627,63.66274075957776,68.81386582614655,60.1223316851776,66.31794437015877,53.2876502093412,59.65996614748164
66.58230663628984,63.85318780046552,68.69393757674845,60.269872333263336,65.99469150587753,53.34410109037521,59.670440497086126
66.56834558117156,64.05113381408852,68.59388040741612,60.41874831180014,65.65752450912868,53.38382077023743,59.68373765791451
66.55235726818108,64.25573446203016,68.51448828374392,60.56816140501447,65.30778561721306,53.407527804747424,59.69988605574835
66.53470844117761,64.46610784666856,68.45637968463063,60.71730246433201,64.94684882479467,53.41609441276882,59.71891270392271
66.51572918309819,64.68133830671425,68.42004252861261,60.86538593680999,64.57609731366342,53.410581542553025,59.74082264104474
66.49568050149863,64.90050985080286,68.40585439288235,61.01165513808788,64.19693722623387,53.3922440075356,59.76557481949913
66.47473729157282,65.12273884710228,68.414060234695,61.15537425165512,63.81082154734424,53.3624841830294,59.79308562961878
66.45301022941833,65.34717465791464,68.44474451336414,61.295845651389,63.41924217370281,53.32278830373083,59.82325414740857
66.43058394603429,65.5729824956093,68.4978260662742,61.43244715804223,63.02369498105998,53.27467825660932,59.85597327557885
66.40752992792004,65.79934214355626,68.57305692892848,61.56464653336673,62.625667812468286,53.219676520306905,59.89111267105058
66.38389464904826,66.02546034173996,68.67000075615638,61.69197947088868,62.22668468399062,53.159270766634755,59.928502808373985
66.35970224337547,66.25056676604537,68.7880023747893,61.814026567252476,61.82837018843651,53.09488394857366,59.96794778076222
66.3349833634084,66.47388790581189,68.92618311786285,61.93042314296719,61.43246921075986,53.027861059223646,60.009249039931646
66.30979442533649,66.69462967388087,69.08348123691516,62.040887123033805,61.04081999776013,52.95946083278084,60.052205838938974
66.28420332302426,66.91199580213463,69.25871087322906,62.14522548120289,60.65533019793464,52.89083394303198,60.09659720841488
66.25826994823998,67.1252260773778,69.45059211042667,62.24331527540065,60.277966958521795,52.82299065049539,60.14218088987898
66.23205734195747,67.33361380153951,69.65774498929258,62.33508844983562,59.91072779066177,52.75677339576642,60.18871644384208
66.20565897055124,67.53649797363289,69.8786765799477,62.42052764649158,59.555584905509214,52.692842331480534,60.23597871217211
66.17920032827047,67.73326393027803,70.1117733605847,62.49965140204039,59.214440645193314,52.63167130738637,60.28374150493524
66.15281167063742,67.92336127739192,70.35529244201425,62.57248536739737,58.889122123604096,52.57354953207817,60.33175732642343
66.12661028898205,68.10630971561089,70.60735777210087,62.639052683460775,58.58139116759096,52.51858627040672,60.379765668207924
66.10071187709407,68.28167777844605,70.86597517880925,62.699403175870806,58.29292892093432,52.46671677514234,60.42752056359427
66.07524377385664,68.44906039409784,71.1290624578228,62.75364524982263,58.02530316493629,52.417711615602066,60.474798980266044
66.05033268197177,68.60808552666853,71.39447419166282,62.80193888059823,57.77996682771229,52.371192050686126,60.52137933523331
66.02608368604895,68.75843832181492,71.6600079100573,62.844462474623334,57.558296495804996,52.32664414879656,60.5670249892133
66.00258044873259,68.89986603437049,71.92340373664794,62.88139065380238,57.361616184041324,52.28342354793029,60.611503663628234
65.97989918528937,69.03216023227412,72.18237123803584,62.91289502547254,57.1911700550258,52.24075713274477,60.65462310306576
65.9581056186755,69.15514524313316,72.43465666301736,62.93915313893106,57.0480765891843,52.1977564191735,60.696239524650416
65.93723012587597,69.26867851422028,72.67811018240762,62.96034513879007,56.933306004219695,52.15345002806913,60.73623594814243
65.91725331980143,69.37263860535937,72.91070615472269,62.976640027457016,56.84767458284211,52.106824247230136,60.77451028648555
65.89812807141054,69.46689450160778,73.13052411256176,62.98819874349938,56.79182689308682,52.0568522307775,60.8109917699918
65.87981574276463,69.55128394752475,73.33573604809574,62.99519957295705,56.76620628985338,52.00251332572375,60.84565539628262
65.86229369874789,69.62562421688594,73.52462937246173,62.997850038454075,56.77104580108394,51.94282284544049,60.87850725695074
65.8455338157204,69.68973958543951,73.69564905496122,62.996365035773394,56.80639671840106,51.876870783089544,60.90956176012904
65.8294952072194,69.74346946464435,73.84742085827234,62.99094257670171,56.872167176654635,51.80384461490968,60.93884580068566
65.81415183943552,69.78664856259611,73.9787544058477,62.981771052738175,56.96812988995658,51.72303579817736,60.96642225847226
65.7995194091281,69.81908638954648,74.08865409529888,62.96905316147477,57.0939003856532,51.633856450389224,60.99239320805406
65.78564535683395,69.84056843469426,74.1763322699618,62.953007787731146,57.24892921456875,51.53586704361449,61.01687131087885
65.7725824747618,69.8508663900671,74.24119458259275,62.93384734127801,57.43253079238707,51.42878808525097,61.03995267867315
65.76038708413704,69.8497326007035,74.28280032591407,62.91176971775493,57.64391497187904,51.3124919994943,61.06172094687271
65.74913796307725,69.83688151671909,74.30083242422671,62.886984271275026,57.8821838604807,51.186994405423754,61.08226700862572
65.73893732434854,69.811989360645,74.29509658822448,62.859736765155446,58.146306158116595,51.05244720711101,61.101688679301695
65.72988207486056,69.77472794922093,74.26552955682983,62.83029644751678,58.435097879457295,50.90912271435753,61.12006883710792
65.7220393607336,69.7248025251143,74.21218579022049,62.79891891522614,58.747210326746966,50.757387073464535,61.13746334179591
65.71545977940195,69.66195738158518,74.13520399970696,62.76582982305796,59.081113866187145,50.5976696725033,61.15391003633911
65.71021325387247,69.58596036159184,74.03478319328364,62.73125650740351,59.4350824808677,50.43044083000734,61.16943369659806
65.70640266464986,69.49660165659635,73.91118337402418,62.69548053042731,59.80720008806532,50.25620727776329,61.184029329750835
65.70414726856984,69.39371011047422,73.76473017770209,62.65885728023914,60.19540034783961,50.07551433845747,61.197644788837394
65.70357773778413,69.27715912808452,73.59580119008528,62.621795650216164,60.597517085698136,49.88893357103455,61.21019134958289
65.7048632151755,69.14684975204126,73.4048048155827,62.584736154021925,61.01130842007921,49.69703643155544,61.221572627739825
65.70823120149663,69.00268920503204,73.19217331117406,62.54814123262211,61.43445159232135,49.50037998608023,61.231694525084144
65.713944209806,68.84458751263968,72.95837018480606,62.51247615200314,61.864542183688656,49.29952355337648,61.24044584928575
65.72225409857576,68.67247558501582,72.70389764059303,62.47817293614191,62.299123779102075,49.09505848668447,61.24768258248941
65.73337948114929,68.48633045822329,72.42929332384323,62.44560129220317,62.735733168869146,48.88761559838198,61.25324455317374
65.74751863940142,68.2861978971398,72.13512227255974,62.41506625553722,63.17192531619828,48.67785007743514,61.25698609327088
65.76486398399423,68.0722231950903,71.82199050696451,62.386816911350316,63.605271705950145,48.46644872424632,61.258782357049846
65.78558638374443,67.84470193620699,71.49058923499625,62.36103792791527,64.03336429595976,48.254184025695054,61.258511860530774
65.80980779239835,67.60412714521416,71.14172983663957,62.33782511492574,64.45384652144617,48.04197042519904,61.25605376995093
65.8376011378266,67.35119356177475,70.7763327765129,62.31717324905713,64.86444840757324,47.83086689561018,61.25131582114353
65.86901589098679,67.08676308573325,70.39539183099446,62.298989263717026,65.2629991025033,47.6220366566789,61.24425936409994
65.90409031402089,66.81182696154441,69.99996269030288,62.28310962250351,65.64743117433157,47.41671768265876,61.23489083100788
65.94283300163474,66.52747555030068,69.59118860434538,62.26930111814809,66.01580191517385,47.21622257074792,61.22324039247905
65.98520233113949,66.23486305042157,69.17032398553977,62.25725430965475,66.36632160015176,47.0219346154496,61.20936570631113
66.03111440655015,65.93516415400305,68.73872123707066,62.246590521888535,66.69735854744768,46.83527323937016,61.193375635617365
66.08046590236346,65.62953904910219,68.29780010200109,62.236886239284544,67.00741776000756,46.657643867394185,61.175435126198785
66.13313443593695,65.31912803080576,67.84903551861547,62.22769372627058,67.29512336412333,46.490394907208156,61.155739937243695
66.18895250113488,65.00507007557151,67.39395823979547,62.21854091950351,67.55922416889291,46.33478157411546,61.13449493185356
66.2476924299526,64.68850878396998,66.93413880020957,62.20893137306598,67.79860452875491,46.19192814631343,61.111922984554454
66.30908600755956,64.37056769068289,66.47115672261882,62.19836784539381,68.0122846388287,46.062792687502565,61.08828352403878
66.37285149332057,64.05232360068503,66.00658346721544,62.18637772196952,68.19943173802129,45.94815201288805,61.06386458212275
66.43869184688782,63.73481087679511,65.54198266406696,62.17250807288636,68.35939966221773,45.84861862497385,61.038951970780836
66.50627533827812,63.41904481672246,65.07889961801037,62.15629656354555,68.49176616077129,45.76467288303913,61.01381268912978
66.57523764408927,63.10602727269797,64.61882690880581,62.1372494765607,68.59632812061761,45.69667925603795,60.988709063019755
66.6452104214981,62.79673697136537,64.16316842206359,62.11485048922429,68.67306177528917,45.644875860981024,60.96391591084837
66.71583959291965,62.49214932158742,63.713229175128426,62.088592544486715,68.72209088459219,45.609352524794595,60.939711015599705
66.78677352017745,62.193296391537984,63.27022804819687,62.058001208072795,68.7436848534249,45.59003992189373,60.91635317436653
66.8576499776466,61.901312719533486,62.835307494431035,62.022642658721686,68.73826140385201,45.58671975306727,60.8940829978014
66.92811015233676,61.61742079150284,62.40953508906197,61.98214103113404,68.70636243786691,45.59904462972362,60.87314524469819
66.99781916365045,61.34288390070581,61.99391628411312,61.93620817456177,68.64861075688674,45.626552131431794,60.85379488057591
67.0664574162818,61.07899281693423,61.589414468207984,61.88465747930672,68.56568175711696,45.66867060798205,60.83627158706741
67.1336879021691,60.82709953970735,61.19694941714332,61.827388517278806,68.45830944369746,45.72471759914228,60.82077457237921
67.19914158645948,60.5886364818626,60.81736758195779,61.76436510968371,68.32730686437174,45.79389510894215,60.80746843309645
67.26244574669155,60.36507926833511,60.45141094566693,61.695614346486074,68.17356535509367,45.875304206134864,60.7965042623211
67.32326508158289,60.15789086849343,60.099714986945095,61.6212396749221,67.9980301773467,45.967993407151965,60.78802020770419
67.38131227610037,59.96849447967113,59.76283497674987,61.541416590172815,67.80168282718662,46.071013810604555,60.782121738662156
67.43633923233274,59.798265050584156,59.44126357356983,61.45636505638336,67.58554338793851,46.183445886371395,60.77887524642526
67.48814959772126,59.648504612569845,59.13541654016483,61.366331262758344,67.35067085450382,46.30439588272564,60.77832607595463
67.53662812685356,59.52040214533896,58.845609813223874,61.271599079615314,67.0981425054144,46.432982261584286,60.78051074410807
67.58174527077416,59.41500786055927,58.57205654214058,61.1725039727261,66.82902583723298,46.56833550817545,60.78544132752527
67.62352283650506,59.33322806135554,58.31487650812525,61.06941707004184,66.5443656226626,46.70961699615817,60.793085177545365
67.66198820532179,59.27581397966555,58.074092554104816,60.96271282285219,66.24518502556991,46.85603262172852,60.803372771342
67.69715184301734,59.243329917868785,57.84960926651571,60.85275903528872,65.93248151217017,47.0068213323083,60.81622503840918
67.72901439479708,59.23612216092016,57.64119663105274,60.73993655311113,65.6072106023987,47.161233249317235,60.83156172126839
67.75757358172994,59.254317708571016,57.44850485141174,60.624652318486746,65.27027787347374,47.318520284065734,60.84927909000214
67.78280808103902,59.297849071282904,57.27110541198143,60.507318716188685,64.92256520544909,47.47793741701034,60.8692289312565
67.80465945361489,59.36647112362065,57.10852001985237,60.38832146442389,64.56498029385853,47.638736848804605,60.891227702905645
67.82304154326403,59.45975376761424,56.960219032171025,60.268018406657816,64.19848521465,47.80014835606357,60.91508043970242
67.83786485226474,59.5770750903666,56.82561862913982,60.146773435781235,63.82409645604942,47.961355707236194,60.94058474999642
67.84903982101832,59.717636789493106,56.70410158454272,60.02498069128105,63.44290311463749,48.12148255905933,60.967514856759884
67.85645688721289,59.88048295203011,56.59504072870171,59.90304920369073,63.05611759340266,48.27959606067963,60.99561985837243
67.85998317577142,60.06449720581434,56.49779782167596,59.781377296658896,62.665104212783945,48.43472345980532,61.024649766749924
67.85949910898488,60.268391148054434,56.41171472762995,59.6603552229035,62.27134709989795,48.58586746964537,61.05437817099057
67.85494107281535,60.4907193911726,56.33613531881462,59.540385909936596,61.876387724396864,48.73202421090919,61.084593435455226
67.8463061070483,60.729929948532344,56.27045491672577,59.421885970523924,61.481782107804534,48.87222342118496,61.11507831351258
67.833628570642,60.98441416305481,56.214149855687836,59.30525878231158,61.089090203390036,49.00558043175178,61.145614597263915
67.8169715382366,61.252521105793136,56.16676301294793,59.19087462659249,60.6998683667364,49.131320755028646,61.17600825782508
67.79644130294493,61.53254337204178,56.127873636822514,59.07909418207061,60.31563843319391,49.248769749539846,61.20609618655774
67.77219145961264,61.822703742989916,56.09708208068471,58.9703227668859,59.937846219118185,49.35734638008613,61.23572112780925
67.74439927338808,62.12116351423507,56.0740024971561,58.86504125074374,59.56783990411359,49.45658499066226,61.26470641854287
67.713244054748,62.42604795525134,56.05824753894699,58.76378924701227,59.206872243659575,49.54615535024008,61.292860695913845
67.67891935909759,62.73546253309001,56.04942631455095,58.667137590628364,58.85610017203746,49.625848046132134,61.31999914931004
67.64166131104835,63.04749207036071,56.04719705903807,58.57568782893223,58.5165666325778,49.69553905588045,61.34594581544399
67.6017495942343,63.36020856400793,56.05136033787295,58.490083141887276,58.18918441206098,49.75516806797031,61.37051508437684
67.559476586499,63.67169915579075,56.06191567743345,58.4109961010704,57.87473972757871,49.80473890952848,61.393510836334094
67.51512568125416,63.98008926698141,56.07904108348516,58.33909524672641,57.573899647526446,49.844320212987405,61.414761520052615
67.46898375100747,64.28354571211128,56.10303740134595,58.275021885926435,57.28720717195628,49.874036183772496,61.43415480818494
67.42135930559755,64.58028078083065,56.134292338884634,58.21939202180319,57.015083081678476,49.8940702393762,61.45163495064869
67.37257055728902,64.86857398589424,56.173268371989586,58.17280156098936,56.75786423897791,49.90469119859437,61.46718077571709
67.32291521270136,65.14679281821945,56.2204816901131,58.13581027168488,56.515867892040504,49.90627036571332,61.48080371904429
67.27265839181449,65.41339105053703,56.27645909966342,58.10891817411017,56.289429879350195,49.899264091213084,61.492564360390276
67.22204316129326,65.66690050705847,56.341703121564684,58.09256382768978,56.07888709772842,49.88417472999469,61.50257122656858
67.17129322529198,65.90594876527298,56.41669038801863,58.08714123381774,55.884532777306056,49.86151450653147,61.510950337245134
67.12059266989507,66.12929806841906,56.50188005216017,58.09300484989037,55.70659018731437,49.83178726605288,61.517818336384394
67.07007039371659,66.33586502949919,56.597698809203074,58.11045170342424,55.54521598647347,49.7954877156869,61.52328908660147
67.01981996234466,66.52470727669879,56.70450792486349,58.13970738020895,55.40050447867468,49.75309938192689,61.52749702782735
66.96993789375755,66.69501533733091,56.822578557377476,58.180937411345745,55.27246944015265,49.70507558521679,61.530598171874814
66.92053432870807,66.84614321956765,56.95208520034849,58.23426028241465,55.16102185415267,49.651812739915684,61.53274454491276
66.87170512012243,66.97765174309403,57.093102754123066,58.29973314821281,55.06597594114959,49.593643640013205,61.53406679259467
66.82350097195655,67.0893151427751,57.24559141761968,58.37732668785248,54.987080030614614,49.530870106825,61.53468489164812
66.77592238540863,67.18109155156387,57.40938259268232,58.466920332688034,54.92403405868851,49.463815686130644,61.53472347459812
66.7289267438698,67.25310874485623,57.5841919965405,58.56831552023211,54.876475590114346,49.392858529176756,61.534303429223804
66.68242018827272,67.30569151251376,57.76965148808698,58.68124212084702,54.84396213572741,49.318444456107216,61.53352132746301
66.63623932055502,67.33938939695713,57.965322668340264,58.80534965122168,54.82597833650327,49.2411082844439,61.53244882184467
66.59015709758012,67.35495795331805,58.17068394922774,58.940205005495045,54.82195514504161,49.16149408567209,61.53115256638888
66.54392386670236,67.35330961732413,58.385123923460164,59.08532054963039,54.83127105040298,49.08034481871596,61.52970156609008
66.49730483713876,67.33548011368094,58.60795919825465,59.24019735401681,54.853234778921866,48.99847121551947,61.52814748395977
66.45007998993269,67.30261745618367,58.838450454361414,59.40434483528527,54.88707602713317,48.91673301429847,61.52650653322839
66.40202957362547,67.25596194491493,59.07579303687655,59.57727578951936,54.93195656260281,48.83603552194988,61.524771856016926
66.35294505653752,67.19680455235466,59.319099082912665,59.75850945890396,54.98698296101852,48.75731564822735,61.5229404305796
66.30265753745688,67.12645579824175,59.567403915557826,59.947585841141596,55.05120687213305,48.68150558415082,61.5210175091025
66.25104358225317,67.04625358494084,59.81970293891552,60.14406251385585,55.12363698890765,48.609495909954816,61.51899654115409
66.19800328758684,66.957585142542,60.07498644928075,60.34748560389091,55.20328953062702,48.54213396095952,61.5168481616648
66.14345246320181,66.86187789193212,60.332246720770144,60.557360782681144,55.28925113207208,48.480261555715714,61.5145360190736
66.08735474779856,66.7605612195667,60.59048592739301,60.77315288385057,55.38070154635896,48.424745283302485,61.512035822252244
66.02976009922978,66.65504520692377,60.84875806297863,60.99430989472312,55.47688629052056,48.376460852280694,61.509329319506534
65.97080465490052,66.54673614335697,61.10621495536096,61.220274908255874,55.57707528566996,48.336253039575666,61.50638577520356
65.91068289610622,66.43705153791751,61.36210829684378,61.45046573071252,55.680542757844734,48.30491663887279,61.503165804843164
65.84964000252025,66.32739864871873,61.61575039199183,61.68424394502489,55.78657177752855,48.283209247829234,61.49964705030159
65.78799401503043,66.21913143093849,61.86646720185346,61.92090281496121,55.894458270687956,48.271864631684444,61.49583390150969
65.72614514934757,66.11352259217259,62.11356464579161,62.159674541994995,56.00350060182349,48.27158153472325,61.49173572440551
65.66454538497804,66.01176177688961,62.35631031301899,62.399733930816254,56.11300480169816,48.28300944035057,61.48734427437604
65.60365587048129,65.91495524860473,62.59392274584003,62.640189414375406,56.222344169631796,48.306764595270934,61.48263929437144
65.54392787760713,65.82410315780389,62.82556204740832,62.8800867769441,56.33104966562889,48.34346218225155,61.4776064685455
65.48580141139374,65.74007037037326,63.050329021495834,63.11844615545935,56.43885623678056,48.39372112662927,61.47223332383092
65.42969063660838,65.66358800000536,63.2672843944474,63.35430611077294,56.54567856763843,48.45813534470135,61.466483015320534
65.37595164722786,65.59529063440425,63.47547740267102,63.58673710113873,56.65156940584641,48.53724396807997,61.46028142532178
65.32486487950491,65.53574987716553,63.67395639546931,63.81483164730489,56.756708114494785,48.631516995380416,61.45353759989159
65.2766521928435,65.48547481147193,63.8617567732452,64.0377069372731,56.861401495451304,48.7413417916372,61.44617087687801
65.23150127745046,65.44490512721808,64.03789182890526,64.25452661737012,56.96605777875858,48.86699529409389,61.43810981892177
65.18956043971784,65.41443213392891,64.2013635255348,64.46451090310828,57.071136483571046,49.00861165270619,61.42927288923893
65.15090934609165,65.39442783037038,64.35117845272613,64.66691841240272,57.177111223472686,49.16617515722539,61.419567481228746
65.11554553090743,65.38524077156983,64.48634855331065,64.86102839183955,57.284462250733625,49.339548020650135,61.408910590551734
65.08340656665298,65.38716519031072,64.60588230256698,65.04615472782,57.39367253099024,49.52849875903407,61.39723672257493
65.05439839958352,65.40042137234711,64.70879687322575,65.22167548893175,57.50520509073973,49.732699655162605,61.384478308541496
65.02839400105799,65.42515551289466,64.79417107064039,65.38703775965621,57.619491477860436,49.95170727091726,61.37054976354324
65.00521273376381,65.46143334476456,64.86121026333821,65.54173406046165,57.736971059811054,50.18495248906257,61.355364738314
64.98461568313935,65.50921344978897,64.90927314425043,65.6852887410154,57.858154550598066,50.43173920715436,61.33886702249833
64.96632161794895,65.56831703902479,64.93785320066385,65.81727968363015,57.98364393332009,50.69123715022288,61.321034645492134
64.95001370456134,65.63841720517392,64.94655268222621,65.93736971856177,58.114090053732575,50.96246951517384,61.301857530373816
64.93532520952785,65.71904754329725,64.935079251113,66.04531243879148,58.25013089027625,51.24431292465449,61.28132901161041
64.92183721284736,65.80960710064865,64.90325610550504,66.1409466829936,58.39235927432791,51.53551872906221,61.25946952225776
64.9091150650456,65.9093511788062,64.85101709599662,66.22421061921652,58.541328778420265,51.83473840356084,61.23635035827971
64.89675404574844,66.01739219246451,64.77838186723173,66.2951605067719,58.697560341662275,52.14053047415588,61.21208467158101
64.88438986964482,66.1327328656188,64.68543672426934,66.35396560895656,58.861517445894954,52.451351191452005,61.186801984186644
64.87168380743266,66.25430994666921,64.57233777813244,66.40089159772737,59.03356856777735,52.76555380896795,61.16064488059146
64.85832713653264,66.38101159195327,64.43931752999583,66.43629505828333,59.213975063255766,53.081418629523085,61.13378952051885
64.84407046665153,66.51167331859313,64.2866741693239,66.46061675705413,59.40290567440138,53.397204657695056,61.106452827670395
64.82873677803906,66.6450868300735,64.11476191262597,66.47435104691195,59.600442542734946,53.71118719215222,61.078868591920596
64.8121943355987,66.78002645885842,63.92401451325722,66.4779980415535,59.80656470658532,54.021668301911504,61.05126148038578
64.79431395489144,66.91526413529,63.71499031239858,66.4720277483765,60.02114300158736,54.3269865523645,61.02384945096399
64.77495000539828,67.04956490064164,63.48839046028703,66.45687804310042,60.243971274269754,54.62554898608811,60.99686063446659
64.75395360384925,67.18169186082682,63.24503322039391,66.43297531295364,60.47480130725146,54.91587229220335,60.97052880948108
64.7311861336622,67.31043491697882,62.98581819245647,66.40074074524146,60.71333878031926,55.19660645226782,60.94506457220327
64.7065080160495,67.43463620884468,62.71170990633328,66.3605669198445,60.95921068177791,55.46654560663732,60.92063725590589
64.67976333321714,67.55318723960748,62.42373092052547,66.3127892922026,61.211953689888226,55.724646736591,60.897388858609986
64.65079073961165,67.66501187569483,62.12294619241148,66.25767695113227,61.471048547223205,55.970041672363365,60.87545545486596
64.61944982190661,67.76906196426441,61.81044133788769,66.19543609353897,61.73596570897696,56.20201676500568,60.85496319978576
64.58562790437796,67.86432632481593,61.4873055756488,66.12620885934977,62.00617473409733,56.41997209387991,60.83600773762268
64.5492226308545,67.94983480326054,61.15462417342515,66.05007145114374,62.281126647674554,56.62339439820595,60.81865227361474
64.51012660932551,68.0246511916668,60.81347509538979,65.96705045709159,62.56026008035393,56.81186098764347,60.80294960316389
64.46822431585365,68.08787520256253,60.46491611460989,65.87715798782433,62.84304337886532,56.98505633939376,60.78895393160736
64.42338513559791,68.13867751821785,60.10996381992408,65.78042016795516,63.12900347457,57.14276982741088,60.77670343803028
64.37544338885044,68.1763534469404,59.749590620666304,65.67688059629252,63.41770575370355,57.28487475360732,60.76620189798336
64.32418371183978,68.20034914544586,59.384750306888485,65.56659724183312,63.70871607256463,57.4113165154248,60.757432252536276
64.26935955990773,68.21024549454647,59.016401122905336,65.44966109311626,64.0015966801706,57.522116903576354,60.75038803715182
64.21074048175446,68.20574034206669,58.645496576495326,65.32622406458893,64.29593815949242,57.61737124603847,60.745080908379336
64.14814587560647,68.18667198781695,58.272956413627874,65.1965022135679,64.5913786184538,57.697223588598085,60.741516869552086
64.08144269891476,68.15306736645482,57.899648593719185,65.06075935312721,64.88758164119183,57.76183301688895,60.73967878775637
64.0105394751644,68.10515950696222,57.526390061582134,64.91930386598442,65.18420397988889,57.81135540875929,60.739540234707
63.93541023405206,68.04336232402359,57.15394743672561,64.77250089013468,65.48088687991327,57.845950027293384,60.74108570023104
63.856126945957286,67.96824805566531,56.783021811174315,64.62077157955973,65.77725537660059,57.865791921027345,60.74430328213985
63.77285799639814,67.88055116553282,56.41422793451692,64.46456727391596,66.0728964018017,57.87106825518565,60.74915964615962
63.685832774813406,67.7811648741814,56.04809578952464,64.30433606291005,66.36732195302588,57.86197160290363,60.75559320537873
63.59531165877073,67.67109918602404,55.68510685437443,64.14050579711844,66.65994547896942,57.838722272313255,60.76353111974441
63.50158539607278,67.55142257141166,55.325737336299646,63.97349030683923,66.95008558516118,57.801615381735786,60.77289701923306
63.40498301398452,67.42323700542795,54.97047097063411,63.803699153403684,67.23698357870852,57.75104713247238,60.78359085960103
63.30585833896898,67.28769900318282,54.61978536713144,63.63152869304701,67.51981451828289,57.68750009918471,60.79546795161001
63.204566844445225,67.14603845371435,54.27414677340422,63.45734549686164,67.79770221711811,57.611532319363555,60.808349283729584
63.101472090960584,66.9995324198139,53.9340238335932,63.281491054644185,68.06976017172524,57.52382520253254,60.822051689779094
62.99698754054567,66.84945609338625,53.59989464542478,63.10430458734354,68.33513617879314,57.42527055851567,60.83639970693984
62.89161040640375,66.69705993032001,53.27223356812545,62.926130302915375,68.59301869405425,57.31701489335189,60.851210232708056
62.78591511832827,66.54358220459234,52.951505542283044,62.74729759712708,68.8426105016041,57.2004252101295,60.86628288828338
62.6805299459006,66.39026082921765,52.63819098568409,62.568103357815275,69.08311532354769,57.077017737315224,60.88142190125093
62.57613161028373,66.23832346923406,52.332814165686976,62.388822990255655,69.31375855047115,56.9483903539799,60.89646775110065
62.47344700781242,66.08898159425317,52.035938763746636,62.20973372884708,69.53381136772666,56.816161668983085,60.91130044639179
62.37323165419293,65.94344283744685,51.74813816148986,62.03111803506479,69.74258486127884,56.68191369966792,60.92581806682703
62.276231215182214,65.80290986685036,51.46996805913453,61.85325283116265,69.93941326290475,56.547149190551636,60.93992824536337
62.183160493351735,65.66854710776006,51.20194784059201,61.67641416012199,70.12367425741776,56.413272636566575,60.953563348869864
62.09470718892049,65.5414490230567,50.94454035518203,61.50089650177185,70.2948476791279,56.28158292066412,60.96668763045329
62.01153009068818,65.42264179576415,50.69812661240255,61.327017950067734,70.45255391022216,56.15325667538206,60.97927628497416
61.93423705525696,65.31309683317272,50.462986594072355,61.15510180825112,70.59653523860094,56.02931809932756,60.99129224659697
61.86337357858878,65.21371768499783,50.23929686533353,60.9854586054341,70.72661214258486,55.91060962353814,61.00269257111624
61.79947439072082,65.1253035027234,50.02713635138075,60.81838664527083,70.84265976324033,55.797783859896406,61.013453032977154
61.743214648444784,65.0485246768457,49.826482123438325,60.65417318434531,70.94460678043741,55.69132542120147,61.02357301645065
61.69561063715371,64.9839273629243,49.63719870339661,60.493072958670595,71.03242764447303,55.59158280868686,61.033054198101816
61.65813147974108,64.9319445518722,49.45905176351375,60.33527418714579,71.10611338431417,55.498781273374355,61.04189003052115
61.63265726292229,64.89288544621849,49.29175932421286,60.18088562120527,71.16563736714194,55.41301530599115,61.05009008855696
61.62136022218251,64.86690960704345,49.13504182297671,60.02996070725521,71.21093843336759,55.33423925806233,61.05771007369442
61.626589546716225,64.85402190774693,48.98863016181075,59.88253148717664,71.24192249413778,55.26226190474835,61.06484821559683
61.65079934096462,64.85410204244037,48.85224337127012,59.73861777680433,71.25846338518288,55.196741782854886,61.07161751569679
61.69658688829127,64.86693219317505,48.72557154149719,59.59822454116323,71.26039273252182,55.13719181548101,61.078134352093514
61.766847401571894,64.89218734528059,48.60827787853399,59.46136028432959,71.24750045614763,55.083005550413134,61.084533083079506
61.86489494666934,64.92941017547703,48.5000083816027,59.328067780083735,71.21957338129849,55.0334966564172,61.090973289995084
61.99442219834167,64.978039060069,48.40039568155996,59.19843206297402,71.17645466274509,54.987924820224535,61.097617976173744
62.15934381900365,65.0375321027003,48.3090732262211,59.07256140967121,71.1180734654723,54.94549744671253,61.104607802836185
62.363627916205594,65.10752841652166,48.22573325145581,58.950576905400155,71.04443581786059,54.90536886265913,61.112063702902574
62.61119796496466,65.18794763704591,48.15021206227746,58.83263340561917,70.95563151119399,54.866661411526884,61.12010747710207
62.90595271222627,65.27902702775738,48.082533908930834,58.71894173349101,70.8518978649753,54.82850126036633,61.12886366236127
63.251847024712845,65.38134842900297,48.02288257540584,58.60975459715772,70.73369758324192,54.790039748320545,61.1384353845697
63.652910150910074,65.49583340566284,47.9715381205782,58.505330268445356,70.60173809361723,54.75045403414138,61.1488865058463
64.11315719247337,65.62366554447665,47.92882504243599,58.40591393767018,70.45692814653412,54.70895371965334,61.16025349645633
64.63646165139566,65.76617451924984,47.89508416342985,58.311743978889666,70.30032380833038,54.6648049505964,61.172566759001015
65.2264703186498,65.92474833904208,47.87065378385081,58.223053790227176,70.13309012345634,54.61734611858585,61.18584883424541
65.8865611920908,66.10079101778699,47.85585560621223,58.1400504929833,69.9564618819627,54.565974722925354,61.20009635372561
66.61978498662424,66.29568671658387,47.85100185538131,58.06288908859444,69.7716976114496,54.51012226878052,61.215281023798774
67.42876701351454,66.51073836492492,47.85641982365829,57.99166818998474,69.58005870680677,54.449250704345644,61.23137413418164
68.31559909661053,66.74710011882102,47.87245983469091,57.92644335320661,69.38283064392432,54.38287853622864,61.24835815131533
69.2817595912048,67.00573805002618,47.89947026529592,57.86723183419856,69.18134464261266,54.31060466711617,61.266206438906714
70.32810029310662,67.28741622208702,47.93776398064783,57.81400014979721,68.97695602609143,54.232100237622106,61.284862385382205
71.45490703448802,67.59267616485367,47.98761208484835,57.76665764464133,68.77099513186931,54.14707674723118,61.30425405330718
72.66197479858683,67.92180193222592,48.049269977541684,57.72507530300811,68.56473728469093,54.055255263807254,61.3243302604254
73.94863616182984,68.27480744253532,48.1230014171451,57.68911295387033,68.35940754938046,53.95635467986879,61.345072467536816
75.3137367318342,68.65147188063776,48.20907978403357,57.658627944597534,68.15619131390369,53.85010156379284,61.366471516196654
76.75557927389416,69.05138645754742,48.307796530825215,57.63346786394706,67.95622777547898,53.73624257701916,61.38850695089204
78.27185880724967,69.47396284027165,48.41949762913809,57.61346961156079,67.76060556190386,53.6145437335727,61.41115779870849
79.85961550858266,69.91841577471257,48.54460814390453,57.59846949687993,67.57037682528221,53.48479016455982,61.43442353081403
81.51526064570565,70.38376715603633,48.683609068025255,57.588303888621645,67.38656503161445,53.34680239842021,61.458319637209755
83.23473430224345,70.8688769710837,48.836996231182376,57.582789423752345,67.21013970375357,53.20045443010564,61.48285308866801
85.01375165717941,71.37246307284907,49.00526736262702,57.581703297441464,67.04196967543996,53.04567257550875,61.50801256059828
86.84801189339441,71.89309341516832,49.18893218867021,57.584784732381024,66.88278855136907,52.88242322074623,61.533781049884105
88.73331885408433,72.42918757072917,49.388504689189475,57.59174549891404,66.73318913495537,52.71070915330733,61.56014001700234
90.66563198949063,72.97906391313386,49.604460324652834,57.60226506985469,66.59362953855674,52.53057306387147,61.58704651096589
92.6410374015632,73.5410042997357,49.837182108605774,57.61597594418747,66.46442556164023,52.34209488714103,61.61440574407661
94.65564202738321,74.11327946087678,50.08693110754041,57.632470918732295,66.34573295160531,52.14538791468371,61.64206812065202
96.70545720963973,74.69413098460056,50.35385091636225,57.651341595256675,66.23754463072392,51.940615729075716,61.66984566508094
98.78635960490261,75.28175282332226,50.63798283548369,57.6722131397267,66.13970753281448,51.7280307712246,61.697517372979654
100.8941593838896,75.87430575875786,50.939288791675004,57.69474433966752,66.05193364548855,51.507999848233545,61.72481383562272
103.0246978708704,76.4699634843914,51.25771799578103,57.71861068801258,65.97379031142081,51.28099023516051,61.751410468961815
105.17388122316665,77.06695434882344,51.593310382914744,57.743502607969575,65.90468965362935,51.04752997137159,61.77695272937005
107.33766221412415,77.66357838266866,51.94627678203571,57.76913484272664,65.84390000056294,50.80817141632851,61.80108929501839
109.5120265320025,78.25824877339377,52.31705206621842,57.79524135751311,65.7905701003972,50.56347161176095,61.82347664953891
111.69297502339268,78.84959145706893,52.70635951395929,57.82155349485792,65.7437414394881,50.31398195148734,61.84376215014422
113.87647427788897,79.43654373249218,53.11525111048892,57.84778909960118,65.70235105940584,50.06023303366908,61.86158248892626
116.058400489477,80.01843402085218,53.54505992699387,57.87367220212947,65.66525460841036,49.80271504830338,61.87658614063583
118.23450769011053,80.59510312135585,53.99727960128541,57.89896388752683,65.6312760453706,49.541879263807296,61.88844832066729
120.40041204066925,81.16702110556876,54.473433617229105,57.923473147229544,65.59924742047268,49.27819259265593,61.89685857116492
122.55157525222135,81.73527479157893,54.97497694048433,57.94705210258821,65.5680197145311,49.012229842469445,61.90150586087104
124.68329204651263,82.30142934136529,55.50324044483202,57.96960017442607,65.53648859983326,48.74473440767064,61.90209225813205
126.79069833489646,82.86740732495824,56.05939710944406,57.991072722084965,65.50367345511222,48.47661480694102,61.898363041955314
128.8687945412323,83.4355204240075,56.64442856059976,58.01146902375533,65.4688037983049,48.20892511289548,61.89011473141727
130.91245960679558,84.0086215899503,57.259121473332144,58.03079950901886,65.43134206828569,47.94287270993573,61.877173132805396
132.91646524657187,84.59019202976077,57.90413213895741,58.04906776944038,65.39094881177681,47.679828088919535,61.859376124004555
134.8755433192509,85.18427756258914,58.58007783290828,58.06630447882256,65.34745407795974,47.421296226752816,61.83658903366253
136.7845497665421,85.79536410261287,59.28757408801213,58.08263828826985,65.30086263505918,47.168858810839595,61.808733190534
138.63868840782484,86.42825535879254,60.027200439025165,58.09833784063116,65.25135780533901,46.924128744462756,61.77579094936779
140.43367599534486,87.08795180331,60.79944115871834,58.113795049505796,65.1992707399359,46.688732300333534,61.73779136748135
142.16578834574375,87.77960033698714,61.60464515278905,58.129492400869474,65.14503405056539,46.46429213876798,61.69481305281956
143.831841747916,88.50859902915201,62.44301666798201,58.14599111288247,65.08915830052169,46.25238703735752,61.64700917207962
145.42914719662423,89.28075759868189,63.314629271127394,58.16392044647525,65.03223396098355,46.05450292450957,61.59461725095392
146.95543424184538,90.10230713405942,64.21945150577262,58.183940435118245,64.9749232753484,45.87201142849469,61.53793476813885
148.4087799412845,90.97976119387339,65.15737006469983,58.20669030131168,64.91792024318879,45.70619351621104,61.477289803267
149.7875730650568,91.91982814934586,66.12819515600002,58.23275887134998,64.86190216515087,45.55828206898141,61.41304007334063
151.09048422230165,92.92942319387184,67.13166091641911,58.262690014544525,64.80750683523493,45.42948109489383,61.34559050359829
152.31642384663746,94.01563067100129,68.16747137582306,58.29699276805462,64.75533338959247,45.320953446877404,61.27539210848329
153.4645243083118,95.18558375006606,69.23539211372287,58.33612452973386,64.70593539208235,45.233795086224774,61.20291217499845
154.53416016366742,96.44636730687239,70.33529801174505,58.38046289860576,64.65979284859435,45.16900222522841,61.128607245587254
155.5249586518542,97.80492708487742,71.46712949615099,58.43030807711311,64.61728491615916,45.12743357412827,61.052926340639054
156.43677761999425,99.26790392078962,72.63082284606512,58.4859197099562,64.57868393173015,45.109787237793235,60.97632850210633
157.26972042138146,100.84144754349607,73.82627715037545,58.54754139676108,64.54415987812546,45.11660648924127,60.89928014196771
158.02425709815023,102.53108628254353,75.05334095970832,58.61538344326492,64.51377390235193,45.148295326778836,60.82223281876682
158.7013838509576,104.34162007645196,76.31178050672928,58.68959162976251,64.4874745027504,45.20511532498271,60.7456157575254
159.30268091403704,106.27702248454013,77.60122284688264,58.770237405450004,64.46514142471247,45.28716307540124,60.66985353305667
159.83025104007908,108.34041228415768,78.92110447693359,58.85732866053234,64.44667751338594,45.3943527924176,60.595375667121395
160.2866392834053,110.53407820481492,80.27066440755273,58.95082092013714,64.43207562097894,45.526427184084056,60.5225950682429
160.67479756686316,112.8594502611677,81.64896561020011,59.05062061517184,64.42141011564854,45.682990425304546,60.45188038384396
160.99807629484283,115.31699268802183,83.05489031791454,59.15659122073364,64.41478695101674,45.8635292187149,60.38355720922428
161.26019055104743,117.90610332793743,84.48710889261486,59.2685677621439,64.4123062541245,46.067404670971925,60.31793095860106
161.46512423693645,120.62509795453205,85.94406260708307,59.386361544993726,64.41404676633945,46.293835538205535,60.25529330693157
161.6169897506998,123.4712964933985,87.42395582762211,59.509741424769814,64.42004797965475,46.54189480158049,60.19590035802931
161.71989709195557,126.44120562614312,88.92472642778198,59.63841107704067,64.43027640990833,46.810514255926215,60.139954417765765
161.7778738988104,129.53084346661205,90.44400313840165,59.772012864949154,64.44459599245786,47.09848139720061,60.08761642482427
161.79484617630885,132.736203323186,91.97908146217783,59.910155991426976,64.46277727646002,47.40442865797783,60.03903048734926
161.77466765612712,136.05363995472646,93.52692580492555,60.05243355832952,64.48454756137455,47.72683237702507,59.99432565365107
161.72116456718396,139.48001025499514,95.08418520240227,60.19841432825442,64.50963475065349,48.06403389866376,59.953597187570104
161.63814834917798,143.01277531575434,96.64720925501489,60.34764164444699,64.53776834723854,48.41426989886005,59.91690018000165
161.52937789839524,146.65030217857034,98.21207391140888,60.49967236057451,64.56866062427629,48.77568984640116,59.88426447870904
161.39849016467886,150.392168415575,99.77467105896416,60.654136887607834,64.6020063642913,49.146366880694856,59.85570186553041
161.2489156507249,154.23916541282736,101.33087804387706,60.810765648362015,64.63749765028557,49.52433346274716,59.8311874415371
161.0837889049369,158.1931296224779,102.87671957875092,60.96936155560618,64.67482240145654,49.9076470062604,59.810640913045894
160.9058735413487,162.25688780545872,104.40846787979929,61.129752959375956,64.71363588457949,50.29444635624047,59.793940271887266
160.71751566631812,166.4342486556244,105.92271538523612,61.29175923033959,64.75352684560237,50.68296701323956,59.780956296621994
160.52062143472492,170.72980138661933,107.41641546770798,61.45516431695888,64.79400783574629,51.07152915311743,59.771565671236864
160.31665268614552,175.14849254662488,108.88688845976708,61.6196851567897,64.83453882462615,51.45853341718487,59.7656303097105
160.10664137499265,179.6951602149566,110.33186692727651,61.78494223242344,64.87455922519045,51.84247568617839,59.76297697192539
159.89122818106753,184.37423206923657,111.74958452628981,61.95044891110248,64.91350324444933,52.221957956968026,59.763407709956795
159.6707307193704,189.18963140122375,113.13881850398045,62.11561834151346,64.950822764461,52.595676571096114,59.766725572057965
159.44521972922877,194.14480160707683,114.4989121510569,62.27976912829949,64.98605276899374,52.96240431229532,59.77273941042368
159.21456169867528,199.24290674659292,115.82992064788115,62.44212557835833,65.01888546392502,53.32098796414108,59.781247625929346
158.9784224724765,204.48723795605844,117.13289626126726,62.6018327375162,65.0491917942843,53.670350787902315,59.792036706452144
158.7362578803391,209.88150532782078,118.41013910537181,62.757991202281865,65.07702205460035,54.009478504750376,59.80490677019472
158.48730936745574,215.42980603060033,119.66524393077196,62.90968208777872,65.10269762627347,54.33739408531221,59.819690118388905
158.23063221664572,221.13645135876027,120.90293729276102,63.05596043599193,65.12700324045045,54.653146609826095,59.83623583883598
157.96517812558358,227.00573847666507,122.12880523900597,63.19583646535946,65.1513287974667,54.95582266131255,59.85438118261884
157.6898941512143,233.04163484057727,123.34899412369978,63.32828482576644,65.17768740666814,55.24455845069611,59.87394557127708
157.40378131001316,239.2475790197385,124.56994016259297,63.45229422279158,65.20873889120082,55.51853187904305,59.89474685932136
157.10590254368105,245.62655443575198,125.79815785338637,63.56691785805648,65.24789280030785,55.77694378842174,59.91660610382812
156.79536314493666,252.1812584256866,127.04007473678182,63.67128448824875,65.29936637937976,56.019013218876665,59.93932825728063
156.47129234600777,258.9141951776406,128.30189986413708,63.7645857730148,65.36812959999818,56.24399327569511,59.96269106244209
156.13283852810767,265.82766583803624,129.58954700739815,63.84607912365484,65.45983007527535,56.4511863493813,59.98646943596953
155.7791613158725,272.9236339902431,130.90862644261037,63.9151088014671,65.58073247145386,56.63993835833421,60.01047146459889
155.40940980812607,280.2036736234819,132.26445081534405,63.971114671518635,65.7376176078478,56.80962220022624,60.03454449083433
155.0227053822243,287.66933403920996,133.6619787033433,64.01361400755208,65.9376330660862,56.95964410877311,60.05855434382281
154.61814581420575,295.3227305632648,135.10570566567904,64.0421821531553,66.18812037972775,57.089490109266116,60.082380640789175
154.19482558194773,303.1667714550282,136.5995676137444,64.05646599239194,66.49642998698505,57.198781431544916,60.10594530571328
153.75185445009012,311.2048540827354,138.14688400850912,64.05622213627316,66.86973349528125,57.287298082190254,60.12923772349255
153.28836596520986,319.44035352291405,139.75033129708174,64.04133510322019,67.31485660392451,57.354982488253036,60.15230264937252
152.80352463095977,327.87616267852013,141.41193028949485,64.01180044957356,67.83818918061448,57.40195872476231,60.17521141539429
152.29652716044296,336.5142798947707,143.13305805385866,63.96771319098624,68.44571203023602,57.42855755692423,60.19805640032785
151.7665899600363,345.35535883009743,144.9145015981527,63.90929407393969,69.14306749962365,57.435309274421996,60.22096658442748
151.21296664325823,354.3982355062191,146.75651128640797,63.83692514062145,69.93555974343349,57.42290053487188,60.24410668852082
150.63504360483168,363.63956497087054,148.65881138845606,63.751148063193696,70.82808033076313,57.39212773840906,60.26764759362499
150.03245915826847,373.0736941886432,150.62059861387291,63.65262841789389,71.82501734030659,57.34386816729834,60.29174145477939
149.4051407036242,382.69273105462366,152.6405830077985,63.542124188150865,72.93015480629609,57.27905777442968,60.316532236238956
148.75324723932698,392.4866295587546,154.71707608378918,63.42047169496534,74.14655218679195,57.19865968482378,60.3421839992226
148.07710120262888,402.44319187049956,156.84804857810659,63.28856775247062,75.47643032815878,57.1036275250235,60.368885374682414
147.37718343820003,412.54802233794516,159.03108849915586,63.147337193907376,76.9210968065153,56.99487681656372,60.39682650099117
146.65418337907167,422.78448531872914,161.2633141240085,62.997708607274525,78.48090941403717,56.87327417369659,60.42618529709971
145.90904075148,433.13371241093876,163.54133037464075,62.84061571197383,80.15525357626416,56.739648696169816,60.457138522991414
145.14294858283407,443.57474879921756,165.86122748443088,62.67700159340708,81.94252905156206,56.59481302733243,60.48986849807003
144.3573418520339,454.0848874228612,168.21858974260482,62.50779821543163,83.84015770968108,56.43957255754804,60.52454326792203
143.55388540749195,464.64004419422224,170.608513443514,62.333890979517726,85.84460529524404,56.274727070055185,60.56129157629776
142.73444075397686,475.2149799350662,173.0256334378532,62.15609704900211,87.95140574173364,56.101084168656826,60.60020426744805
141.90101293102373,485.78341551563625,175.46416642971286,61.97516725157054,90.15520073624157,55.919473919128535,60.64135618382838
141.05571827457246,496.31827379530966,177.91800291353908,61.79179491589535,92.449814500481,55.73073898905001,60.684812736086755
140.20078096185554,506.79211195995254,180.38085575875772,61.60661522093419,94.82835558027028,55.5357038456975,60.73060801893611
139.3385141889105,517.177497499353,182.84644535310298,61.42020632789789,97.28330576477663,55.33514866053116,60.77872422638252
138.47126770626176,527.4471568702753,185.30868279919707,61.23310930857873,99.80658040831263,55.1298014864762,60.829101789047904
137.60136901301067,537.5740122220618,187.7617753168803,61.045850482729065,102.3895993650481,54.92033848079367,60.881664970960344
136.73107538805007,547.5311735063406,190.20024128658943,60.85893716106781,105.0233933866066,54.70738084209051,60.93632512737561
135.86252641051982,557.291830629816,192.61894051201875,60.67283203439806,107.69870678829801,54.491507699654974,60.99295933158391
134.9976915512411,566.8291284395693,195.01317778806234,60.48794392313702,110.40605327777824,54.27331090657331,61.051401271199
134.13833279250318,576.1162227615847,197.37883043700938,60.30465766340287,113.13574294981605,54.05346553626821,61.111462946101305
133.28599820316072,585.126545320873,199.71244136201577,60.123375501055655,115.87793367533513,53.83275820174026,61.17295799643736
132.44202684607387,593.8340787007143,202.01121972537314,59.94452567535826,118.62271938359012,53.61206133955567,61.23569603498729
131.6075377060503,602.2135500510678,204.27291597384055,59.7685391521946,121.3602098705834,53.39229161088434,61.29946453149072
130.78340353421171,610.2406608445492,206.49562846380314,59.59583852230166,124.08058020858299,53.17438117638383,61.36403473417521
129.97023907233552,617.8923818228571,208.67764194974933,59.42686232175837,126.77413543139947,52.959256552631636,61.42918888483021
129.1684405894615,625.147215595397,210.8173700092472,59.26209179123687,129.4314117194479,52.747809926503066,61.494729938418324
128.37827085080332,631.9853946370404,212.91340101151292,59.10204063306872,132.04325551668109,52.54086280124161,61.56045922263637
127.59993143442365,638.3890574618893,214.96453724487745,58.94721983996757,134.60084486800957,52.339134774734156,61.62615325340427
126.83359883305965,644.3424361111906,216.9697229934137,58.79811825262304,137.09570645812485,52.143230141685855,61.69156900984133
126.07946676521178,649.8320479377077,218.92793194814777,58.65521010605159,139.51977407157992,51.95364344071098,61.756463301842274
125.33780722772265,654.8468211589677,220.8381784841817,58.51896225713263,141.86544605502698,51.77076773489444,61.820593795215956
124.609008271817,659.3780460307552,222.69965718221277,58.389819349837396,144.12558653763838,51.59489098961363,61.88370384371144
123.8935796267165,663.4191435154635,224.5118304703366,58.26818342583003,146.29349332417056,51.426187504658564,61.945522965960244
123.19215035418873,666.9654175940392,226.27437764903138,58.154420792533216,148.36289427915776,51.264715730176434,62.00578890492783
122.50545864997557,670.0140083551944,227.98709582711882,58.04889494996367,150.32798666229596,51.11041779918175,62.064258753328
121.83433362905066,672.5640558941831,229.64980352661664,57.95198308336492,152.18348300988404,50.96311261229359,62.12069010504644
121.17968103185493,674.616798843952,231.26222117401545,57.864049846440665,153.92463434465415,50.82249137078501,62.174817454330956
120.54246480449147,676.1754031926331,232.82385631166107,57.785402322879,155.54723254489866,50.68813807595218,62.2263579349098
119.92366982365277,677.2446553364124,234.33395296957318,57.71626662248147,157.04760333010634,50.559578012130665,62.27504106557581
119.32424400870467,677.8307499478051,235.79152364572985,57.656797649475685,158.4226001814784,50.43632079522838,62.320623848601066
118.74502302174679,677.941274273123,237.19542978959973,57.60709376761785,159.6696089395239,50.31787131065685,62.36287522026807
118.18665572931532,677.5853915662804,238.54443422591902,57.5671907511854,160.786562011704,50.20372604836824,62.40156054047266
117.64957402327904,676.7740861020893,239.83719110729797,57.53705375485938,161.77195176905377,50.093381434900934,62.436455373677774
117.13403328918282,675.5202150280006,241.07221859749342,57.51659481610149,162.62483135658587,49.9863474921423,62.46737033720426
116.6401778835214,673.8382806826861,242.24787297976985,57.50570023848341,163.34478823443496,49.882145704827096,62.49415039886823
116.16805867158375,671.7441017366674,243.3623069771838,57.504235252947026,163.9318933145213,49.78029891902345,62.516650874376566
115.7175988990345,669.254535557816,244.41347612770932,57.512025338758086,164.3866597699759,49.680354725943026,62.53472881378259
115.28856182239566,666.387231491218,245.39930073879236,57.528833497961635,164.7100287542942,49.58196280186409,62.54826754440081
114.88054191582218,663.1604238612077,246.31794446770786,57.55434039676596,164.90334999738084,49.48495755637169,62.55720330849691
114.49295428263216,659.5928537710786,247.16801913340157,57.58812392228966,164.9683339425159,49.38938034764775,62.56152086594249
114.12501339575557,655.7037818346878,247.94861954619267,57.629637948176956,164.9070078193396,49.29544051398897,62.56123327581124
113.7757394874574,651.5129435322237,248.6592883916998,57.67819492146899,164.72171003349925,49.20346609707664,62.55638375098194
113.44401970415743,647.0404047707017,249.3000227741653,57.732961946196426,164.41510042114547,49.11388316519527,62.547070194842455
113.12868162744537,642.3064058255369,249.87131919031148,57.79298506289225,163.99014540286268,49.02721871628478,62.533454177208164
112.82851733046046,637.3312449979087,250.37420467483886,57.85724019431932,163.4500885068397,48.94409353288435,62.515736675447286
112.54226265661252,632.1351666697416,250.81020395264937,57.924676763703424,162.79844905573364,48.865192621198716,62.494130904831586
112.26858713261906,626.7382897922449,251.18121731809023,57.99423309955303,162.0390438956797,48.791236328691284,62.46886356039535
112.00611532930989,621.1606756497855,251.4893646475513,58.064866896190324,161.17598070523766,48.72296464227298,62.44019080687684
111.75344599027389,615.422547842009,251.73688646385102,58.13565643506976,160.2136129304418,48.66111730900647,62.40839443927719
111.50915418864807,609.5446190990785,251.92611400545061,58.2059417818344,159.1565091776452,48.60640261492479,62.37375675143409
111.27181418800637,603.5484024585668,252.05945633830405,58.275411737540345,158.00946951212194,48.559479125675026,62.33654892513684
111.040055757337,597.4563438185851,252.13938617013966,58.34410776150295,156.77754875616432,48.52096919563637,62.29705055855002
110.8126016911653,591.2917610672614,252.16843542006643,58.41242030257561,155.46603321421435,48.49148368005869,62.25557014095485
110.58825583456012,585.0786614778269,252.14918015429052,58.481151669890615,154.0803807454948,48.471625681273856,62.21243421666815
110.36589217287579,578.841519879363,252.0841922310634,58.551623031999156,152.62617589833758,48.461979528790636,62.167962395490534
110.1444959766422,572.605093291641,251.97598421170022,58.62578750186175,151.10911378682,48.463119699320345,62.12246644798036
109.9232212881682,566.3942022979087,251.82700430746863,58.7064407432922,149.53498384358227,48.475644888991624,62.07627177235152
109.70139626543069,560.2334335060841,251.63969444080976,58.79764794654291,147.90964560442112,48.50020066635315,62.02972327117497
109.47847204701834,554.1468764680403,251.41653237504187,58.905262480957255,146.23901694745052,48.53747051660158,61.983161446991026
109.25396559048755,548.1578788373773,251.16000515341622,59.03720533268172,144.52907729204213,48.58816769656544,61.93689979186041
109.02742848553142,542.2886860445786,250.87259359658856,59.203334520642734,142.7858769632115,48.653055293902156,61.89123140165474
108.79842735981882,536.5600485036553,250.5568400549613,59.41502350270802,141.01556679697305,48.73296298592226,61.84644741760954
108.56651475129514,530.9910631569227,250.2154511782603,59.684649470158405,139.2244512126477,48.82876900898975,61.80283297023681
108.33120224062084,525.5993071536984,249.8513686504081,60.02513880312862,137.41902385163925,48.94138968681686,61.760643614331634
108.09195939784465,520.4010059427114,249.46783175039357,60.44962948371992,135.60594671578096,49.07185289785244,61.72010053173162
107.84823388640966,515.4110996899124,249.06849552352824,60.97119383702842,133.79197552366114,49.221445959615984,61.68142051495407
107.59946903228399,510.6433379176265,248.6575561139205,61.60253765755323,131.98386757256858,49.391818472583374,61.644845226781065
107.34511362711683,506.1104240095113,248.2397737303036,62.35567417543392,130.18831471673525,49.58496525525021,61.61063343547695
107.08464418643116,501.8241037364319,247.82042354606418,63.24162536003378,128.41190499330423,49.80316497349605,61.57903424394535
106.8176127985182,497.795215640173,247.40524863458054,64.27020748357049,126.66107280667116,50.048986408002456,61.550284403696175
106.54369638765328,494.03377560396984,247.00035752185718,65.44995562568859,124.94202295228176,50.32535312246927,61.52463128563214
106.26270809009203,490.54901685090965,246.61202669226967,66.7881653425861,123.26066697125009,50.635571504499204,61.50234061689615
105.97456884366134,487.3492316279485,246.24650739713124,68.29092767580704,121.62259227358686,50.98330601414775,61.483670770533784
105.67928047751224,484.4414890266819,245.90991390905194,69.9630897476534,120.03303170882452,51.372569395934306,61.46884634144159
105.3769266826698,481.83154455927956,245.60815047985054,71.80819008887126,118.49681888647986,51.80773860917505,61.45806182235853
105.06767524286305,479.5240556398796,245.3468378566792,73.82841439330237,117.01836169346967,52.29354493204156,61.45149693955132
104.7517569327334,477.52282349119855,245.13126151032068,76.0246047985267,115.6016451779656,52.8350310134934,61.449308750203734
104.42944855499815,475.83085449773114,244.96632576591603,78.39636258265887,114.25023368888573,53.43749342437668,61.45160520653177
104.10108152729663,474.4503236830185,244.85645907587445,80.94221769298979,112.96726234359984,54.10637879099277,61.45843524904152
103.76704686613809,473.3824836400258,244.80548603631712,83.65979104075957,111.75543660274835,54.847134804352336,61.46980507762135
103.42777784403927,472.62753740212224,244.81652687844726,86.5458931762061,110.61703376323753,55.665134255409455,61.48569022539611
103.08373552144339,472.1846121692278,244.89191774268102,89.59654648783656,109.55388208288807,56.565741823062645,61.506021014414735
102.73541483799436,472.0518304514552,245.03311015831483,92.8069767791661,108.56732915745937,57.554396906306366,61.53066122104476
102.38335269724467,472.2263127112513,245.24057492923765,96.17162185051428,107.65823919099813,58.6365724481353,61.55941265541269
102.02811039740064,472.70413777040227,245.51377084777332,99.68416792801453,106.82703178877709,59.81764215708344,61.59204331421386
101.67023390915116,473.48041725194,245.85117312521032,103.3376371663188,106.07372876586332,61.102739052034984,61.62830317762171
101.31023048988541,474.5494328594885,246.2503050084845,107.12454892512741,105.39796913477596,62.49660957794368,61.667909907716705
100.9485811338759,475.90469399797627,246.70777160686336,111.03709038299358,104.7990043260536,64.00345429529459,61.71053072742767
