HandOpen,HandClose,Wrist Flexion,Wrist Extension,Supination,Pronation,Rest
4.059928757186661e-07,3.6539358814679953e-06,3.1126120471764406e-06,1.2179786271559986e-06,1.353309585728887e-07,2.435957254311997e-06,2.706619171457774e-07
4.112713893783062e-06,3.742041791976623e-05,3.184657875567355e-05,1.2608803598494966e-05,1.4611252703096133e-06,2.4946945279844154e-05,4.816883960639669e-06
2.1673204510383218e-05,0.00019132235889000448,0.00016266864798977646,6.523524490031113e-05,7.927823099855037e-06,0.00012754823926000298,3.8070702445492215e-05
8.159095910880329e-05,0.0006625853894629905,0.0005628803346446252,0.00022897006086561582,2.9965944104603898e-05,0.0004418138136143756,0.00018964537820405754
0.00025202710862634614,0.0017762095358685786,0.0015081701248985666,0.0006231719706697723,9.350648891927128e-05,0.001185113774092592,0.0006930072182446316
0.0006854551719263657,0.003978743706165401,0.0033786662011468793,0.0014193476644956634,0.00026543432664712156,0.0026579614607882673,0.002024405537782461
0.0016946621978627377,0.007817727583667274,0.006644825184743434,0.0028381068262000493,0.0007064203844109551,0.00523320252837404,0.004993643798586063
0.0038512665682751595,0.013916708401131435,0.011850978123606916,0.005142126425783565,0.0017488129348065397,0.009344463196876655,0.01079730892850728
0.008078040040807612,0.022951720724695,0.019598642357392917,0.008627414858397558,0.003981040807110455,0.015480745312863382,0.021018528131321858
0.015703341783224325,0.03563917353594745,0.030537700438867697,0.013618031867292123,0.008310583473933285,0.024195792824740027,0.037578527164489055
0.028461883338517187,0.05275118333451039,0.04539330346965776,0.020473826429225524,0.015981789830983334,0.03613654958974896,0.06266022667909778
0.04844708667322848,0.07516767474031674,0.06505000677825855,0.029622943842932375,0.028545672578634298,0.052089790747658134,0.09862408128555744
0.07803364008971923,0.10395290706264167,0.09065785152928693,0.041621841253739654,0.047799304874453524,0.07304660189480534,0.147926918999421
0.11978942928950359,0.14042511263562105,0.12369290576621773,0.057227693293174293,0.07571454557625286,0.10027510222450843,0.2130467707019747
0.17638898372049489,0.18618763910249003,0.16594892933677885,0.0774571380049723,0.11436717578121453,0.13537113592367603,0.2964156963365499
0.2505336709155454,0.24310998583161356,0.2194874284529886,0.10360946378126118,0.16587555604705523,0.18025768166541237,0.4003670480542756
0.3448815195754863,0.3132712886626764,0.2865740167443455,0.1372476636304704,0.23236587418716625,0.2371333033890383,0.5271084508753973
0.4619937983036142,0.39888710923747916,0.36960914954584456,0.1801472450133683,0.3159819333948749,0.30839279716315626,0.6787307623128936
0.6043110966696111,0.5022340824050896,0.4710548432233157,0.23422947946302847,0.41893598409707816,0.39654167584301053,0.8572547707475398
0.774168669877066,0.6255792736458674,0.593362499291385,0.301492784459601,0.5435729866769736,0.5041154499150226,1.064704153439277
0.973845429361367,0.7711169884614864,0.7389072887166039,0.38395040385625095,0.6924215250970539,0.6336084517635467,1.3031802869024227
1.2056208959139905,0.9409158853812306,0.9099314744373095,0.48357721492480155,0.8682184901055161,0.7874170667293312,1.5749100739886723
1.4718070384829431,1.136881302855978,1.108497029841178,0.6022652930334879,1.0738994869034413,0.9678057458979813,1.8822465277881386
1.7747366795245694,1.360735090489854,1.3364515256134952,0.7417912096426005,1.3125502411340306,1.1769023991240548,2.2276205028987506
2.116713668387387,1.6140116838151926,1.595426842698394,0.9038053041077864,1.5873260488284922,1.4167159850513962,2.6134603819697633
2.499943213081385,1.8980731707989356,1.8868956932763745,1.0898529333331703,1.9013555627104288,1.6891533724685763,3.0421019509169738
2.9264593058239834,2.2141445611546926,2.2122701780902374,1.3014244356918052,2.2576439533137522,1.9960136505705852,3.5157033677639937
3.3980579237662645,2.5633553653199628,2.5729791080637145,1.540014060193865,2.658984726860307,2.3389564388608104,4.036171442355838
3.916238602563752,2.9467685453433465,2.9704793883510603,1.8071627191314141,3.107883663472509,2.719456509554766,4.605101616550154
4.4821569698336505,3.3653888909120533,3.4062127224004026,2.1044680797623503,3.6064946014600903,3.138758052936659,5.223737351268812
5.096598338554816,3.820149843763062,3.8815411380010554,2.4335592704341678,4.156568474760016,3.5978354703216175,5.8929619465755465
5.7599866263004085,4.311886365731292,4.397687777738014,2.7960442533676595,4.75942294594147,4.097365031455421,6.61332501134652
6.472421201368532,4.841317116187688,4.9557030181754165,3.1934467326037455,5.4159453423523205,4.637712000840249,7.38507470425928
7.233705718255215,5.40904963656186,5.5564674098980715,3.6271578571677665,6.126633127419244,5.218931595258154,8.208164881693168
8.043348811288645,6.015586685819978,6.200723641560583,4.098420821544382,6.891647585094388,5.840773130946702,9.082249102288479
8.90056242444097,6.661305989828988,6.889106249740651,4.608334547580712,7.7108470528381865,6.502678763793035,10.00669680430933
9.804289831943946,7.346422949076296,7.622141398529104,5.157843312254172,8.583799646379731,7.20377871790345,10.98063137588863
10.753250920713949,8.070974494206837,8.40024192326195,5.747705855495707,9.509792987448847,7.942888963314076,12.00295197503365
11.74596541440875,8.834841496228751,9.223757267825043,6.378472127141916,10.487835656589114,8.718516179900174,13.072323277946754
12.780748321956793,9.637778558837482,10.093075715371455,7.05048513353018,11.516643113343623,9.52887897437305,14.187165644574183
13.855714875764512,10.479414227372697,11.0086989930087,7.763887309009543,12.594628592048752,10.37195114501751,15.34567926455765
14.968816403612397,11.35923543440564,11.971246778506114,8.518606964902963,13.719920920302016,11.245511257742757,16.545888033412478
16.11787775689016,12.276595646864086,12.981441211431887,9.314335973344301,14.890397443191077,12.147175112654041,17.78566136078712
17.300603599804013,13.230744787533071,14.040116184366296,10.150527472626166,16.103701678089585,13.074411489993723,19.06270576601384
18.51457007465015,14.220840095319591,15.148219819389867,11.026414945853546,17.357240400751966,14.02455613177366,20.37456294577705
19.757239960903057,15.245923617024326,16.30678338136536,11.941024146015172,18.648187082871313,14.994826443707849,21.718639811656118
21.026000598961037,16.30490062812597,17.516900264100727,12.893163783588472,19.973510563909684,15.982332562319776,23.092246715589276
22.31818672386653,17.396548877747144,18.779741290412158,13.88141677599632,21.330011001818196,16.984087790102887,24.492608168466077
23.63107272986273,18.51954013071826,20.096550461057017,14.904154729525636,22.714337868788476,17.997023426899254,25.91685368701106
24.96186628547866,19.672437265489062,21.46857944130989,15.95956449437414,24.12300449651381,19.01800835636191,27.36203015630048
26.307736370247255,20.85366663167978,22.89700723638346,17.04565999039882,25.552438127679366,20.043869788309262,28.825147157844963
27.665859843868997,22.061499068627096,24.382904837708463,18.160277184027528,26.99906165312454,21.071409338445342,30.30321388941403
29.033441799565082,23.29405588609791,25.9272351987033,19.30107652050016,28.459350880986158,22.097413827883706,31.79323511249455
30.40770165486566,24.549321531637997,27.53083673077428,20.465566425186257,29.929837866223927,23.11867554260712,33.29218929549506
31.78586574143795,25.82515006981647,29.194373402660904,21.651130840247635,31.40709596024646,24.132040690643425,34.797026748826376
33.16519359266912,27.119275109347775,30.91827484736506,22.855041117221145,32.887743200009545,25.134475474376764,36.30468656897342
34.54301089935693,28.429325696572686,32.702679472143885,24.074461927234374,34.3684520354088,26.12311165024277,37.81210305608722
35.91671176226219,29.752837119214153,34.54738064238582,25.306472443983083,35.84594099657105,27.095259455559773,39.31619504149037
37.28374076449725,31.08724863257693,36.451796994014636,26.548097789912504,37.31695430760725,28.048420942437314,40.81386949852149
38.64159712761803,32.42989117420248,38.41500437359131,27.796326412472922,38.77825434955096,28.98032550728586,42.302062070452386
39.98787013179188,33.7779841462713,40.435823005068166,29.048109202526344,40.22663881508472,29.888960285255575,43.777787882238506
41.3202661287836,35.1286601993436,42.512884960473414,30.300365016700976,41.65896685191822,30.77256517296808,45.23816103639058
42.636602880136415,36.479006277602785,44.64462406683736,31.550010849711185,43.07216752065012,31.629607690060666,46.68038782616557
43.934803710630554,37.826088544806375,46.82921364180406,32.79399953492094,44.46322887047017,32.458772399587325,48.10177357673721
45.2129211078974,39.166955471392924,49.06450371456345,34.02933539660581,45.829197738007124,33.25896805682062,49.49975079361058
46.46916100898768,40.498658929253516,51.34797264232814,35.253069544575446,47.16720990390015,34.02932401431952,50.87189291652871
47.70187099953194,41.81833127954917,53.67669210947963,36.462306067588,48.47452747357046,34.76915974228527,52.21589466743686
48.9095105820722,43.12328798843728,56.04732344688382,37.65423400532589,49.748551302374025,35.47794417413355,53.529548357035914
50.09064656199309,44.411081608497,58.456157606415964,38.82616060260865,50.98681606822345,36.15527348741515,54.810751305466965
51.24397452674997,45.6794901877555,60.89916716934097,39.97551848589224,52.18700063075244,36.800876682628086,56.05753486625678
52.36832516630699,46.92649446731,63.37202659876669,41.09985670089737,53.34695741644819,37.414626987732184,57.26807560298883
53.462636246388115,48.15027910873765,65.87010495562122,42.19684702707394,54.46472912323698,37.99653643359817,58.44067811622977
54.52592110469061,49.3492326719891,68.38847970516997,43.26431237571824,55.53853952740616,38.54673842580793,59.57376126717819
55.557265992713205,50.5219235662114,70.92200238624658,44.30024828553895,56.56678935715647,39.06546897782269,60.66586837485811
56.55584408762356,51.66709095305834,73.46538395551502,45.30281544716995,57.548085788633294,39.55304628145279,61.715678345608204
57.520911152602714,52.78370014080378,76.01325131206632,46.27032069235631,58.481285179620706,40.00985042944771,62.72199105024877
58.45177788025148,53.871027895731146,78.56018745975315,47.201216192884544,59.365503960357614,40.436307088754496,63.68369826852424
59.34779253533859,54.92869007433648,81.10079266093662,48.09411658217381,60.20009487751463,40.83287289052446,64.59977314086395
60.20835628697091,55.95659455467124,83.62974694947748,48.947806078348755,60.984639321198244,41.200019344352334,65.46929074054368
61.03294612391315,56.95488383943782,86.14184246178445,49.76122219496322,61.718981273793716,41.53821474552979,66.29145428133657
61.82111103230786,57.92390588910951,88.63203018985136,50.53343746889875,62.40325552086337,41.847905051694426,67.06559533772231
62.572451538891535,58.864184343447505,91.09553685833325,51.26366175008713,63.037862471552444,42.129497408400184,67.79115521906783
63.28661703441239,59.77636057386735,93.52799690429464,51.95125370159368,63.62341394114966,42.38335241059858,68.46768142602298
63.963322518960304,60.661131121651664,95.92549982348736,52.5957150099232,64.16071189111369,42.609788024425754,69.09484630054997
64.60235298521495,61.51921802790753,98.28455565141081,53.196666430971064,64.65077927552204,42.80908881557139,69.6724573811736
65.20354244186701,62.35136826220882,100.60204229647897,53.75383183411744,65.09489158781513,42.98151005180851,70.20044067296834
65.7667549392302,63.158342899106465,102.87514974061254,54.26704645398136,65.49455776315699,43.12727380495932,70.67881962620174
66.29189464433992,63.9408779336139,105.10131533352319,54.73627235085481,65.8514710435245,43.24656527772188,71.10772015857383
66.77893049800974,64.69964771840675,107.27816328827718,55.16159595823539,66.16747793070063,43.33954851910417,71.48739472996463
67.22790034749171,65.43527078027135,109.40345418775934,55.543212982824635,66.44456427245133,43.40641733867191,71.81823029070863
67.63889103849371,66.14834759652675,111.47504491887744,55.881427524238305,66.68482424410048,43.44746195610878,72.10073048610832
68.01202832193957,66.83947600746463,113.49085746927808,56.17666921204782,66.89040776818877,43.463109697159645,72.33550507930148
68.34749902515344,67.50922143677305,115.44884598049329,56.42950079300909,67.06348012623494,43.45393645075963,72.52328822213238
68.64558232337986,68.158080579276,117.34698527518096,56.640601275614664,67.20621368399063,43.42068081988815,72.66495760857568
68.90665463067339,68.78647784163435,119.1833347496328,56.810746904007175,67.32078572884885,43.36426326677972,72.76152176763254
69.13117386510801,69.39478175230947,120.95615926672015,56.940814821766,67.40935026598461,43.28578115329827,72.81408996238405
69.3196782151856,69.98330427714691,122.66400508718374,57.03179816451337,67.47399403767805,43.18647314683173,72.82386282696285
69.47280479849125,70.55228274774797,124.30568408571568,57.0848023214557,67.51671335624268,43.06767924241747,72.79214836688693
69.59129473841286,71.10187995896636,125.88023086327222,57.10102034360354,67.53942231241557,42.93081969928964,72.7203683147679
69.67596840635917,71.6322100108611,127.38689981136854,57.08171805203956,67.54396156159528,42.77738803128959,72.61003428617514
69.72770103201505,72.14335281818248,128.82518871977058,57.02824603524828,67.53208037372251,42.60893691735793,72.46272002584136
69.74743227572249,72.63533764437054,130.19483903452144,56.94205578690478,67.505407517638,42.427051972101,72.28006279756966
69.73619621645264,73.10812703843251,131.49579601456256,56.82469130829056,67.46544625407071,42.23333222992953,72.0637834093362
69.69512781337282,73.5616349124057,132.72814795403517,56.67776313327656,67.41359716293613,42.02938802391546,71.8156862958925
69.62543462313721,73.99576261651589,133.8920674536159,56.50293285581287,67.35117301950709,41.81683813533686,71.53763100127247
69.52836939451151,74.41041064808401,134.98777514406615,56.30191316758241,67.27938666386244,41.59728900379512,71.23150941312623
69.40522950607304,74.80546162742002,136.0155505328509,56.076460411549,67.19934269831072,41.37230760941576,70.89925453233643
69.25736307558127,75.18077306490991,136.9757850114385,55.82834928433704,67.1120571696966,41.1434083386577,70.54285860249634
69.08615269993992,75.53620266028916,137.86901489994827,55.559354327913006,67.01847786790843,40.912052982868055,70.16436363447922
68.89298575863019,75.87164090169395,138.69589132800107,55.27126443816081,66.91947543326503,40.67964588666469,69.765828097353
68.67924455809833,76.18701653655172,139.4571351547739,54.965915041203715,66.81581708438627,40.44751805769139,69.34930431063214
68.44632268638304,76.48228411569418,140.1535485171819,54.64519609192223,66.70815514731842,40.21691489581059,68.91683546603159
68.19563425202642,76.75742554552338,140.78607785470453,54.311025451582026,66.59705544662312,39.98899593473274,68.47044578341696
67.92859231367923,77.01246005274724,141.3558575606556,53.96532159500128,66.48305588951436,39.764833336322056,68.01211016517252
67.64657807704346,77.24743441828004,141.8641900026319,53.61000203796008,66.36670505897368,39.54539726249828,67.54372889741457
67.35093639582743,77.46240241535729,142.31248718850458,53.246990254451326,66.24855412358718,39.33154034586324,67.06713684490296
67.04299822449994,77.65742667403251,142.70221792259818,52.87820170348034,66.12913946593837,39.1240165764215,66.58413453541093
66.72409593371947,77.83260057548745,143.03486695317224,52.50551285694709,66.00899404443786,38.92356007466295,66.09649902017364
66.39555257980668,77.98805386341897,143.31189310845897,52.13074340728707,65.88866695426296,38.73098760388428,65.60596323613993
66.05866699259883,78.12393184613799,143.53470443162482,51.75566374703104,65.76871409569371,38.5472493049893,65.1142007361704
65.71471870491024,78.24039347745824,143.70467136297972,51.382003559358424,65.64966865115343,38.37340574799731,64.62284362492818
65.36498069915508,78.33767873348238,143.8231430147458,51.011437715398976,65.53202986156353,38.2105786571266,64.13350869867315
65.01071295088022,78.4162163407699,143.89142251377112,50.645562556092756,65.41627791467928,38.05991881114567,63.64779321012547
64.65313930027189,78.47667862809793,143.91071795599225,50.28588980793372,65.30288050217902,37.922588716087404,63.16724790292776
64.2934364352068,78.51994904951599,143.88211869984065,49.93385542692738,65.19226917422537,37.79973821696837,62.69336850588681
63.93274256820579,78.5470614045611,143.80661156919902,49.59081584836194,65.08480949619214,37.69247433437627,62.22761542585879
63.572159284253466,78.55916477121002,143.68509709760428,49.258023899934926,64.98079584058331,37.60184451381393,61.77142358181995
63.212730317516495,78.55750298555081,143.51836988274206,48.936610127207835,64.88046413877224,37.528831535228306,61.32617826006483
62.855420039602386,78.54337522234475,143.3070812334351,48.62759006339465,64.78399217791632,37.47433842014337,60.893188296195326
62.50112070213545,78.5180795943409,143.05172489175902,48.3318813788869,64.69147882222666,37.439157770388185,60.47369831393706
62.15067844898033,78.48287445568118,142.7526588188557,48.050303938876596,64.60292828307247,37.42394770715235,60.06892936915377
61.80490143381291,78.43897433824158,142.4101365663899,47.7835670576429,64.51826339197764,37.42923836705326,59.68009638832782
61.464543042146786,78.38755351905557,142.02431329633737,47.53227192377913,64.43735345885385,37.455459392638765,59.30838207063
61.1302951703705,78.32972814249379,141.5952241107546,47.29693564494922,64.3600232754363,37.50295165224456,58.95490412655182
60.80281233119889,78.26653661721498,141.12276471178748,47.07800927899392,64.28604094147813,37.571947134343084,58.62071164879604
60.482737612279,78.198957305822,140.60670374555545,46.875870371763014,64.21511617493373,37.66254105936398,58.30679531964254
60.170696362994754,78.1279506684418,140.04672381002365,46.69080854812131,64.14692257594976,37.774696305639566,58.0140758423132
59.86727000840959,78.05447158739926,139.44246225286196,46.5230305325282,64.08111580908793,37.908293471760715,57.74337307344495
59.57298797088944,77.97943815689881,138.79354872912776,46.37267843061309,64.01732231063737,38.063185546499845,57.495393181632146
59.28834414924562,77.90370598093527,138.09966385871505,46.23983337985236,63.95511231735061,38.23920840675859,57.27074814689284
59.01380472784859,77.82808738746935,137.3606106509781,46.12449750156173,63.89399193312177,38.43615238324626,57.06997510065447
58.74978914841573,77.75338611690252,136.57635815330667,46.02657790028302,63.83343234958412,38.65373049394953,56.8935254519628
58.49665404776779,77.68039282684391,135.74704945356882,45.945892748733,63.772914029912684,38.89155666043521,56.741741521406425
58.25471270240239,77.60984151104643,134.87302873659516,45.882187663175735,63.711946992751585,39.149124726545985,56.61485529401895
58.02427188618134,77.54238031545655,133.95493638031584,45.835137792061346,63.65006458434532,39.425786487293706,56.51300547098641
57.8056413824617,77.47858717575784,132.99382517949263,45.804338153080565,63.58681886723406,39.720742066255646,56.43623823003458
57.599108397164784,77.41899459379576,131.9912094887724,45.78931090456037,63.52178336605175,40.03304682387269,56.384482579165066
57.40491275836128,77.36407922292088,130.949036804995,45.789538572408574,63.45454511731595,40.36161801563913,56.35753355260559
57.2232484105504,77.31423216728577,129.86962675629613,45.80449314270888,63.38469017052643,40.7052280526812,56.355070126938166
57.054273513418075,77.26975543313287,128.7555935844913,45.8336344803318,63.311812720338835,41.0624925702252,56.37668638066094
56.898101281958674,77.2308863622026,127.6097616936493,45.8763921625101,63.235552975615335,41.43187243030081,56.4218972606395
56.75477896632784,77.19780770270688,126.43513316979885,45.93216419947878,63.15562514309093,41.8117023121769,56.490123478520665
56.62428493277568,77.1706239032351,125.23495198530378,46.000341382332785,63.0718051025971,42.20023676214498,56.58069724975643
56.50654672483381,77.1493372843838,124.01280453270955,46.08032925412114,62.983894155082005,42.595691004403,56.69289966120839
56.40144903508563,77.13385862050049,122.77265800093309,46.171541894421814,62.8917004265523,42.9962673817861,56.825987648218884
56.30881493706071,77.12403474794789,121.51881386151659,46.27338067255642,62.79506316922257,43.40017089928521,56.97918024333059
56.228383568184725,77.11965080035972,120.25581957503529,46.385227676886984,62.693897797580064,43.80561472027094,57.151629764077164
56.159813024339904,77.12040270683495,118.9883925353837,46.506455609387345,62.588215944032754,44.210816486007786,57.34241692138015
56.10270319358986,77.12587824217822,117.72138245324506,46.63642931332404,62.478122632535666,44.613990265256646,57.550567941224585
56.05660758850531,77.13557057126177,116.45974431039308,46.774489513519555,62.363838437891935,45.01334369478856,57.775060872868394
56.02102414048002,77.14890045963824,115.20848490043471,46.9199417387354,62.24575056183523,45.40708924123952,58.01481140595259
55.995395324246886,77.16521589055013,113.9725912025419,47.07207030754681,62.12443535723852,45.79346266500574,58.26866898949919
55.97914412072242,77.18377796272986,112.75695719689283,47.23016105862565,62.00062213011593,46.170731250900076,58.53544441155378
55.97172223565858,77.20375966098327,111.56630207920722,47.39350362748586,61.8751326203115,46.53718790487982,58.81394233548513
55.9726260177522,77.22425650582933,110.40509562652655,47.56137606756711,61.74883880987378,46.89114484283908,59.10296337263868
55.981380012423166,77.24428747798285,109.27753546754784,47.733042315285836,61.622645558758514,47.230941063998365,59.40128387947124
55.99753295663581,77.26278446697391,108.18757126936777,47.90777254170173,61.49747763200702,47.554961533965255,59.707650767909676
56.02068820824031,77.27860219612243,107.13890675357672,48.08485923264768,61.37426073715584,47.861651804835745,60.02080159826168
56.050534063836835,77.29057242368322,106.13494725826227,48.26360662511756,61.253912183699015,48.14952203165036,60.339479150264275
56.08683965082654,77.2975703650057,105.1787422622331,48.44330848962626,61.13734602537749,48.417154588542644,60.662418939672115
56.12943922680664,77.29854346978304,104.27296688189845,48.62324472617817,61.02546552720863,48.66322382111768,60.98833280935941
56.17824350101343,77.29251596804664,103.41991708827196,48.802702893905085,60.91912834262791,48.88651367925409,61.31592082193022
56.233264050890654,77.2786280627082,102.62147764585943,48.98099833690852,60.81911225662272,49.08592283061357,61.64390312231999
56.29460604430716,77.25621355854106,101.87907236079029,49.15747060564139,60.72611196976238,49.260476187426256,61.97103398965793
56.36242483066172,77.22484785581001,101.19364613311457,49.331468453565655,60.64075483013597,49.40936073241528,62.296087179637176
56.436890035812326,77.18432328046946,100.5657063491997,49.502348810268586,60.56359903271022,49.53196321171406,62.617846424528544
56.51818671516511,77.13458185235756,99.99538570485853,49.66949031227069,60.495108930087916,49.6278752015692,62.93512986151953
56.606528423104876,77.07565051704188,99.48246761104217,49.832298444718546,60.43564588925197,49.696865452122395,63.24682669883621
56.702143587800386,77.00759205835367,99.02637703612731,49.99019197063426,60.385503623597856,49.73884643544487,63.55190501374245
56.805242753303226,76.93046573569872,98.62618848579201,50.14259005064214,60.344959201715334,49.75386234886875,63.8493937860313
56.91600558768884,76.84429536123378,98.28066417858113,50.28892224859422,60.31428923258701,49.74210432435095,64.13838021280371
57.03459564317464,76.7490558470441,97.98827971784371,50.428652718547546,60.29375123190129,49.70392562271534,64.41803305637008
57.161167860293716,76.64468920598686,97.74721426846962,50.56128844943524,60.28357047787741,49.6398290279925,64.68761509700367
57.295844568982915,76.53113311145009,97.55533965527226,50.686362693062456,60.283942969643405,49.55043757245314,64.94646150433046
57.43867991142053,76.4083276710754,97.41024165629051,50.8034173866013,60.295028480096114,49.436488994676516,65.19395118319416
57.589646926133064,76.27619564775857,97.30925498339035,50.9120062023404,60.3169312104065,49.298874830037356,65.42950780962916
57.74865142734326,76.13462982342766,97.24947695133865,51.011709109636,60.34970469494994,49.138689442069925,65.65262546601244
57.9155421278831,75.98351082668074,97.22776414036758,51.10213427517038,60.39339350207303,48.957239194787064,65.86287946388663
58.09009727808805,75.82273314761605,97.24075270042441,51.18290539559292,60.44806698624638,48.75601419031622,66.05990574093698
58.27201154868011,75.6522069099317,97.28492528267009,51.25365835683623,60.51381112187572,48.5366577302999,66.24337930747302
58.46091119469081,75.4718418543338,97.35669034089966,51.31405870265205,60.59071304383505,48.300941551399795,66.41302246895029
58.656380741129034,75.28154174039385,97.45242064154655,51.363818705232944,60.67888117787052,48.05073166692948,66.56862728801855
58.85796535487802,75.08121332544184,97.56844741494852,51.40269117093566,60.778476820873315,47.78794536198921,66.7100549627876
59.06514973939478,74.87076895056096,97.70105501235392,51.43044868002754,60.88970583092686,47.51452381190765,66.83721090790206
59.2773496026124,74.650111960681,97.84651443857992,51.44687702758162,61.01277162345037,47.23243841186447,66.95003331352002
59.49393826849651,74.41912302112378,98.00114491958017,51.451792826075724,61.14784059957896,46.94371017583054,67.04851345797931
59.7142861268132,74.17767073056498,98.16135727268446,51.44506127092861,61.29505355526249,46.65040331054052,67.13271607356431
59.93777509155139,73.92563878310575,98.32366206992741,51.426590672218715,61.45455519775605,46.35458578805089,67.2027679165919
60.16379201058065,73.66293731382659,98.48466723512128,51.39631391222477,61.62649254488682,46.058281068422005,67.25883231072801
60.39173684154499,73.3894870419923,98.64107617123916,51.35418215668132,61.81098645361703,45.76342886472967,67.3011047433572
60.621046933829575,73.10520342979763,98.78967448754743,51.30017503130129,62.008128576234824,45.47185562873421,67.32982582310625
60.8512011087595,72.81001255690529,98.92730988662395,51.234306976745046,62.218018760765105,45.185250705383524,67.34527807577727
61.081694030075965,72.50389164030757,99.05089235585986,51.1566154542724,62.44079036168593,44.90514775602987,67.34775941292816
61.312018197352124,72.18689356151329,99.15742426485856,51.067142793691886,62.676583354662775,44.63291809213314,67.33757158962815
61.5416829603709,71.85913819847778,99.24402973325518,50.965934432516725,62.9254960281664,44.36977910670264,67.31505303380419
61.770246484109634,71.52080652939489,99.30795418839381,50.85305773928632,63.18756868461568,44.11680293980833,67.28062409980947
61.99731788000297,71.17217817804892,99.34654610758554,50.72861886957332,63.46280368710469,43.87491026392574,67.2347928201036
62.22253207409782,70.81369373227834,99.35725232055164,50.59275805001105,63.75117720911237,43.64486028039016,67.17812441937983
62.445536164612314,70.44598371713016,99.33763829222416,50.44563448350483,64.0526206078752,43.42726176200855,67.11122165469949
62.66599772073985,70.06984916472821,99.28541258835757,50.28742807681151,64.36700391585109,43.22260729058129,67.03473363793735
62.88360498025909,69.68623353976716,99.19843005538063,50.11836458576752,64.69414686542224,43.03130180959697,66.94936087111257
63.09804229181796,69.29620890035669,99.07467821115753,49.93873892598684,65.03383234015804,42.85366294850373,66.8558313061927
63.30896761190741,68.90095546859959,98.91227140164507,49.74891347613636,65.38579047636317,42.68990243975614,66.7548705970163
63.516026102320126,68.501718836993,98.70946030655894,49.549302960470044,65.7496626832963,42.54010797041765,66.64720182561223
63.71888958869545,68.09976527452075,98.46463954674513,49.340372539032266,66.12497412392219,42.40423693821307,66.53356696009541
63.91727511829742,67.69636125119621,98.17634082934995,49.12265002357182,66.51111942403116,42.2821304563617,66.41472866193797
64.11092538676101,67.29276911568498,97.84322613886884,48.896727929697875,66.90734633659316,42.17354307672031,66.29143986911191
64.29958789424454,66.89023202711913,97.46410878365877,48.66324492660396,67.31273402867767,42.078167033100385,66.16441874395608
64.48302457879855,66.48995049263601,97.03800564470906,48.42286670715136,67.72618519009504,41.995645285648635,66.03436202534532
64.66103098567028,66.09307547980563,96.56418402036267,48.17628657136726,68.1464469910794,41.92559013728064,65.9019752622118
64.8334279308716,65.70071518055276,96.04216917172735,47.924236074096655,68.57214256905483,41.86760731818167,65.76797577092373
65.00002923215297,65.31392775082887,95.47172160165489,47.667481020792096,69.00178231311992,41.82130489290003,65.63306782550656
65.16062678624549,64.93369299927278,94.85281189545233,47.40680118125172,69.4337533714041,41.78628448342754,65.49792905116361
65.3150198827675,64.56088247278566,94.1856034433351,47.14297896195651,69.86631316980365,41.7621362355209,65.36322109268202
65.46306100741329,64.19624793486699,93.47043712377297,46.876810174572086,70.29760792684262,41.748448455246916,65.22959295477072
65.60466915690505,63.84042880950002,92.70781160142138,46.60911567459696,70.72570805487206,41.74481497809598,65.0976560926383
65.7398111946079,63.49395678669322,91.89836457597418,46.34072961759124,71.14863508429191,41.75082296420335,64.96795762226533
65.86849328173945,63.15724228469527,91.04287570853798,46.07247136862795,71.56438078899022,41.766032538701154,64.8409874436809
65.99077282614299,62.83056229688151,90.14230096831672,45.80512756873079,71.97094233079163,41.78997441292013,64.71721118860121
66.10675739948886,62.51408165638897,89.1978091933362,45.5394551305703,72.36636641037026,41.82216971012775,64.59708561908862
66.21657566242092,62.20790332386401,88.21078476190323,45.27618745248431,72.74876698686609,41.862146328170276,64.48103843788154
66.32035301781565,61.91210428635933,87.18279931841072,45.0160243269233,73.11630800108657,41.90943175120147,64.36944284784578
66.4182206628747,61.62673039133935,86.11558409323526,44.759612926266406,73.46718008780998,41.9635358567617,64.2626174250692
66.51033561835641,61.35176996999641,85.01102937631305,44.50754448024675,73.7996030488701,42.0239521605979,64.16083884377615
66.59687359355962,61.087139377518255,83.87120728001267,44.26037400055432,74.11185518309897,42.090182238873446,64.06433619789452
66.67799992658202,60.83268806835107,82.69838494896182,44.01863979030381,74.4022973672199,42.161755621607135,63.973267605793005
66.7538580856584,60.58820335310658,81.49501482821022,43.78286022038049,74.66936792101984,42.2382255858092,63.887712894259394
66.82458951234744,60.353400399879895,80.26372585531438,43.553516610036525,74.91156144247508,42.31916212922124,63.80769829102659
66.89035147841703,60.12791210052456,79.007324883346,43.33104769419288,75.12741770698781,42.40416942720987,63.73322343031477
66.95130374645068,59.91129873430066,77.72878474096946,43.11586341188877,75.31552903131649,42.49291372382961,63.66426027939411
67.0075830028749,59.703069508989266,76.43120966702469,42.908358384683105,75.4745536665619,42.58512709944905,63.600743004175825
67.05929852112942,59.50269101047499,75.11780686474,42.708905673857736,75.60322183429777,42.68058045855734,63.542585987073195
67.10654390358488,59.309579468413766,73.79188930407062,42.51783902532346,75.70034268934596,42.77904525260595,63.48972139874906
67.14939386991753,59.1231054748738,72.4568878821546,42.335448258964796,75.76482489580461,42.880264439685504,63.442111423502396
67.18788323995307,58.94263199395332,71.11633391227952,42.16199483402054,75.79569558805589,42.9839483296329,63.39972195117749
67.22199996468234,58.76756169179839,69.7738116347605,41.99772574444299,75.79210028705312,43.08979383516583,63.36249574552829
67.25170726158495,58.59735323369971,68.43290829241127,41.84286536206023,75.7533035877694,43.19750125263685,63.33035912240961
67.27696680116017,58.43150650691185,67.09717392152619,41.697594447990774,75.67871664689369,43.306775738972945,63.30324517638383
67.2977343249502,58.26955277054447,65.77008440140254,41.56204224832616,75.56793551256321,43.41733549747227,63.281093811735396
67.31394314549772,58.11106644388108,64.45500680715507,41.43630176847523,75.42075307343322,43.528936653947916,63.26382769385642
67.32550975700332,57.95567549356026,63.15518293131068,41.32044923169536,75.23713649850605,43.64138623185549,63.251345410582154
67.33235890158304,57.80304838354142,61.873740093514456,41.214544411772785,75.01719774017783,43.75452388469433,63.243552646063335
67.33443184606276,57.652873471606455,60.613704778347035,41.11861590187129,74.76119044263798,43.868194134108464,63.240395920932365
67.33166523409037,57.504861701064044,59.37798852178103,41.032655089331804,74.46953507965002,43.98223748370246,63.24185906260069
67.32397433742332,57.35876986136521,58.16934868164833,40.956626714918706,74.14283564039067,44.096497783947555,63.24793875581759
67.31127474198493,57.21440917747338,56.99034731663541,40.89047655639935,73.78186076450085,44.21082310409839,63.258643505735876
67.2935248608384,57.071625613148186,55.84332558760557,40.834120537104845,73.38750630584038,44.325051683590196,63.27401806655397
67.27074172911763,56.93028258809217,54.7303992553413,40.78742918898813,72.96077425783146,44.43899599604933,63.29415134973203
67.24298273980732,56.79027248784433,53.65346795082721,40.750230849318285,72.50278043283025,44.55243899743334,63.319148726974696
67.21033614397615,56.651536814441734,52.61423063650435,40.72233053851035,72.01476772164133,44.66514123950892,63.349102144016264
67.17294495917508,56.51406373710129,51.61421867820216,40.703518041137585,71.49809872846289,44.77684362976175,63.38409323505311
67.13103152202056,56.3778762600888,50.654850217651,40.69355486924577,70.95423898312868,44.887257556264416,63.42421465088825
67.08488535138508,56.24304863469622,49.73746889617424,40.692159963397685,70.38475643000444,44.99605534933938,63.469568760792335
67.03482973470614,56.10974654062617,48.863334585678004,40.69901199814558,69.79132863184215,45.102877084664414,63.52024004602297
66.98120561272022,55.978244005323106,48.03358649498471,40.71375915707223,69.17573011319728,45.20734780951869,63.57628118306681
66.92437457602378,55.84889626906765,47.24922261346815,40.736017005043806,68.53980585967602,45.30908459258095,63.63773561461613
66.86471070544148,55.7221027980287,46.51111404477805,40.76535443321425,67.88547215622165,45.407687456770454,63.70466539949421
66.80257517369947,55.59830481117288,45.82003002108072,40.80128846157864,67.21475959810661,45.5027314394931,63.77714521479578
66.73831148045738,55.478015411049434,45.17663697970001,40.843299699836145,66.52985163727604,45.59377911922136,63.855233832473466
66.67228617149125,55.36183425428849,44.58147193511081,40.890851045782455,65.83307332982963,45.6804093814673,63.93896184624473
66.60493666184612,55.250418898922796,44.03492385823438,40.943387343228025,65.12685834660257,45.76223550636319,64.0283389961462
66.53677314172798,55.14444111509758,43.5372396268757,41.00032171539303,64.4137584388785,45.83889782265588,64.12334895020791
66.4683407110647,55.044563876059065,43.088532972402795,41.06103339032007,63.69649701383166,45.91004317475168,64.2239200320834
66.40019312561716,54.951434262556454,42.68877537617527,41.12488664380904,62.97799543925494,45.97530402924012,64.32990370786051
66.33290338987568,54.865667134499134,42.33778524204452,41.19125178636506,62.261332014233,46.03427838022479,64.44109209138061
66.26707927534868,54.78781818415198,42.03524089701981,41.259506750934385,61.54968296437155,46.08651343951854,64.55725580972393
66.20334610514182,54.718365088122766,41.780705079952384,41.32902703509158,60.84630994053048,46.13150740987302,64.67815641473368
66.14231134635408,54.65769918744615,41.573628424364315,41.39919084717316,60.15458368226206,46.168746635720794,64.80352820791924
66.08454949994116,54.60611231309233,41.41333517014634,41.46940565630901,59.477977610207965,46.197766660388204,64.93306984938036
66.030607218808,54.563774973177765,41.29903022130496,41.53913006663203,58.820004505337465,46.21819200436364,65.06646458720171
65.9809950699756,54.53072289449056,41.22983905070527,41.607869387462074,58.184140564631115,46.229735183112766,65.2033971124107
65.93615529977664,54.506865924327464,41.204838451222635,41.67515709818113,57.5737872246564,46.23219447774779,65.34353772677797
65.89643623309924,54.492006764047076,41.223043725242974,41.740548677079474,56.99226494715267,46.22548948853265,65.48651233334421
65.86209970207751,54.48584490715162,41.283368755651914,41.803633070455916,56.44279251705409,46.20971159162765,65.63189367538281
65.83334265166216,54.487966796140434,41.38459389378446,41.864041684665835,55.928436433016586,46.18513727436377,65.77921488576925
65.81029641925247,54.49785536538323,41.52536953116716,41.92143946635354,55.45206861905805,46.15219259071225,65.92797480510316
65.7930047605613,54.51493863948707,41.704266488247406,41.97550759820061,55.016358682114905,46.11140066057557,66.07762166021386
65.78141899104985,54.53864517616676,41.919842834747556,42.02593658178731,54.62377156657997,46.06334606683244,66.2275400321269
65.77543055975778,54.568423238320925,42.17068005289423,42.07243198777025,54.27653847751751,46.00866334063098,66.37706493212269
65.77490996140834,54.60373434997064,42.455379866571064,42.11471690450671,53.976619635432364,45.94802899240993,66.52550700162584
65.77971157054021,54.644066399386865,42.77253946178274,42.152521630034045,53.72568977288147,45.88214148670308,66.67215715978628
65.78965384909957,54.68897286377035,43.12071402836225,42.18557397595528,53.5251345357694,45.811701164299336,66.81627269261104
65.80451694273025,54.73809685200564,43.498377703340104,42.213609347061706,53.376028190208054,45.7374043952468,66.95707883817147
65.82406524919953,54.79115828089405,43.90391057570465,42.23639651177513,53.279094978394795,45.65994387833327,67.09380187197573
65.84805776986359,54.84793088200461,44.33562859238221,42.25375281523627,53.23468778729467,45.57999998770389,67.22570527399395
65.87622585270039,54.908232249427485,44.79182788823991,42.26553597978761,53.24281484411529,45.49822617492041,67.35209675895828
65.90824940059603,54.97191370253178,45.270797529386144,42.27163071927862,53.30320139930277,45.415242644452114,67.47232045713281
65.94376994930818,55.038832283266174,45.77080225520524,42.271952455407366,53.415332166516706,45.331636499863535,67.58577243465649
65.982429860103,55.10881246934476,46.29008606835363,42.26646286579144,53.578446955628145,45.24795472878417,67.69193819922229
66.02389138868396,55.18162012509999,46.82692127477295,42.25517297102796,53.79151686160993,45.16470001861385,67.79041004252589
66.06782138508791,55.256960111184256,47.37965788753125,42.238127014988144,54.05323022471191,45.082362006018336,67.88086491971423
66.11387733002793,55.33448411988918,47.94672246641268,42.21538676426406,54.36198634060582,45.001481466820074,67.96303237816169
66.16172004553047,55.41378716291704,48.52657866708611,42.187030626397366,54.71589000947101,44.9226929078297,68.03668400393445
66.2110292748469,55.49439250789317,49.1176980104659,42.153156332720734,55.112761590105194,44.846710058227515,68.10163585100824
66.26149289332321,55.575749892889725,49.71856501222963,42.11387076156666,55.550178173057,44.77427952336124,68.15773648481753
66.3127852223469,55.65726555558585,50.32769636119043,42.06927160774524,56.02552607785673,44.706146036289745,68.20484077529218
66.36457057102548,55.73834394983382,50.94364308687963,42.01944182334168,56.53602783344044,44.64304441349887,68.24280001614628
66.41653043728327,55.818403627015385,51.564980450759286,41.96446555976935,57.07874190023285,44.58569853415671,68.27148302147177
66.46837473607893,55.896866075524784,52.19030833397233,41.90444715519969,57.65057210962076,44.53480236118668,68.29079924012011
66.51982001319715,55.973152493475624,52.81825425909815,41.83951112830408,58.24831072510563,44.49098394351084,68.30069247932357
66.5705688630735,56.04670539078341,53.4474553920885,41.769786785079056,58.86869040381477,44.45477408767277,68.3011208817176
66.62032903024762,56.1170107107157,54.07652430832825,41.695400300661895,59.5084057255755,44.426598297845686,68.29206122837545
66.66885805772422,56.18359559147557,54.704031316429315,41.61648657921878,60.16410764203356,44.40678875332689,68.27353665564561
66.71598259167934,56.246012494108584,55.32852643838028,41.53320606374259,60.83241793045857,44.39559558604858,68.24562787914805
66.7615773703921,56.303831028503424,55.948581260090705,41.44574521919523,61.509993442486376,44.39319488525146,68.20845161464487
66.8055448058314,56.35663391211044,56.56281177081669,41.354304327429205,62.19360447818247,44.399714930905,68.16214005790353
66.84782584278933,56.404002037127206,57.16988366842727,41.25909583466034,62.88016887237363,44.41527700175696,68.10685474134013
66.88841675124745,56.44549026981853,57.76852938923369,41.16036146952973,63.566737113013254,44.44001295695122,68.04281665475278
66.92735575027942,56.48060984874856,58.357570459821005,41.05838754564507,64.25047172133587,44.47404538656646,67.97030977620123
66.9646895405427,56.50882766023277,58.935914109072115,40.95349895757936,64.92864519595801,44.517462341314086,67.88965518744294
67.00045665362045,56.52957477691399,59.502524298310696,40.84604247584846,65.59863758041153,44.57032168574116,67.80119760520691
67.03469457797404,56.5422483979652,60.056391882018985,40.73638255130688,66.25791428162367,44.63267916181947,67.70532931869658
67.067440580253,56.54620708882402,60.59651260995224,40.62490980475787,66.90399794471433,44.70460199123492,67.6025219571238
67.0987088268619,56.54077898921185,61.12186466951404,40.512040180653266,67.5344599978546,44.7861555202909,67.49332444972283
67.12846809608777,56.525293518456,61.631382684178234,40.398195490644106,68.14693523348858,44.87740003900815,67.37833360127065
67.15665060876957,56.499115882998524,62.12393562693429,40.283784798184335,68.73913697257031,44.97842329107908,67.258177019028
67.18318194139496,56.46166091269283,62.598320647588125,40.169209288453956,69.30885716787938,45.08937413722134,67.13351787263508
67.20799323813506,56.41239990883009,63.05328124489474,40.054884039493,69.85397210867757,45.21045397133829,67.00504984519861
67.23100414048079,56.35088829609422,63.48753982978377,39.94124730731801,70.37248279195265,45.34187184762416,66.8734648932925
67.2521071868201,56.2768042712532,63.89981907513776,39.828746010522494,70.86257334731629,45.483795277585216,66.73942089555102
67.27117673746596,56.189962455224084,64.2888479853162,39.71781961967252,71.32263823877123,45.63631654993358,66.60353985158153
67.28808248565998,56.090295804689234,64.65338847786178,39.608904000833235,71.75126603397406,45.79943984177603,66.46642428992442
67.30268063054966,55.977837545548404,64.99230492055293,39.50244401133817,72.14722010755678,45.973084535872566,66.3286557538277
67.31479580297483,55.852724730442745,65.30463466616393,39.39888969998553,72.50944739275572,46.15709637835883,66.19077192235474
67.32422708035101,55.7152039720092,65.58960467360535,39.298678086663195,72.83709497931429,46.35125936418448,66.05325718829869
67.33077737811318,55.565612469692546,65.84659934932787,39.202227721923876,73.12950071720412,46.55529846281612,65.91656364267824
67.33426958747854,55.40434073787541,66.07513099510814,39.10995500474673,73.38616438432454,46.76886622934684,65.78113228154824
67.33453197109286,55.23181064839141,66.27485504367516,39.02228723343972,73.60673654429506,46.99152282305658,65.64738192838726
67.33138323776527,55.04849812573573,66.44561927789861,38.9396503894496,73.79103612772073,47.2227306121359,65.5156759434844
67.32465242769678,54.854988546063446,66.58749328449984,38.8624424578995,73.9390644576582,47.46187335529636,65.38629906353427
67.31421845048995,54.652012206136156,66.70075855290028,38.791018986647934,74.05099226260799,47.70828274858801,65.25945463952394
67.30002280731202,54.44043468592916,66.78589361585745,38.72569907025828,74.12713500149337,47.961245952758496,65.13526308682746
67.28204768619253,54.22123935743517,66.84356913379833,38.666772215035685,74.16793397458652,48.22000011214275,65.01374655211825
67.26030310305212,53.99553448748225,66.874627547383,38.61448767918758,74.17393803692951,48.48375271211828,64.89481936473209
67.2348523484324,53.76455911928471,66.88003893122358,38.56903460670885,74.14577519327877,48.75173678994129,64.77832193831972
67.20584516371936,53.529656662163596,66.86085958144157,38.530535091599866,74.08412218359284,49.023253528085746,64.66409690890256
67.17351456955406,53.29224016488503,66.81820983702731,38.499056373307184,73.98970229143393,49.29766827432612,64.55205018183244
67.13814723923576,53.05379026857102,66.75325409248741,38.47462345284284,73.8633234881035,49.57438590666512,64.44215613075775
67.1000724036527,52.81587498487123,66.66716542143938,38.457215218217534,73.70591784002043,49.85283724237674,64.33443613526971
67.05967684477129,52.58014372078856,66.5610875789277,38.44675453874096,73.51853790825297,50.13246901553163,64.22895385979307
67.01740685693666,52.348280743052094,66.4361376414677,38.443113301083464,73.30231999367967,50.41271976637673,64.12582124863856
66.97373874770129,52.12194995485786,66.29349128720334,38.446130280091374,73.05845795627339,50.692986600215,64.02518684077609
66.92915500387132,51.9027639782368,66.1345181621915,38.455618491647996,72.78820336598234,50.972604794832016,63.92721252613892
66.8841598586404,51.692275774954226,65.96086418454762,38.47135262907053,72.49286443933649,51.25085595443934,63.83207022788433
66.83930638083427,51.49196538880949,65.77443726200545,38.49305540993392,72.17378089853331,51.52699250094143,63.739959619013845
66.79518746539799,51.303215647275756,65.57734819013508,38.52040337591643,71.83229025664524,51.80024805404806,63.65111097118919
66.75239380555807,51.127311135618726,65.3718478101655,38.553046627616354,71.46971082236708,52.06982628749923,63.565756014170255
66.71148395816816,50.96548098767436,65.16025686042993,38.59061917808034,71.08734080276325,52.33489455553052,63.484094723317355
66.67299040668036,50.81894620088551,64.9448901487521,38.63273269731386,70.68645281225608,52.594601638117766,63.40628755888876
66.63743391490802,50.68892290271747,64.72799307078093,38.678973366364104,70.26827416585165,52.84810218735832,63.33246269359012
66.60530891664814,50.576592258865915,64.51170205406352,38.72891693227146,69.83397015161243,53.09455984561847,63.26270924761658
66.57704811207743,50.483076970136345,64.2980201270865,38.78214659520879,69.38465442955143,53.33313158365494,63.19705804730062
66.55300867870068,50.409426954331714,64.08878922791881,38.83825150733797,68.92142288756234,53.56296384586189,63.135486174901004
66.53349592254378,50.35659047084952,63.88565963868719,38.896811788032515,68.44537745330364,53.78321875678854,63.07796350734771
66.51878813138697,50.32537435049065,63.69007955494573,38.957395299861346,67.957621746966,53.993110470877745,63.02450398942507
66.50912746303209,50.31643134694464,63.5033144228856,39.019573719190106,67.45925490684414,54.191923953823135,62.97517390986897
66.50469548946016,50.33029649840151,63.326469517632574,39.08293661509265,66.9513940450983,54.37902338029687,62.930063388513766
66.50561271750082,50.367437197592686,63.1604882200693,39.14708469855846,66.43520863500217,54.55386768949219,62.88926459521936
66.51195936533908,50.42826404427041,63.006140235419906,39.21161188577587,65.91192912727328,54.716019447389975,62.85287262727281
66.52377958188536,50.51310357084389,62.86403255462214,39.27609874861796,65.38283467070372,54.86512797145728,62.82098346596305
66.54105952761371,50.622181280797044,62.734639732728915,39.340122987719546,64.84925543049214,55.00090035014574,62.79367279657828
66.56371787684637,50.75563731035702,62.618317830782225,39.40326995974712,64.31258991132347,55.12308905303483,62.77098248363995
66.59163769361218,50.91354115795636,62.51528647632719,39.46512764089615,63.77430186490047,55.23150112399095,62.75294537273666
66.62471055422405,51.09587404440943,62.42560133622071,39.525273734990826,63.23588340610074,55.326004478440524,62.73962914737161
66.66284478879261,51.30250244608629,62.34914988528994,39.583276801504226,62.698808719517984,55.40651164398733,62.73115104579383
66.70593913336344,51.53318250572826,62.28568133019694,39.6387169542615,62.164505510832264,55.4729546936638,62.72765669433052
66.75386572697033,51.78758628962889,62.234846017709565,39.691204163095975,61.63434699024061,55.52529349814662,62.72930667592177
66.80648110242832,52.06530637298761,62.19621478238705,39.740374631115245,61.10964613615811,55.563587132176394,62.736296285414085
66.86363480381198,52.36582582928373,62.16928248471255,39.785875156468926,60.59163812480536,55.588091057622194,62.74887664702194
66.92514966754476,52.68848312526975,62.15347208048392,39.82735949766749,60.081462922236106,55.59930109102773,62.767338588820586
66.99079304154704,53.03245586249792,62.148132921666985,39.8645024596064,59.58017449334949,55.59792255599891,62.79197177033752
67.06027286834106,53.39675511313904,62.15252311593146,39.89701180345878,59.08877539473575,55.58481509440462,62.82304033892569
67.13325853477438,53.780214913285924,62.165791505192345,39.924621499196896,58.60824249739022,55.560952652495885,62.860783758238206
67.20939278252146,54.18148770308219,62.18700054770481,39.947076900126596,58.13953807974811,55.52739032184115,62.90541110671087
67.28827693470433,54.599076753764834,62.21521599135628,39.96413227327199,57.683643931667525,55.48522980147729,62.95707081767479
67.36945551976359,55.031405309802025,62.24961738013267,39.9755618454686,57.2416197651861,55.43560470198735,63.0158219607299
67.45243067255913,55.476870736767005,62.28954699787932,39.98116651317046,56.814629639592496,55.379691970607645,63.08163838398063
67.53669292652854,55.933846295666825,62.33448046565723,39.98076483176231,56.403908063264666,55.318714419806305,63.15443467883407
67.62172967108546,56.40065363637326,62.38397251586317,39.9741776945549,56.01070115697378,55.25390797102332,63.234075306817374
67.70700510687126,56.875548695565364,62.43762023008836,39.96122520280222,55.63622268896613,55.18647105468517,63.32035823972109
67.7919487536327,57.35673449534614,62.49503953547119,39.94174018574379,55.28162584986953,55.11752810149052,63.41300781530841
67.87597908799827,57.84237887768786,62.555840216833616,39.915581121417794,54.94797146574638,55.04811754363607,63.51169820284902
67.95853732280221,58.33061549167782,62.61961264219136,39.882628889866595,54.636188776968666,54.97918858144218,63.61607834451258
68.03909082195436,58.81954474963693,62.68594367641213,39.842775792010904,54.34704610685227,54.911587626239815,63.725764261343365
68.11711113124687,59.30726544637615,62.75443949764262,39.795928212773276,54.08114338639083,54.8460336651564,63.840311820285656
68.19207055535517,59.79192658242164,62.82472033508586,39.742027400977896,53.83891426572348,54.78310002951921,63.9592085087305
68.26347587896832,60.27175646347308,62.89639469059986,39.681066355368145,53.6206182938653,54.723222696616496,64.08189233169563
68.33090362283126,60.745054589321896,62.969050336790495,39.61308395843832,53.42632502938835,54.66673076609897,64.20776632124742
68.3940006708443,61.210177010406824,63.042272876681004,39.53814696452986,53.2559149160731,54.61386819175367,64.33618761286766
68.45246820784268,61.66554722042548,63.115661711416614,39.45634578764657,53.109112560627594,54.56479642778313,64.46645472071444
68.50606625439717,62.10968471339077,63.18881802810414,39.36781296899509,52.98553018033783,54.51960670805958,64.59782574289085
68.55463203266082,62.54121695461286,63.26132047540259,39.27274285215118,52.884686070664614,54.478355192071014,64.729557627934
68.59807551228147,62.958869837037284,63.33271929158013,39.17138921420072,52.80599664311756,54.441089370816776,64.86092581577302
68.63634632834446,63.361467372806366,63.4025487613582,39.064049480835266,52.74876597368207,54.407840341834074,64.99122305441495
68.66940334324035,63.747948083224706,63.47032913604739,38.95105906408422,52.71218217386071,54.378599567578725,65.11979674436617
68.69720667179821,64.1173683949741,63.53554683299546,38.83279658101214,52.695311558704965,54.353309960197144,65.246145567622
68.71971654697056,64.46888528141415,63.59763858045001,38.70968060852932,52.69708614181724,54.331871443006676,65.36999546966324
68.73687790047002,64.8017603858487,63.656003512507745,38.58215154676594,52.716294890917794,54.314138785781736,65.49129383990906
68.74859927490591,65.11541441526192,63.71002926272089,38.45065569419325,52.75159965713892,54.29990713913437,65.61016860667982
68.75475298487231,65.40948746288689,63.759100631915686,38.315646550193726,52.80158561787826,54.288912091324974,65.72690619680458
68.75519780785608,65.683843586002,63.802586065552624,38.17759349490095,52.864819075162366,54.28086019047734,65.8419314294481
68.74979152555368,65.93852403626181,63.839831762841044,38.03697856705121,52.939877531606044,54.27546121570769,65.95576143606412
68.73837575171854,66.17370120720541,63.870190734380124,37.89428314910427,53.02536624892296,54.27242760001068,66.0689469443247
68.72076105226058,66.38966160579442,63.893070539677126,37.74998287917902,53.119956112403315,54.27144923314053,66.18203348501251
68.69674456050643,66.58679685714812,63.90795639792288,37.60455368551109,53.22242693865115,54.27218033654448,66.29555578003894
68.66614637518876,66.76557180561491,63.91439857023284,37.458471609809294,53.3316736295332,54.27425529173506,66.41004237894869
68.62882407366169,66.9264740119791,63.91199147643627,37.3121967185889,53.44667666834989,54.27730984557665,66.52599932515784
68.58465757146429,67.0699761555737,63.9003609021907,37.166152575225084,53.566477289499915,54.28098048427305,66.64388215120007
68.5335415778057,67.19652887606793,63.87914869090095,37.02071967093263,53.690176910105485,54.284896440070476,66.76409529737465
68.47541239347116,67.30656628786681,63.847989847665104,36.87624770407111,53.81693860913304,54.288701718371215,66.8870264059726
68.41028217882693,67.40050009626526,63.80650271020053,36.733070449406824,53.94596815617167,54.29210771672806,67.01307894899132
68.33823882897477,67.47871469068676,63.7543155826609,36.59150488031767,54.07648693710228,54.29493000233509,67.14267255214016
68.25941811007533,67.54159035339539,63.69111615850896,36.45183894982627,54.207723810163706,54.29707755507371,67.27621650793782
68.17399461752387,67.5895407354304,63.61668003034947,36.31433079223309,54.33892907731404,54.2985172566726,67.41407785078152
68.08220959270342,67.62302363039022,63.53086340485483,36.17923013494092,54.46938460404735,54.299253135487255,67.55655277339591
67.98439669898282,67.64252172281124,63.43358953820644,36.046802419856824,54.59838936292027,54.29932664727432,67.70383701994103
67.88096901223768,67.64853893555689,63.32485174884654,35.917332607837366,54.72523128825604,54.298813907917236,67.85599608112385
67.77238735247343,67.6416401222517,63.20472076646963,35.79111676466362,54.849178966477076,54.29781219196467,68.01295174146513
67.65915016298068,67.62249447116206,63.073336188636915,35.66846288261803,54.96951881539261,54.29644251942971,68.17450335116222
67.54180271868573,67.5918698592896,62.930886268359664,35.54969838095418,55.08561776056519,54.29487895992981,68.34037001754338
67.42092979296667,67.55058512000006,62.77759581514464,35.43516488136625,55.19695910331944,54.29336841896223,68.51021184982145
67.29712122401968,67.4994723261852,62.61372319464977,35.32519738199398,55.30313951973921,54.292212027226036,68.68362311390148
67.17094181080472,67.43938726751269,62.43954812127873,35.220108389331116,55.40386582431124,54.29172777636606,68.8601409783332
67.04292978759534,67.37125061581338,62.255347395269254,35.120194389462895,55.49896624464331,54.29222583241105,69.03928734101665
66.91360417302556,67.29606685988958,62.06138316595008,35.02575366424766,55.58838763046606,54.293998966064606,69.22059835789418
66.78345080773568,67.21490797894879,61.85792275395256,34.937089068206,55.672172042121275,54.29730939257098,69.40360740616755
66.65289452005102,67.12889531652445,61.64527032324637,34.85448993383274,55.750447011794584,54.30236198007649,69.58780905785714
66.52229165340881,67.03918833321391,61.42377674604466,34.778213646201344,55.82344368624464,54.30927675379755,69.77264440958277
66.39195388593711,66.94695580811056,61.1938340056617,34.708482593077385,55.891510202631174,54.318090238186414,69.95750743689544
66.26217282892854,66.8533270906693,60.95589031922187,34.64548683836072,55.95509115159993,54.32880191455972,70.14174356816106
66.13321599890891,66.7593554254639,60.7104883128554,34.58937614691792,56.014691118949415,54.341433548662174,70.3246387720667
66.0053089920216,66.66601754521672,60.45828586998713,34.54024512167141,56.07086126654208,54.35605082175454,70.50545032732094
65.87863896802963,66.57423045743059,60.20003632663968,34.49813158205164,56.12421124242692,54.37274698947016,70.68351035962705
65.75337901197742,66.48484733717595,59.93655466421229,34.4630359825504,56.17540843186754,54.39162870062261,70.85833567130307
65.62969742963662,66.39863201168174,59.66870932738245,34.434942255879214,56.225144469933525,54.41281721142515,71.02965676119722
65.50773914965231,66.31625060638004,59.39743933537039,34.41381861309285,56.27409223606681,54.43644222243853,71.19737609362954
65.38761368169203,66.2382974521241,59.12375885356522,34.399606859472314,56.322876965144154,54.46262004624174,71.36152617994847
65.26941939600665,66.16532132861371,58.84873169959964,34.392225024355994,56.37205577308498,54.49143576770159,71.52225681173537
65.1532806319343,66.09781688463701,58.57344549482732,34.39158516221707,56.42209350965235,54.52293686373676,71.67982614733864
65.03935450747906,66.03619825375094,58.29901244487511,34.3976026449295,56.473338300057655,54.557122252955836,71.83457345547644
64.92781040037721,65.98080226391129,58.02657605857693,34.41018520966316,56.52601024764035,54.59392150657098,71.98689000228534
64.81882347611568,65.93193272018337,57.75729232415891,34.42922030893691,56.580211769810866,54.63318150872393,72.13720538746
64.71259385306784,65.88990128441519,57.49229397007558,34.45458216764208,56.63594754146886,54.67467185020334,72.28596880983942
64.60935585068177,65.85502759261024,57.23266603813163,34.48615088292898,56.69313091373715,54.71809535615892,72.43360714202437
64.50935551417108,65.82762137197845,56.97943830338126,34.52381772094672,56.75157847429346,54.763084970788206,72.58048623100659
64.41282726405223,65.80798171716027,56.733582386606045,34.56747146282068,56.811025325207204,54.80919101320189,72.72690738857311
64.32000544041517,65.7964003584426,56.49600802769601,34.6169886187579,56.87117630883296,54.855883249195585,72.87312351679927
64.2311532712489,65.79313996754529,56.26756092944374,34.67224350029037,56.93175685939159,54.90258218057797,73.01933365544059
64.14656393906284,65.79839764414795,56.04901897134545,34.73312376093624,56.99252282889452,54.948700427250806,73.16564978778301
64.06652676598515,65.81228774980428,55.84107636888414,34.799528855320986,57.05324394319961,54.99366172217727,73.31207228961514
63.991295444741084,65.83485242381047,55.64431657871595,34.87135511563202,57.11370298056738,55.03689400091808,73.45850101513292
63.9210858762929,65.86607142679262,55.45919635943021,34.948492646802194,57.173714961944654,55.077819499297085,73.60476306373837
63.85608727187979,65.90585169806623,55.28606004203958,35.03084343208802,57.23313346928993,55.115851149125376,73.75062180680506
63.796454392331206,65.95401876227758,55.12516841429662,35.118338946367714,57.291829663933534,55.15038393222752,73.89576621168389
63.74228402244558,66.01033141061943,54.97670808734703,35.21093617278627,57.34967091310512,55.180781380084056,74.03981266479815
63.69361127297444,66.07449678137051,54.84077549337719,35.30860226300819,57.406526561137305,55.20638549061324,74.1823374955984
63.65043721346002,66.14615646121842,54.71736302415046,35.41131022333743,57.46228695343037,55.22657459163842,74.3229150813901
63.61275291297716,66.2248538766018,54.60636622073993,35.51904393663285,57.5168609736391,55.2408434368018,74.46112844155329
63.58053291949032,66.31001447074894,54.50759877546442,35.63179228998049,57.57014944570441,55.24884683764444,74.59656626975281
63.55372220461742,66.40095171214983,54.42079491543514,35.74952950247594,57.62202978822507,55.25038511926868,74.7288399586972
63.532247952079324,66.49688177333394,54.34560803342567,35.87220391470222,57.672373438584586,55.2453650900711,74.85760715106444
63.516041002515,66.59692526498394,54.28163709795541,35.99974879944402,57.72106968553525,55.23377843843565,74.98256889345076
63.50503230391565,66.70010339125348,54.22848235852046,36.13209688656617,57.76802600110827,55.21570358302147,75.10345582596878
63.49912848855283,66.80535372903255,54.18578538294047,36.26917559575975,57.813164603335856,55.191304201801415,75.22003908429565
63.4982036373374,66.91156471561142,54.15322333575623,36.41089027269953,57.856446578882235,55.16081076998265,75.33215315263341
63.50211837900224,67.01759754407384,54.130489128768716,36.55711948267295,57.897904077181366,55.124503374248114,75.4396880713293
63.51073322201638,67.12228176992228,54.117314522740045,36.707725402312555,57.93763904597716,55.08271178561154,75.54254738814508
63.52389285220378,67.22441507728455,54.113540673597335,36.8625586351124,57.97578783995561,55.035822645827146,75.64061369228841
63.54140639663845,67.32280320968246,54.11917118001858,37.02144636111342,58.012485375944145,54.98427276356413,75.73375076626688
63.56305565396199,67.41632550181319,54.134368152718025,37.18417890670556,58.04784932289159,54.928527878116974,75.82182045261754
63.58861885984507,67.50397380133273,54.15943455269508,37.35051196186028,58.08197349849483,54.869067763865,75.90467537209902
63.61787274043642,67.58485103129783,54.194820920748704,37.520177105960514,58.11491132875184,54.80638161664826,75.98212708350802
63.65056653527799,67.65816816341126,54.24112449041947,37.69288014769127,58.14665032514614,54.74095347908613,76.05392732033579
63.68640464856784,67.72326043925797,54.29905023277855,37.868285395759806,58.17709695801577,54.673235187562014,76.11978765825619
63.72507352629204,67.77959697625224,54.369367906009884,38.04600719888408,58.20608296967989,54.60364293720116,76.17941482056912
63.76629658674639,67.82676438199428,54.45290412701594,38.225623611150716,58.233378604860995,54.53261204429798,76.2325207767566
63.809863243007584,67.86445262764158,54.55054518760182,38.40669763639599,58.25869197453815,54.46068233086834,76.27880790716702
63.855616839516884,67.89247621734229,54.663208139165526,38.58878197739584,58.28166004335463,54.38854157826245,76.31796605922304
63.90344820152253,67.91080741122087,54.79179075109844,38.77140891655114,58.301856862128254,54.317002925842004,76.3496927921538
63.95332901677615,67.91957263618411,54.9371415093342,38.95408804920672,58.31882258172808,54.246962705154196,76.3737047152662
64.00535185106799,67.9190113094019,55.100054363257215,39.13631971541687,58.332083652958445,54.17937609506238,76.3897192922198
64.05972774933728,67.90944222956207,55.28125305263817,39.31760641512838,58.341146697132956,54.115236280740106,76.39743454754877
64.11674966712064,67.89126331663768,55.481347218188624,39.497446828405,58.34548972725623,54.055536459759836,76.39654130461601
64.17676646780207,67.86495857495184,55.70078693894977,39.67532146182653,58.34458214618409,54.00123446138634,76.38675636292005
64.24017689303325,67.83107836853124,55.93985186837066,39.85069193172549,58.337927089648545,53.95326262596116,76.36783479997749
64.30741157886952,67.79020332727369,56.19867275098178,40.02301969034501,58.32508820314364,53.912582402867166,76.33954969973601
64.37888745052108,67.74292648735208,56.47724487718034,40.19178311734618,58.305680723511735,53.880221181489695,76.30167300398172
64.4549570440497,67.68985980184719,56.77541468731061,40.35647429924293,58.279342356694755,53.85725065939155,76.2539860664512
64.53587509490302,67.63163655735278,57.09287139138698,40.51658715283197,58.2457078171232,53.844746211853966,76.19630153904907
64.62177748015512,67.56889060026113,57.429169126484595,40.671622002059316,58.20439915740855,53.84378164193834,76.12846133992296
64.71266167931618,67.50223336706142,57.78375429863862,40.82110947152787,58.155028248309165,53.85544986206949,76.0503141773337
64.80838792668733,67.43225796018187,58.155964445655165,40.964629265477015,58.097203886026655,53.880858401999774,75.96170982772011
64.90874163681639,67.35955777268981,58.545006860914484,41.10180559060314,58.03055340127668,53.92108083175753,75.86252290158264
65.01354627477572,67.2847234667559,58.949944940202094,41.23229196625007,57.95476532179391,53.97709215183266,75.7526723487941
65.12274263116731,67.20832029289672,59.369696139617005,41.35577213324727,57.86962349275665,54.0497211514189,75.63210678275682
65.23638579348199,67.13088388719474,59.80302611143829,41.471982458995534,57.775002798860285,54.139627197710624,75.50077230754694
65.35462346280056,67.05294273605055,60.24854112432641,41.580730324041554,57.67084423399087,54.247283994735454,75.3586026636833
65.47774580288416,66.97502909364634,60.70471098402383,41.68188717844132,57.55715018183923,54.37295704603879,75.20554321816525
65.60629189997978,66.897657245147,61.16993680322415,41.77537114494699,57.434007174488976,54.51668918149208,75.04157561000578
65.74110436237392,66.8213005519292,61.642616928356055,41.86114626647702,57.30160120266207,54.678310482505466,74.86671254541227
65.88327959981572,66.74639812208841,62.12115921552946,41.93923544044926,57.160202604901116,54.85745774744633,74.68098034853905
66.03407495057652,66.6733712064871,62.60395030810204,42.00972081395624,57.01014552539164,55.05357833090152,74.48442403910623
66.19484103924572,66.60261570125729,63.08932674562014,42.07272507977447,56.851833547079416,55.265921927560086,74.27713082121618
66.36697604453943,66.53448003526245,63.57557230752638,42.12839791718683,56.6857597255939,55.49354645779721,74.05923659553866
66.5518683693246,66.46926228870782,64.06093085690718,42.17692538627081,56.51250609206531,55.73534710122526,73.83090626953552
66.75083704942601,66.40722891645146,64.54361223517864,42.218545658658954,56.33272169086556,55.99008537222315,73.59232075630179
66.96512350702793,66.34862344522539,65.02179358242604,42.25354548146028,56.14711967034443,56.25639570297135,73.34369455063565
67.1959445856155,66.293652363871,65.49363366862947,42.28224132825003,55.95651233917479,56.5327801081921,73.08530111735294
67.4445313878812,66.24247650700127,65.9572985016886,42.30497122553325,55.76184204889699,56.81762293067048,72.8174712386721
67.71209903538235,66.1952263353851,66.41098519750885,42.32210541871086,55.56417314604242,57.10923719442239,72.54057047371712
67.99978951816406,66.15201332207702,66.85293755710212,42.334053629192645,55.364689066827225,57.40591210473718,72.25499282041898
68.30863788942861,66.11290981870238,67.281454494654,42.34124958199903,55.16474925172623,57.705927430109334,71.96118039226573
68.63954694552237,66.0779156489156,67.69490224824337,42.34412385607747,54.965966786207794,58.007540819180676,71.65963575053689
68.99324501884969,66.04695258317442,68.09173203680362,42.343090151437096,54.770220259749046,58.30897731742298,71.35090344152466
69.37023793797607,66.01989934522652,68.47048410010669,42.33855155365665,54.57958739421231,58.60843289344221,71.03554318549149
69.77077828339708,65.99663109422949,68.82977457995088,42.33090743645144,54.396266332788805,58.904079703583704,70.71412634088294
70.19485646917174,65.97702273901226,69.16829271958986,42.3205430207062,54.22253460049682,59.194063723610014,70.38724936162477
70.64219640285592,65.96092363004945,69.48482114297519,42.30780957337069,54.060728386585524,59.47650822083453,70.05553227177022
71.11225065129055,65.9481415961078,69.77825223742902,42.29301765204404,53.913199087600844,59.74954207345058,69.7195931187022
71.60422605088394,65.93844983406983,70.04757502193078,42.27644954152291,53.782242881985376,60.011347124325674,69.3800260025124
72.11715280012719,65.93159301567431,70.29184299919463,42.25837077115512,53.6700399706254,60.2601952028294,69.0374066497656
72.64994713460437,65.92727022070436,70.51015589026115,42.239022141619664,53.57863097223828,60.494455867227444,68.69230953332715
73.20141676914551,65.92510420485253,70.70168010472258,42.21860237127961,53.50991409835009,60.712586992062704,68.34530444398078
73.77023269131239,65.92463143634356,70.86569556080188,42.1972668547201,53.46562555907812,60.91313018650227,67.99693457975116
74.35494512083565,65.92534239717658,71.00163642574834,42.17514843033131,53.44729779331436,61.09471387718105,67.6477118964292
74.95407356813155,65.92675479912003,71.10913361134847,42.15237653374021,53.45623311509539,61.2560581027844,67.29814721076562
75.56619531860788,65.92846184221654,71.18807967445139,42.12907370945914,53.49352117967797,61.39598979212845,66.94878847153065
76.18996768043824,65.93013588965712,71.23867550721859,42.10533980329794,53.560073380159906,61.5134726304211,66.60023665131305
76.82415217349231,65.93152999603988,71.26140929365715,42.08124914620621,53.656629024231485,61.60762952358332,66.25314719742993
77.46771638912081,65.93249990598729,71.25699203064976,42.056865723568016,53.78373837198573,61.677740496333016,65.90824231685426
78.1199387234727,65.93301152811166,71.22632185075499,42.03225502609166,53.941757711833105,61.72322722513042,65.56632798023809
78.78040361286322,65.93311085702138,71.17052396157001,42.00747538079317,54.13085465973928,61.74364158423755,65.22828375072318
79.44891245099426,65.93288847224844,71.09102921969892,41.982558520189635,54.35099928233801,61.738661358183954,64.89502359531829
80.12543439276622,65.9324734926823,70.9896008136555,41.95750232127816,54.60195199501406,61.70808270690611,64.567469101963
80.81015671298881,65.9320426946292,70.86828128325904,41.93228271198451,54.88327931134741,61.65180324911526,64.24656058702774
81.50355256686035,65.9318075374304,70.72931881897621,41.9068665476655,55.1943894026136,61.569816385257276,63.93327476165294
82.20635635363634,65.93197549934814,70.57511840801958,41.88120787068655,55.534545869501436,61.4622459355767,63.62861052868234
82.91944715138446,65.93272186691117,70.40819898351724,41.85523786801887,55.90284430382833,61.32940560869815,63.33356045844942
83.64371939820225,65.93419833615928,70.23112787066235,41.828872497950854,56.29818212364593,61.171827645939594,63.04911110834535
84.38000877814866,65.93655676389167,70.04644369076303,41.80203712408172,56.719263908222985,60.99024348723207,62.776267638140276
85.12908427293192,65.93994749155338,69.85659850779471,41.774679808018554,57.16464871227606,60.78556370063727,62.516055640292755
85.89165228937215,65.94449207358274,69.66392862757938,41.74675938570364,57.63279593290277,60.55889033786418,62.26948477769956
86.66831984396096,65.95027475132555,69.47063472001715,41.718228872374006,58.122072244395405,60.311529972236876,62.03751408605891
87.45953130419537,65.95737675156596,69.27875047755053,41.689036477326454,58.630740601813926,60.044967811381134,61.821052556444165
88.26552463759062,65.9659144566212,69.09010380266247,41.65913732385885,59.156974235239936,59.76081324359276,61.62097334061499
89.0863131066576,65.97603885513882,68.90629250949763,41.62849298118414,59.69889419690996,59.46075534492575,61.438101315384145
89.92166218015352,65.98792027798518,68.72868291431553,41.59705482953671,60.254588900159156,59.14654625114493,61.273177242052256
90.77105471085487,66.00176346067829,68.55841203134364,41.564754172324896,60.82209760775246,58.819992545357316,61.12683803310882
91.6336707767189,66.01783917977158,68.39637527991054,41.53151754703072,61.399385775816825,58.48292736351277,60.99962737333573
92.50840511983758,66.0364842274761,68.24320890772994,41.497292315238504,61.98433764065402,58.13716622240233,60.89200486235015
93.39393236056225,66.05806882849832,68.0992934434827,41.46205281932473,62.57475588046674,57.78447494343521,60.80432799407403
94.28881531840359,66.08298308934033,67.96480780149463,41.42578512875366,63.16835397835352,57.42656817590181,60.73683064982336
95.19161451714527,66.11166435205776,67.8398353162292,41.38847772226574,63.7627579890427,57.065121804809884,60.689636734379995
96.10093867434136,66.14461864872301,67.72446336493698,41.350133691543974,64.35554226891169,56.70176909922345,60.66280085294648
97.01542907026055,66.18239367907104,67.61881733795526,41.31078646528714,64.9442843192296,56.33808986574088,60.65632747366885
97.93372274548514,66.22552793864348,67.52303671162207,41.27049670377518,65.5265954989078,55.97563819947775,60.670152061739955
98.85441133162605,66.27452473114279,67.43723094120647,41.22933845390537,66.10011275304957,55.61601160646881,60.704126232602526
99.77598134258946,66.32985522408138,67.36143310466613,41.187398833211056,66.66247865838076,55.260895535038514,60.75804050518233
100.69674696557608,66.39195281343713,67.29556101758632,41.14479212428292,67.2113444784759,54.912038678732664,60.83165573124975
101.614807451416,66.46118292322738,67.23940706237204,41.101664496222924,67.74440300706136,54.57119048854446,60.924698973513806
102.52805017377425,66.53782272888765,67.19266936720469,41.05818012391164,68.25942150892593,54.2400558555076,61.03683264774075
103.43421018117651,66.62207811667265,67.15499935560379,41.01451143421718,68.75424846144236,53.92029016884316,61.16764605572681
104.33097477476504,66.71410858986424,67.12603965829811,40.970853855936326,69.2268149216642,53.613513307274175,61.31669533448498
105.2160728879327,66.81402427845386,67.10546946108977,40.92744875915604,69.6751745365605,53.32130725058545,61.483558952085325
106.08731248095614,66.92187841835556,67.09306440191764,40.88458444967277,70.09758312583496,53.04519735151992,61.66785560079374
106.94263061592734,67.03769746563057,67.08872600751167,40.84257660127382,70.49256689692011,52.78663818942243,61.86922278386892
107.78020097326683,67.16153016388004,67.09245352322986,40.80175414232434,70.85894826470341,52.546998276217174,62.087295905761586
108.5985120942838,67.29345891568123,67.10429700820177,40.76245753195197,71.19584893850765,52.327526394543774,62.32169722286006
109.39634764535785,67.43356200575427,67.12433652580363,40.725030907918374,71.50268360383194,52.129310522078214,62.57201181058203
110.17274339863104,67.58186914884668,67.15267957641302,40.689799205336364,71.77912830803207,51.95325890214252,62.837752876545125
110.92699614244361,67.73834586925527,67.1894428340476,40.657048182992895,72.0250641932991,51.80011049782525,63.11834846481574
111.6586742310504,67.90289634290224,67.23470893283661,40.6270281898385,72.24053089461515,51.670446770866924,63.413157737870485
112.36756540758144,68.07535168183874,67.2884814333928,40.599974013199514,72.42571503961231,51.56467955855124,63.72148263701753
113.05359880088483,68.25543783889741,67.35067519971233,40.576111375324224,72.58096731633519,51.483028209523496,64.04255074314489
113.71680274699436,68.44275424880631,67.42115163950953,40.55563982919802,72.70684561607386,51.425521170573354,64.3754941367611
114.35728845391492,68.6367876195035,67.49975492197353,40.538715670698146,72.80418493422253,51.392032846149675,64.71935677386557
114.97522195078368,68.836941713639,67.58632237243398,40.5254575421255,72.87415489895311,51.38232301711276,65.07311782076538
115.57079600351713,69.04254943859839,67.68071259082878,40.51596412331124,72.91826082658933,51.39604419046534,65.43569521839031
116.14424336302652,69.25287593494275,67.7828795716027,40.510317426600146,72.93829811866419,51.43272425278422,65.80592774579142
116.69588441122796,69.46714928411012,67.89293838012868,40.50856928976968,72.93630434870597,51.49175568192336,66.18257207199946
117.22614913855857,69.68461408089999,68.01116585166008,40.51073459625756,72.91452988145178,51.572403457440764,66.56433632250949
117.73554097974755,69.90455953374003,68.13796862558111,40.51680381361324,72.87541908736938,51.67381511573661,66.94992101651899
118.22456933887484,70.12630229633874,68.27389368113357,40.52675742408779,72.82165043882593,51.795018315302144,67.33802717616746
118.69369594034896,70.3491594654983,68.41968223877753,40.540562023392326,72.75631788133586,51.93492059536481,67.72733904532372
119.14331594963105,70.57244560490119,68.5762866251132,40.5581562821389,72.68317650418587,52.09233288446199,68.11651936507896
119.57375150728245,70.79547944580926,68.74482099971662,40.579449626389874,72.6067432853492,52.266004530174406,68.50422413163753
119.98523705404187,71.01757118664601,68.92653333230648,40.60433460232514,72.5321918445522,52.45463675619454,68.88910761020577
120.3779293197544,71.23800059343483,69.12286687009717,40.632690851097934,72.46518032654964,52.656868762890795,69.26980529678777
120.75196022485551,71.45602013196354,69.33553583545327,40.66437122080039,72.4117328631891,52.871262446054345,69.64492458695908
121.10747488782232,71.67088272984114,69.56650838610554,40.699188339295404,72.37816309757451,53.09630332163087,70.01307312692421
121.44462349439056,71.881855064879,69.81791774689508,40.73692066836591,72.37099300408794,53.330407087462945,70.37290596314016
121.76356899067497,72.08819500464581,70.09203066773811,40.77733005969664,72.39686608673013,53.57191808570065,70.72314523756165
122.06454760128538,72.28911797829855,70.39137812529692,40.820167428604826,72.46245764368584,53.81911621798697,71.06256452739399
122.34791931039312,72.48379507221279,70.71898719094163,40.86516256066379,72.57436616891077,54.070270022523346,71.38997751058008
122.61415077027753,72.67139270140017,71.0785163560708,40.91201891812446,72.7389778208399,54.32373290295719,71.7042569091183
122.86377532943088,72.8511108906868,71.47419261119147,40.96042592381923,72.9623170999123,54.57801663712398,72.00435830233296
123.09740946283273,73.02218062162225,71.91061640620006,41.01007326748249,73.24993941137677,54.83179442251411,72.28931578018556
123.31581211369935,73.18383662931892,72.39253218466169,41.060648751738505,73.60693441123586,55.08386126876578,72.55822210818992
123.51989578309004,73.33530791394274,72.92464115497899,41.11182722693133,74.03802209256145,55.33310569250501,72.81022908112423
123.71065359152423,73.4758416042033,73.51150584704456,41.163273730619984,74.54763214050453,55.57851031062736,73.04456893103159
123.88905794944655,73.60473440844565,74.15753079323996,41.21466549441572,75.13990099971372,55.81915605179435,73.2605621717678
124.05599378024802,73.72133827581997,74.8669673075177,41.26571000159576,75.81862547254293,56.05420671291976,73.45759726419526
124.21223244965128,73.82504678271488,75.64390420788887,41.316139851134615,76.58722472703806,56.282890291625776,73.63511333616071
124.35840957839898,73.91529620820043,76.49224677383799,41.3656949986179,77.44870707377987,56.50449978181946,73.79261871387745
124.49498977873607,73.99158519574333,77.41574329511435,41.41411978833288,78.40561265911181,56.71839789133874,73.92972842096094
124.62223899879683,74.05348090456538,78.41807238258824,41.46118497220173,79.4599321930249,56.92399952384709,74.04617538444577
124.74021638268147,74.10059801087317,79.50288609832728,41.50671170091595,80.61303334763534,57.12073681460055,74.1417870237619
124.84877107379043,74.13257918912605,80.67377152493003,41.55057092908491,81.86560856651893,57.308029794677275,74.21646533336937
124.94753307677257,74.1491042184652,81.93424889870417,41.592665968446425,83.21762758940184,57.48527779026124,74.27019636989449
125.03592948245087,74.1499111704195,83.28786278702519,41.63292634128762,84.66829027179722,57.65187106859953,74.30306589193614
125.11327806179997,74.13479441564087,84.73826958845216,41.67131811363035,86.21599349775828,57.807206254645344,74.31524824218434
125.17893082035611,74.10358330525166,86.28923738552409,41.70784755650598,87.8583120312545,57.95068644030756,74.30697946244908
125.2323582800327,74.05615146425373,87.94456402074064,41.74254504296745,89.59198540919543,58.0817045002895,74.27855153031888
125.27312882470451,73.99248266799738,89.7079248981765,41.77544620986774,91.41291222676074,58.19962807842719,74.23033104929253
125.30085251611058,73.912741392788,91.5826603966306,41.80659044016795,93.31615472516107,58.303808606887266,74.16276661524454
125.3151594410867,73.8172841293256,93.57157428883663,41.83602998287018,95.2959670031136,58.393614432656115,74.07636573791014
125.31570122032286,73.70662193622061,95.67681541165888,41.863827002105154,97.34586948262313,58.46846354870281,73.97166918943961
125.30213011640367,73.58138348861888,97.89981479585907,41.89003553975688,99.45875662628153,58.52784781388111,73.84925669375014
125.27405796850798,73.4422908263903,100.24120460243766,41.91469437384831,101.6269914198759,58.57135989155735,73.7097722129329
125.23105267101793,73.2901275094606,102.70071673814515,41.93784867224025,103.84248349675636,58.59870992762607,73.55392827621448
125.17270413755693,73.12569727269594,105.27711190419699,41.959578502663106,106.09679311451434,58.60971044207551,73.38248166736857
125.098703145864,72.94980364381713,107.96814311975461,41.98000179424214,108.38125318190579,58.6042406070383,73.19621683228316
125.00886083592978,72.76326731043171,110.7705240016994,41.99925540422084,110.68705867530933,58.58221811488464,72.99596046402525
124.90308080434038,72.56694808025493,113.67992478021773,42.01748313060855,113.00534147953941,58.54359139259426,72.78260035082177
124.78133759705247,72.36173181907431,116.69103113395651,42.03483988160628,115.32728954179011,58.48834096303775,72.55707464946349
124.64367008581458,72.14849155855667,119.79763566483517,42.051492694680924,117.64428099634229,58.41647618013514,72.3203455237604
124.49016228347392,71.9280661075945,122.99274607452467,42.06760547765683,119.94795219010217,58.328041763199174,72.07339197522738
124.32091069805318,71.70128257306233,126.26873265171967,42.083323732375,122.23019195498594,58.2231562704415,71.8172181401084
124.13602473112756,71.46899899136787,129.6174633853315,42.098781479251784,124.48311541288847,58.10206287108228,71.55284367739591
123.93568217564282,71.23211935880373,133.03035431685996,42.114122795770314,126.69905252940478,57.965147549048886,71.28126897111574
123.72017622343905,70.99158077247984,136.49835985390106,42.129507805486725,128.8705494453703,57.81291440362516,71.00344773288315
123.4898963708808,70.74836466067595,140.01195344080983,42.1450929887985,130.99036775020085,57.645950877821235,70.72029498086891
123.24528214479432,70.50354699791677,143.56110326011333,42.161009570323166,133.05148613655035,57.464917905713754,70.43271278661048
122.98680306212101,70.25833068390735,147.1352519342243,42.177363892480656,135.04713155800317,57.27056358440291,70.14159281601503
122.7149486779564,70.01402117430135,150.72333811427123,42.19425236227228,136.97084696528253,57.063729284437684,69.84778944383461
122.43019913516316,69.77197867365956,154.3138703612113,42.21176556015044,138.81655747622233,56.84533689746314,69.55210020607467
122.13299522456985,69.53358469596967,157.89500762275395,42.22997680175295,140.57859797713016,56.61637622953487,69.25527806696913
121.82373447251514,69.30021301700468,161.45461492428066,42.24893718277349,142.2517111863554,56.377900073738594,68.95805103661436
121.50277653448872,69.0731883050704,164.98032077334298,42.26868915298536,143.831042478021,56.131012943098945,68.66111616594644
121.17043203290167,68.85375181345405,168.45959917963094,42.28928035509932,145.31213159316994,55.87684458488021,68.36512005475406
120.82694152291052,68.64305906680048,171.87985561708325,42.310757120592804,146.69089449253175,55.61651730392526,68.07066189145046
120.47246296686559,68.44219209516645,175.22848853703982,42.33314540720153,147.96362575996295,55.35112570695029,67.77831904407107
120.10707635376572,68.25214829263311,178.49292462726916,42.356446485810494,149.12704909366732,55.08173492091115,67.48865756528023
119.73079866520204,68.07380381461587,181.66066603566406,42.380658030122,150.1783709628297,54.80937942732312,67.20221028889294
119.34358462774452,67.90789051245977,184.7194194571484,42.40579715059688,151.11527790157976,54.53504711933689,66.91945149007366
118.9453072746044,67.75501869041325,187.65731918609598,42.43190048504953,151.93589862003515,54.25966621618782,66.64080036873733
118.5357487462816,67.61572557115232,190.4631751783973,42.45901095506779,152.6387973254873,53.9841280649537,66.36664275099383
118.11461421541419,67.49049965418416,193.12674797234635,42.487176743074116,153.22301057697214,53.70934084462456,66.09733439406368
117.68153896082688,67.379773479831,195.63906955195662,42.51646403993568,153.68807246063233,53.4362640114667,65.83317921959303
117.23607358927649,67.28392000672018,197.9926553174677,42.54696088011189,154.03400254757724,53.165895854172135,65.57441716155445
116.77768240534225,67.20326056691275,200.18150252472108,42.578760884189876,154.26131738997586,52.89924701161916,65.32124422541402
116.30578420421787,67.13805576505511,202.20105318644164,42.611944422390536,154.37110262421615,52.63734003498996,65.07383874513471
115.81981390344286,67.08846940609281,204.0482674348399,42.64657778347169,154.36507322438234,52.38122581587291,64.8323611025195
115.31927951091782,67.05453605771174,205.72166922979093,42.68272394974959,154.2455607349978,52.13198118647393,64.59694127861974
114.80381420728945,67.03616937768514,207.22122191607662,42.720440993848136,154.01546494757366,51.89068286192047,64.36769136990732
114.27321174764047,67.03320665743883,208.5481199937276,42.75976228584288,153.67820897615752,51.658380088864845,64.1447398820594
113.72742958810034,67.04544456788469,209.704637612521,42.80068078210996,153.23769064137522,51.436070635258275,63.928245791201554
113.16657032241136,67.07264492593411,210.69403751376993,42.84315578499469,152.6982343537686,51.22466857882039,63.71837562957925
112.59086481815359,67.114534200439,211.52046149035195,42.887129292917855,152.06456290766337,51.02496494886111,63.51527691233257
112.00068018037616,67.1708066188165,212.1887843892708,42.932528924277285,151.34178234432247,50.83759295188506,63.31908154858974
111.39655349140976,67.24110908104585,212.7044928864349,42.97926039240856,150.53534564137146,50.663005420755454,63.12992567839964
110.77921383051155,67.32500127378576,213.07362295336026,43.02720961756756,149.65097554068458,50.50146525495843,62.94794775621279
110.14957027540207,67.42192330795297,213.30270999821605,43.0762553971807,148.6945733484456,50.35304317194628,62.77326186646497
109.50869784341845,67.53123004630065,213.39869376637714,43.12627233990188,147.67215678811084,50.21761476536275,62.60594556741035
108.85784316336563,67.65231845100546,213.3688055371734,43.17711674424739,146.58982762434397,50.09485997204508,62.44606217084594
108.19841464269922,67.7847767981281,213.22053440574226,43.22861630029632,145.45373489310552,49.98428192519304,62.293683657517995
107.53193028641765,67.92846803058973,212.96168823289088,43.280583842536316,144.27002004823635,49.88524948004524,62.148879978958064
106.85995540440032,68.08355957513902,212.60044581829928,43.33284278947021,143.0447609814748,49.79703815496161,62.01169180891105
106.18407097147906,68.25053834622568,212.14532990413747,43.38523445245869,141.783930863421,49.71884548267209,61.882124411693646
105.50586694717086,68.43018349570191,211.6051136251908,43.437602555346636,140.49336564919523,49.64978572340362,61.76016497549036
104.82692920891691,68.62347408190031,210.98868078922538,43.48978190828486,139.17872779816747,49.58888365717868,61.64579023782212
104.14882158121792,68.8314688444692,210.3048760069238,43.54161167036306,137.84548322678467,49.535083572661954,61.53894792324564
103.47309797642626,69.05520327473297,209.56240567090566,43.59295801785389,136.49892235876686,49.487276714441634,61.43954031880733
102.80134410412319,69.29562509530159,208.7697973356103,43.6437171214367,135.1442122861033,49.444331218543404,61.34744147265428
102.13519886575028,69.55359057641562,207.93536026055688,43.69379764270471,133.78643756088445,49.4051062854105,61.262532480542795
101.47633239335504,69.82993524047318,207.06712885783,43.74310888553512,132.43062353389342,49.368453562191476,61.18471271985353
100.82641443540868,70.1255697158103,206.17282026532942,43.791567313464476,131.08175935183766,49.333220299974435,61.113880675478136
100.18710648358838,70.44151980049699,205.25979004507073,43.839104533802164,129.74480789330784,49.29825896413549,61.0499233208888
99.5600749646078,70.77888855119242,204.3349504435736,43.88566048690979,128.4246769234665,49.26243751490776,60.99273853258689
98.94700586360872,71.13877747239523,203.40468699156554,43.93117442459801,127.12616572334662,49.224642503410756,60.94226143879876
98.34960606713607,71.52221845823698,202.47484229499995,43.97559536398945,125.85394169006517,49.18377343727439,60.898457322462974
97.76958899559035,71.93016027728201,201.5507650443378,44.01890471707147,124.6125635238712,49.138735574618565,60.86129314269069
97.20864351800502,72.36349916156634,200.63734481480842,44.06112175028893,123.4064918299089,49.088435942457,60.83072852315141
96.66838837158885,72.82308392760581,199.7390002897662,44.10228514844388,122.24004542864533,49.03178048540394,60.80673334835074
96.15034737139766,73.30965894006319,198.8596902369367,44.14243907453544,121.11733574423144,48.96767495027704,60.78929628693467
95.65597859288926,73.82379791505575,198.00297890631785,44.18164682644887,120.04221685140466,48.89504063215764,60.77840367173999
95.18672080080178,74.36591211318556,197.17208266540135,44.22001483186224,119.01825604895849,48.81284619475962,60.77401744271681
94.74399498818778,74.93633505862832,196.36987391157436,44.25769278863692,118.04872427221976,48.72013525006578,60.77608495710091
94.32915335840416,75.53539689511645,195.5989113229966,44.29484697516453,117.13660152047382,48.61603208119964,60.784565705999384
93.94341516484558,76.16348660171583,194.86150209276818,44.33163540294104,116.28457644934923,48.499734797974526,60.79943505581202
93.58783514783146,76.82121823234642,194.15973907740926,44.36820197696218,115.49502309644086,48.370518218395844,60.8206613029602
93.26331914799984,77.50967560362098,193.4955142140941,44.40467531982375,114.76996267744981,48.22775419951023,60.848193987190314
92.97064798880116,78.23052703296229,192.87053463481172,44.44115492387657,114.11102957211074,48.070934400517714,60.88198246218069
92.7104710773663,78.98592645265514,192.28634755409516,44.4776931973534,113.51944760580717,47.899677330681705,60.92199242627213
92.48329999803344,79.77832347478534,191.7444101041189,44.514294429867974,112.99600739206033,47.71372991121566,60.96818825794074
92.28954454302087,80.61028711644613,191.24621352649638,44.550932237836804,112.54104534521369,47.512997973642086,61.02050008152838
92.12955423033648,81.48434601777798,190.7933535098364,44.587563674409694,112.15445437591818,47.2976069626285,61.078816222381526
92.00360239992902,82.40285181126313,190.3874500633054,44.624123736952214,111.83574315534868,47.067940337833626,61.143004141248035
91.91182216302269,83.36791818182338,190.02998828474992,44.66050996133354,111.58410225872905,46.824619676364904,61.212922178548325
91.85415631471182,84.38144133203343,189.72224989231228,44.696579417757434,111.39843229485469,46.56845108417772,61.2884001861531
91.83035316189198,85.44511638317104,189.4654196547841,44.732164729235336,111.27735138097843,46.30038207063586,61.369214780829786
91.83997762854351,86.56039234880276,189.26075304404267,44.76709047088664,111.21921315316447,46.02149191062526,61.455093066911616
91.88240545574111,87.72841992159772,189.10961415211094,44.801171059929814,111.22211685253065,45.733005259379134,61.54573660798356
91.95682909630497,88.95008850100056,189.01334890791267,44.83419766111472,111.28388780338871,45.43629816542738,61.64082742136738
92.06230560376297,90.22616534947656,188.97311908441807,44.865936973044285,111.40206245270332,45.132881442567886,61.74000623546009
92.19780398373403,91.55742223916609,188.9898020227626,44.89614626601468,111.57391689868409,44.824368091381444,61.842859016587866
92.36219764077673,92.94466952737181,189.0639450816161,44.92458370262779,111.79651816995622,44.512430414142365,61.94893776619612
92.55421554151683,94.38875630817725,189.1957098370647,44.95100055909701,112.06675110200636,44.19874990016952,62.057789066685594
92.77239703983794,95.8905910616569,189.38479753405926,44.975131831250295,112.38130847044198,43.88497137464402,62.1689536763961
93.01506944018877,97.45118634518028,189.63040113083932,44.99671089641725,112.73667830581977,43.57268294342862,62.28194794681649
93.28035185035876,99.07173290468114,189.93119576382855,45.015506261197075,113.12916643458655,43.263433311696474,62.39626638329318
93.56618504508673,100.75366691038126,190.28533805333035,45.03134708311478,113.55494024861132,42.95876166509892,62.51141120166253
93.87036848345886,102.49866555111994,190.6904548508024,45.04411492233234,114.01004531771467,42.66020187736436,62.626911316521365
94.19058473469138,104.30854974497791,191.14362220304196,45.05371683261706,114.49038886665721,42.36925940004689,62.742308534029064
94.52441949722001,106.1851841114433,191.64134676175684,45.06007238146318,114.99173688685383,42.08739154588016,62.857138893336995
94.86939166733127,108.13054793014943,192.17956923017482,45.06313242789168,115.50974995602478,41.816007796669574,62.97094194718811
95.22299002063991,110.14696476242804,192.75370166920752,45.06291207546372,116.04002227656018,41.556475465671305,63.08328484019982
95.58271205580314,112.23723312035969,193.3587045692475,45.05950163906148,116.57809027738656,41.310115934653716,63.1937639113011
95.94609763371331,114.40455082470294,193.98919351390728,45.05304950739864,117.11943407356635,41.07820231717013,63.30198047071414
96.31073630060843,116.6524038104457,194.63952576292706,45.04375371093896,117.65950730049572,40.861967245112695,63.40752843637088
96.67425061874138,118.98456420569522,195.3038355721025,45.031892080469255,118.19378437966941,40.66260088809179,63.51001531233919
97.03429628886005,121.40515309122753,195.9760459481486,45.01787418091271,118.71778709509078,40.48122383219535,63.60908617991695
97.3886045964943,123.91862026800803,196.64987986781998,45.002292314108715,119.22708299821298,40.318872699159144,63.70441626181813
97.73503848021247,126.52958984421333,197.31887447173324,44.9859756136763,119.7172933562634,40.176576299346486,63.795687434290244
98.07161900005083,129.24266901609442,197.97640483061923,44.9700290040772,120.1841421853015,40.05552289945509,63.882586586288575
98.39653088058185,132.06227682990036,198.61570840592455,44.95581543654991,120.6235213672739,39.95718541852164,63.96482739571975
98.70814800080021,134.9924601997568,199.2299258032594,44.9448842302663,121.03152361006423,39.8833059553789,64.04216008529556
99.00507402706137,138.03668148604925,199.81222854344477,44.938894481022054,121.40443920708715,39.835798296738425,64.11435100306613
99.28615239347053,141.1975919948424,200.35603219348255,44.93957433578762,121.73875143789871,39.81666548579752,64.18115878825677
99.55042571251137,144.47681787050104,200.85516761385222,44.948712140430786,122.03114945554314,39.827956671756574,64.24234028027819
99.79707438335934,147.8748031850383,201.30395211210015,44.96813868551806,122.27854135659797,39.871741872668316,64.29767736024479
100.0253838939044,151.39078522160048,201.69723313611388,44.99967544105534,122.47804516933584,39.950099909102065,64.34698586371236
100.23475080892197,155.0230203805006,202.03042319826966,45.045063745316924,122.6269696336688,40.06513571122418,64.39009533250758
100.42468129477781,158.7692788357024,202.2994741210255,45.10590138984832,122.72282429961446,40.21900556201196,64.42683307924374
100.59475142269548,162.62735695182775,202.5008214867822,45.18360879598129,122.76336967152932,40.41389268513947,64.45703846499177
100.74456064385873,166.59531000548327,202.6314095225854,45.2794395603905,122.74666379878057,40.651928384404485,64.48058519571259
100.87371870854439,170.67139748705546,202.68881435238427,45.39452131130877,122.6710654065323,40.93512681315206,64.49737765705311
100.98185648184437,174.85397338879648,202.67133742248177,45.52988544646021,122.53520805930872,41.26537752177062,64.50732854298577
101.06862711275996,179.14150749842014,202.5779922377272,45.68645820877546,122.33798898757775,41.64445552835798,64.5103524820371
101.13370432705456,183.53272008547083,202.40845853300738,45.86502192396314,122.07859316376634,42.07400586093541,64.50638312555598
101.17680832266413,188.02668198570726,202.16306578855915,46.06617083602818,121.75652828383333,42.55555183162757,64.49538307491744
101.19774178915878,192.6227686189743,201.8427690450421,46.29027635769037,121.37164147220695,43.090597522953615,64.47732759645066
101.196389217485,197.32053787576734,201.44906541195877,46.53746788495544,120.92412342699335,43.68077502082723,64.45218591156299
101.17268078715676,202.11971874150842,200.98386754842113,46.807650995436816,120.41450758445437,44.32791858539987,64.41993009326542
101.12657087504597,207.020388330159,200.4494121782551,47.100596927786114,119.84364904496132,45.0340655916682,64.38056159540619
101.05805932848327,212.0232183037088,199.8482344442895,47.416084685248215,119.21267808782947,45.80149327655718,64.33411945334596
100.96722163850329,217.12953528133733,199.18313881532112,47.754024210407,118.52294864300582,46.63280797084081,64.28066238063529
100.85420069443113,222.34105222993833,198.45712484157315,48.11454385499981,117.7760029438092,47.530980129755534,64.2202591027239
100.71917065961172,227.65944079701515,197.67334247850982,48.49806688692878,116.97355222916224,48.49930331491503,64.15301264504376
100.56233002011449,233.0860020731024,196.83513772456573,48.90533601732955,116.11745714088875,49.54138277621771,64.07909358003704
100.38394331248749,238.6215306775103,195.94612573931101,49.337347423481724,115.20969800925558,50.661175829936376,63.998741605421095
100.18438493910297,244.26633489333452,195.0102139981735,49.795275100473226,114.25234360940635,51.862989357918565,63.9122403578927
99.9641548102245,250.02029813860406,194.03160098389472,50.28050696620728,113.24753140374153,53.15141829335748,63.81990556726344
99.72389343922399,255.88286788312936,193.0148161743043,50.7947788868406,112.19745548973046,54.531311164668686,63.72209779875232
99.46441604225008,261.8529606773886,191.96477649258532,51.3402648282155,111.10435294798842,56.00779335228751,63.6192274937945
99.18674101111355,267.92880939468586,190.88676454658182,51.91956805578397,109.97050485659213,57.58631636212939,63.51173191228861
98.89207918767389,274.1077861979073,189.78631345499807,52.53568011145138,108.7982756645628,59.27275217714343,63.400049412972734
98.58179501613324,280.3863040936678,188.6690643953215,53.191915802054154,107.59017554398025,61.07359141129729,63.28462340765698
98.25739706393885,286.75981518746727,187.54062577049388,53.89179771225863,106.34890195494823,62.9962017273292,63.16592556303499
97.92057086643932,293.2227638978457,186.4064333403003,54.63897521984801,105.07733883434169,65.04899209516996,63.04445891635854
97.57318739104919,299.7684553632679,185.27164164728296,55.43726792251043,103.77853714941669,67.2414525428004,62.92073082114513
97.21724366997562,306.3889682963613,184.14107605631477,56.290755932127205,102.4557138603534,69.58413962804407,62.795230700608435
96.85477207814291,313.07517718601486,183.01922539779855,57.20378079998919,101.11226344885196,72.08851782741677,62.668440682173
96.48777074662094,319.8168252414944,181.91022677347786,58.18083601644095,99.7517411308304,74.76658386782933,62.540857971112196
96.11816610568441,326.602598502919,180.8178342953352,59.226405772637655,98.37781225314494,77.63044424057553,62.41299225586816
95.747781615976,333.42021569721163,179.7454212742505,60.34480396556397,96.9942168272631,80.69200114077198,62.2853436977142
95.3782961828139,340.2565437786761,178.696030631929,61.54004156248915,95.60477902433809,83.96271058113875,62.158399433014544
95.01122260138702,347.09771653893955,177.67240590949118,62.81575979922214,94.21341882301515,87.45337517322332,62.032656469695745
94.64794386105432,353.92924174781797,176.67696249879523,64.17530862318463,92.82411796277073,91.17400406680464,61.90863346289281
94.28978052244227,360.7360715563327,175.71175105024244,65.62195573563478,91.4408665736454,95.13376931599979,61.78684798237635
93.93801795362837,367.5026244224504,174.77846850399226,67.1590215406344,90.06764529233276,99.34114083708344,61.667788610587905
93.59387756030287,374.21283310007925,173.87850699435708,68.78984331551408,88.7084377018811,103.8041839278289,61.55191974088128
93.25849725209036,380.8503005415453,173.01299242552548,70.51777622427767,87.36722027265516,108.53071244156509,61.43970864476404
92.93296923127946,387.39850781913947,172.1827857211883,72.34635512114005,86.04791459077259,113.52811283346216,61.3316314878166
92.6183908443359,393.8409317560989,171.38849171688767,74.27941704068633,84.7543420279599,118.803121039055,61.22814619069171
92.31586001259497,400.16104508751107,170.63054527162362,76.3210525075247,83.49020902427888,124.36181031824331,61.12966822664748
92.02641923847811,406.3422953658161,169.9093427290458,78.47550585630819,82.25910131679721,130.2096045859772,61.03657837504717
91.75100928376982,412.36811285443923,169.22531854037445,80.74708441507408,81.06445304136719,136.3510858557255,60.94924140550415
91.49046953293342,418.2219253654598,168.57896415378184,83.14002152704666,79.90949506619883,142.78968177874495,60.86800018336487
91.24555580227937,423.8872677548623,167.97085184115318,85.6583210927046,78.79721944006734,149.52738639963323,60.793152131170906
91.01692866768106,429.3482946776561,167.40163991240803,88.30564625354361,77.73037289040832,156.5645190783031,60.72494463745572
90.80511652287842,434.5907609311346,166.87200104694773,91.08524879117692,76.71144949291909,163.8995130924268,60.66359565749717
90.61048600046519,439.60287496464423,166.382502911791,93.9999657114086,75.74266154815047,171.5288008079592,60.60930487686698
90.43322504246804,444.37549655699246,165.93351756809295,97.05231180471169,74.82591435543723,179.4468894734123,60.56223410676507
90.2733252744768,448.9018885275713,165.5251984017411,100.24455153637287,73.96282543966629,187.64668158314763,60.522480956687744
90.13056108968895,453.1774708906744,165.15750289509035,103.5786441552375,73.15478261465188,196.11990047471278,60.49007922777834
90.00447411073348,457.19976715041145,164.83020886666165,107.05612180013954,72.40298546757367,204.8573124267616,60.46502035458911
89.89437734074353,460.96857735765576,164.5429117304902,110.67796130752602,71.70844222388062,213.8486285024094,60.447259736952596
89.79939669132835,464.48628525422174,164.29502734711386,114.44445798899815,71.07195216957804,223.08227575547897,60.43669672492663
89.71854560600822,467.7580124455839,164.08579551940457,118.35517078557241,70.49409651470069,232.54521077887722,60.433160460197776
89.65079152673519,470.791401238624,163.91428848012848,122.40899815919003,69.97522402836171,242.22279216369995,60.436427899620014
89.59508467812421,473.59608786037137,163.7794791168295,126.60430054540596,69.51542839677408,252.0987428186822,60.446252948430114
89.55035996809808,476.1830353911488,163.68036603243056,130.93893896119965,69.1145484301769,262.1552574374151,60.46237073518206
89.51552306235115,478.5639506338725,163.61605893013734,135.41025112308137,68.77220772335104,272.37323395297113,60.48448222946255
89.4894257647265,480.75113031817364,163.585780022665,140.01510832547348,68.48785487248774,282.732552711451,60.51225494780173
89.47086150570763,482.75780012335616,163.58884007684293,144.75007765671677,68.26076758998416,293.21228615227,60.545346565713935
89.45860910056295,484.5984121752819,163.6246355075815,149.61155636708898,68.09005439137987,303.7907503840329,60.58341785349108
89.45149391953662,486.288434904,163.69263986565934,154.59582231376777,67.97469775722475,314.4454765861154,60.62611502019026
89.44841167387811,487.84380968561567,163.79235021359557,159.699056208676,67.91360735222025,325.15329484663386,60.673046525037755
89.44832542739358,489.28041159128713,163.92320926901874,164.91734834235206,67.90563144384568,335.89059200843093,60.72378724757315
89.45029640300899,490.61358282287887,164.0845525500403,170.24670162398445,67.94954625892332,346.63360752817346,60.777904147724804
89.45355161508166,491.8577155225789,164.27557077771425,175.68308153956718,68.04407606900642,357.35866160967004,60.834968165876994
89.4575191366978,493.02593815984534,164.49525215557398,181.22247830813885,68.18793507888348,368.04232938010085,60.894540346272755
89.46179876504844,494.1299682751114,164.74234240885684,186.86089902551532,68.37983426908052,378.6616029073223,60.956163461311384
89.46612106277256,495.1801123453534,165.0154001897682,192.5943202142126,68.61844505541026,389.19405734010576,61.019386464131316
89.470348269826,496.18535440595974,165.3129384792541,198.4186780729031,68.90237160346175,399.6179734249806,61.08379932774558
89.47449568853962,497.1535085057523,165.6335474876257,204.3298720811048,69.23015462287627,409.9124338362027,61.14903848282209
89.47871656956177,498.09139645808017,165.97593739288013,210.32371949531682,69.60026907432375,420.05753957237573,61.214767723006155
89.48324203415878,499.00496184702865,166.33893496063914,216.39585699940886,70.01109377832039,430.03473366457166,61.280673119284096
89.48832738530983,499.8993020137115,166.72146225413144,222.54162651566017,70.460896548974,439.8270111605108,61.346480543271454
89.49425084883225,500.77868227366747,167.1224791150169,228.75601613461987,70.94787167864858,449.4189418116851,61.41196273376472
89.50134587753487,501.6465193608387,167.5409046898679,235.03367674804824,71.47018575788,458.7966193939844,61.47691668390349
89.51000523409692,502.5053005500379,167.97560225672152,241.36891572634295,72.02597027261858,467.9475622625532,61.54113885540663
89.5206337374415,503.3565126595289,168.42546547280045,247.75564320172106,72.61327059391469,476.86048885549013,61.604432776547654
89.5335861968774,504.20063154552446,168.889513145232,254.18738837179643,73.23000931957762,485.52499376953267,61.66663846244891
89.54912893256852,505.0371112545166,169.3669222750854,260.6574297527825,73.87399508100731,493.9312978063079,61.727641724263606
89.56742457297022,505.8643459940442,169.8570476030237,267.1589490695111,74.54295008561196,502.070178297872,61.78735061414883
89.5885161997142,506.6796533008766,170.35944259471452,273.6851154156365,75.23451676163647,509.93296391000246,61.845672526919344
89.6122996041932,507.47928048702687,170.8738330980448,280.22913158554877,75.94625322437648,517.511473757767,61.90252216667629
89.63849788270608,508.25840320337517,171.40004698185015,286.78436803814515,76.67565764591944,524.7979498666291,61.95784399518869
89.66666025831994,509.0111375802634,171.93793418500718,293.3446243606196,77.42021823139729,531.7850103176646,62.01161236306631
89.69618970367047,509.7305989461971,172.48728144335504,299.90444569901314,78.17743822784205,538.4655742744513,62.06380974304617
89.72638509338722,510.4089833911068,173.04772022977977,306.4594406256339,78.94481136394003,544.8328510634843,62.11441887930802
89.75648837137528,511.03762122356557,173.61864142691823,313.00655958381867,79.71978257191002,550.880550591574,62.163440104493084
89.78572977548109,511.60701726940493,174.19913235088518,319.5441980611588,80.49974696902288,556.603234554474,62.210901794524595
89.81334986465944,512.1069677203561,174.78795220460205,326.0720276003141,81.2820948595152,561.9965897857548,62.256842673428295
89.83858370145651,512.5267994059747,175.38356140476026,332.5906649738104,82.06425055628947,567.0575331350004,62.301291079981915
89.860621249481,512.85569784917,175.98418445154783,339.10134318250215,82.84366642142821,571.7841316304751,62.34427272757716
89.87857894293394,513.0830817008454,176.58785146281434,345.60565858478776,83.61780058685069,576.175359455672,62.38583413319176
89.8915167406288,513.1989474949388,177.1924001974864,352.10539399712104,84.38411963013273,580.2308061485012,62.42604238511338
89.89849412511698,513.1940717735798,177.79546113648954,358.6023897888833,85.14012005028893,583.9504324592316,62.46495583900591
89.8986125243133,513.060044352892,178.39442989106908,365.0984787961687,85.88333419616504,587.3343871290801,62.50260438169502
89.89101800582154,512.7892292164186,178.98642853085727,371.5954967474383,86.61131184276,590.382876100456,62.53900455177052
89.87489613034977,512.3747773485762,179.56828756893708,378.0953258819472,87.32160926386419,593.0961162142987,62.57418335634386
89.84948743025717,511.8107219936034,180.13657646314746,384.59992236533816,88.01181315558163,595.4744600532849,62.60817368944184
89.81411102649908,511.09206657911557,180.6876646798414,391.1112712146433,88.67958033906591,597.5186664215129,62.640988819258816
89.76817275562681,510.21481925805006,181.21776585074986,397.6312196987053,89.3226573196461,599.2300925279297,62.672616279041875
89.71116125979069,509.1760193942277,181.72295389265767,404.1611825889362,89.93888145122091,600.6106837038759,62.70304573128044
89.64265334626728,507.97374284108946,182.1991873018753,410.7017835162962,90.52619970159121,601.6629032002552,62.732296710674284
89.5623233596454,506.6070693920364,182.64235638901673,417.25255629397157,91.08271753681419,602.3897379231092,62.76041338781276
89.46993392018274,505.0760893778981,183.04832511738107,423.81176854368914,91.60673800158428,602.7947141679263,62.787443585764024
89.36532359114845,503.38202661718236,183.41294907945488,430.3763314094822,92.09675881632575,602.8818517284599,62.81343956108166
89.24842711133657,501.5274714297759,183.7320997547972,436.9417503378081,92.55145950581927,602.6557012639036,62.838478824136274
89.11931348332398,499.51658553202293,184.00174846806274,443.502109067709,92.96971664479364,602.1215749366266,62.862667746601055
88.97819435628962,497.35512309402606,184.21810820492098,450.0501265941517,93.35062295382727,601.2857490855025,62.88611505267365
88.82539730229685,495.0502722861589,184.37775829996133,456.5772972542976,93.69347180408369,600.1554226437264,62.90890976449111
88.66133772644696,492.61039566215516,184.47770368725642,463.0740141105134,93.99772268276527,598.7385121718905,62.93113554468819
88.48650292009911,490.0447346987032,184.5153922431573,469.5296007554138,94.26299289515839,597.0434070513386,62.95290148936616
88.30143390314984,487.36317738644703,184.4887193458405,475.93232745418817,94.48908341980402,595.0787393872308,62.9743458304485
88.10670206173431,484.57612913432706,184.3960337459064,482.2695499479096,94.67599681331255,592.8532533006683,62.99561093100347
87.90289652713886,481.6943893819532,184.23615186905164,488.5279868626576,94.82392320942293,590.3757955690353,63.016828860652666
87.69062930640195,478.72897512625565,184.00835707663612,494.69395892271757,94.93322836514291,587.6553392625483,63.03813292298127
87.47054217368164,475.6909611852519,183.71236552444057,500.75347565554495,95.00446844972068,584.7009813141084,63.05966470070256
87.2432928947568,472.5913622347558,183.3482890579724,506.6923215171116,95.03839857364144,581.5219215050737,63.081553617011465
87.00953020984973,469.4410136223391,182.91662682584695,512.4962894325271,95.03594795178411,578.1274218771673,63.10389163586179
86.76990298396612,466.25045581750595,182.41827628940615,518.1514445196334,94.99819799342386,574.5267588735612,63.126737242092844
86.52511545265388,463.0298456129074,181.8545292502967,523.6442465188469,94.926403317566,570.7292318808167,63.1501425992346
86.27597175980887,459.78888603645834,181.22704553646489,528.9615742268941,94.82202459220622,566.7442666349327,63.17416408126816
86.02336885378944,456.536757338944,180.53787806208527,534.0907673621125,94.68671764958452,562.5815757674145,63.19884063427404
85.76827903511649,453.2820856249639,179.78959503535478,539.0196649145977,94.52228306523475,558.251363823644,63.22417173971376
85.51176660895679,450.0330354456176,178.98537965183996,543.7366011099124,94.33062653119369,553.7645855130272,63.250126622109164
85.25500335992304,446.79749092094806,178.12899108600772,548.2304373767274,94.11375158227362,549.1331258136132,63.27666988772349
84.9992332166139,443.5831650300573,177.22466380232123,552.4907060315605,93.87375282834762,544.3697427061305,63.30376641483196
84.74570935674703,440.3975994211299,176.27708245420692,556.5077865394647,93.61278464610021,539.4878009360732,63.33136408334198
84.49566524654922,437.2481285874618,175.2914367784208,560.2729641024316,93.3330315161938,534.5009364851517,63.35938947597737
84.2503326700394,434.14180764410827,174.27345447323174,563.7783540796273,93.03670340336471,529.4227967061229,63.38776956118137
84.01095522352199,431.08531546635714,173.22936718224423,567.0168014398622,92.72602934842084,524.266941236581,63.416447796544375
83.77875705695647,428.08491386093976,172.16583725126878,569.9818198550738,92.4032251148406,519.0468230944052,63.44537074109048
83.5548918653392,425.1464684996537,171.08983747664226,572.6675891892968,92.07046345531838,513.775698304073,63.474469114395134
83.34041149001067,422.2754646527987,170.0084761624912,575.0690444176798,91.72988139014485,508.4664423906718,63.50366473193888
83.13625290961677,419.476960329,168.92881842154947,577.1820437935004,91.38360356805235,503.1313831464296,63.532889781449875
82.94322877764407,416.7554652947123,167.85774703521457,579.0036267186659,91.03373264506038,497.78223451834606,63.5620827904197
82.76202504452306,414.1147995081668,166.80186206772467,580.5323895356468,90.68230068023108,492.4301061381751,63.591161718221265
82.59320829520584,411.55797778227173,165.7674106874667,581.7687835134883,90.33122410338068,487.0855603856266,63.62001245906023
82.43722934169541,409.08713664040306,164.76025938627248,582.7150826606124,89.98228898371565,481.7587863805275,63.64851155190658
82.29440768966396,406.7035532330519,163.78591984890582,583.375086894359,89.63714349282617,476.4599557772322,63.67655164179727
82.16489823147639,404.4077728888805,162.84958821524438,583.7537702626292,89.29727385383124,471.1996504426998,63.704035014386676
82.04866789012493,402.1997571395938,161.95613118157104,583.8569589663452,88.96399064078774,465.9891163720551,63.730847956646045
81.94551416421751,400.07901860930247,161.11001163659657,583.6911013499705,88.63846152847981,460.8402954925237,63.7568518985474
81.85511446804016,398.0448410370409,160.31521483643786,583.2631775232263,88.32176575565026,455.7658197641919,63.78189615695318
81.77705613236886,396.0965854276536,159.57522810044276,582.5806341541949,88.01491123089978,450.7789824204109,63.80582238380506
81.71083165004612,394.2339023262274,158.8930686954416,581.6512372298018,87.71880706937168,445.8935441816118,63.828446076890664
81.6558437953737,392.4567403771259,158.27133004051953,580.4829514100496,87.43424728129465,441.12339180292,63.84954221304834
81.6114471095606,390.76523247922336,157.7122308309379,579.0839465662534,87.16194115639605,436.48217036966446,63.86886135813933
81.57698549656519,389.15957396588,157.2176633521299,577.4626378953025,86.90255121044422,431.9829618293561,63.88615767252285
81.55178715615045,387.63995222114215,156.78923926711917,575.6276728121478,86.65668817827914,427.63802974315007,63.90119229139823
81.5351420232332,386.2065665616957,156.42831997854174,573.587930223078,86.42487675186717,423.45859397985134,63.913713442452355
81.52630397800114,384.8596950603812,156.1360294150846,571.3526175417373,86.20753845794766,419.45459291378046,63.92345099067688
81.52451072392073,383.5997097776858,155.91327256695408,568.931442526087,86.00500637419037,415.63448335173416,63.93014224177007
81.52898366453061,382.42707919252126,155.7607458010754,566.3348033833009,85.81754668388659,412.00519306883405,63.93355788928287
81.53890271277571,381.34242448967245,155.67888588605842,563.5739597489345,85.64535678040849,408.5722213633987,63.93349740542592
81.55339203616543,380.3465011631798,155.6677612088975,560.661099188924,85.48854297330115,405.3397137438829,63.92977174137382
81.57154011755232,379.4399928083758,155.7269794480209,557.6092351350293,85.34710477391579,402.3104289817838,63.92221008794467
81.59243291484779,378.6232303458499,155.85566008328598,554.4319617826208,85.22092818953017,399.4857346889737,63.910687760810475
81.61517157165537,377.89599991903754,156.0524383735459,551.1431146490175,85.10976806910236,396.86571148532136,63.89513626507706
81.63888628908597,377.2574702091586,156.31545637541015,547.7564124316773,85.01322725893561,394.4492487992131,63.875520580383885
81.66277510283095,376.70616976894746,156.64236348373805,544.2851809212516,84.93076970739259,392.23406335314354,63.85181673784816
81.68615290059316,376.23997042957393,157.0303590332985,540.7422203908851,84.86177446438577,390.21672368150877,63.82402102444748
81.7084632821119,375.85611123393466,157.47624142022096,537.139806761755,84.80558523769575,388.3927066542131,63.79217317031443
81.72924325451591,375.55127958725,157.97641631958902,533.4897382662172,84.76152259801422,386.75640727558044,63.75635529230734
81.74808247790638,375.3216648403241,158.5268931792242,529.8033220940482,84.72888799548254,385.3010991683849,63.71666574850135
81.76461692627915,375.162915722939,159.1233437038433,526.091280997607,84.7069982802472,384.0189398963297,63.67320355986221
81.77855165858931,375.0700746948847,159.76122243912326,522.3636544073308,84.69523014631918,382.90106295104493,63.62608176396823
81.7896757415997,375.03757385456885,160.4358604674203,518.6297495737698,84.69302729443349,381.93773004265125,63.57544422338708
81.7978576941847,375.0592629522869,161.14249355586426,514.8980959958964,84.69987549651813,381.1185412660986,63.52145784412859
81.80305237567642,375.1284619448085,161.87627895799358,511.1763356487335,84.71528950969852,380.43268042698077,63.46429526032404
81.80532876836827,375.23811372631343,162.63233040379956,507.4710602212493,84.73881799738433,379.8691020786076,63.40414035615863
81.80487601301837,375.3810089575026,163.40574534863498,503.7876668667155,84.77003230891412,379.41662061100243,63.341210950899956
81.80196167543542,375.54994526245605,164.19160600892482,500.1302947452104,84.80848712095556,379.06396003948663,63.27576160528367
81.7968725336663,375.7377968477224,164.98495934907928,496.50183932838036,84.85368349431884,378.79978568100734,63.20805521958513
81.78987272767208,375.9375669531882,165.78079485335667,492.9039981275114,84.90506482660686,378.6127136593514,63.13833523957096
81.78117698562602,376.14241020482297,166.57403389883692,489.3373530404761,84.96203344419624,378.4914150984878,63.066827835905336
81.77092328757571,376.3455820882013,167.35952746739434,485.8015709353064,85.02394996995774,378.424919629718,62.993760122267076
81.75915363184329,376.5403971802468,168.13207495708423,482.29573639721275,85.09010883972337,378.4029829592538,62.91935877672323
81.745825552416,376.7203044625033,168.88648682956858,478.8186552832014,85.159727652686,378.41634617591126,62.843824975367376
81.73085213701208,376.8790148691014,169.61765952468704,475.36897272024845,85.23197735281177,378.45692172317746,62.7673207865637
81.71413837720615,377.01055384525023,170.32060260842348,471.9451353369313,85.30602456196782,378.5179228859775,62.689989290088256
81.69558898092674,377.10928742446424,170.99043211932408,468.54531666613263,85.38103925444932,378.59379966126517,62.61198156663903
81.67510737926168,377.1700318124984,171.62241155293012,465.16738188151714,85.45617296130214,378.6799569589858,62.53345522714185
81.65262100019903,377.1881912578235,172.21205825333504,461.8089227726175,85.53056264136607,378.7724256754347,62.45455514518313
81.62811653368338,377.15981580176566,172.75522852414812,458.4673840361974,85.60338362980329,378.86763958443504,62.375412775137534
81.60164001652036,377.0815854613051,173.24813698537426,455.14024892838023,85.67389957990451,378.96233425468546,62.29616755957574
81.57326584160023,376.9507498472053,173.68738939863687,451.8251888462865,85.74145917961509,379.0534818085222,62.216976726506104
81.54308180795414,376.7650210757149,174.07008478309916,448.5202056826636,85.80547135599248,379.13819805700115,62.13799673268772
81.51120429426173,376.52247547274914,174.39391770961484,445.2239075076718,85.86542112321058,379.2136537847839,62.05936395975182
81.47778346277369,376.2215237740664,174.65721530398085,441.93586955259343,85.92092054866279,379.2770220909068,61.98120493956412
81.44297312434969,375.86090948742145,174.8589492191391,438.65689937984365,85.97173103101565,379.3254341788608,61.9036626453805
81.40689855834702,375.4396718041966,174.99878033473635,435.38914360434467,86.01773603427755,379.3559366692897,61.82690128705962
81.36965710736841,374.95708272515117,175.07711267370271,432.13603971406235,86.0589203145731,379.3655138290732,61.75108505672269
