HandOpen,HandClose,Wrist Flexion,Wrist Extension,Supination,Pronation,Rest
86.70115959086431,302.1418183679352,125.98382851401738,333.44696277145323,72.48099979890354,140.70121184906614,64.36329709628271
87.0501077914426,303.54825191632375,125.2160554634361,332.51608057736365,72.3345809302147,139.86591454762151,64.32901766538734
87.37176592963193,305.024757409942,124.41099017520163,331.5593155329592,72.1982524004657,139.01139432303145,64.28765257400947
87.66559063784518,306.5701509913891,123.56900608689568,330.5783480108237,72.0726578893659,138.13873760365914,64.23899902007508
87.93126359788893,308.18326775639,122.69056812572538,329.57548816533233,71.95855463550896,137.2488898785482,64.1828550253999
88.16866757936171,309.86311362575947,121.77621374099876,328.55357490224293,71.85675111449316,136.34267439734714,64.11901586370662
88.37789175475703,311.608823703901,120.82656145429891,327.5159744265276,71.76806620455575,135.42081633179498,64.04725802066316
88.55925247536045,313.4195254403115,119.84232944103802,326.4667919635218,71.69331008440798,134.48399188940562,63.967337668701234
88.71327583258704,315.29420940435955,118.82433451008356,325.41105865242804,71.63325434628422,133.5329123639659,63.87901729388715
88.84063842596304,317.23158575029254,117.77349921371632,324.35463870329676,71.58858234367477,132.56841372984334,63.7820941169189
88.94211769021898,319.2299713063542,116.6909392224028,323.303930295287,71.55984804943427,131.59151838566413,63.676400208970925
89.01858435914953,321.2872651975139,115.57812249092818,322.2655377610759,71.54746896536352,130.60345088520643,63.56178571015965
89.0710090272064,323.40095178679894,114.43697487821719,321.24599774130286,71.55173813481993,129.60560176142707,63.43811819583633
89.10043733186944,325.5681362638235,113.26985784338802,320.25161433198485,71.57282132401255,128.59946104925515,63.30530104403553
89.10793432172773,327.78573070009946,112.07948854933261,319.28843727112314,71.61073699599818,127.58655558900428,63.163281639652794
89.09453725397691,330.05072463457316,110.86888699707757,318.3623539810195,71.66535253027959,126.56840966454737,63.01203567001073
89.06123697037965,332.36029711517403,109.6413450399826,317.47921007787215,71.73641639362708,125.54653345523762,62.8515509844069
89.00896915248387,334.71167920471345,108.40037236967903,316.6448269841265,71.82359740592943,124.52243190884667,62.681836827555294
88.93859759450436,337.1018812959482,107.14961022618675,315.86484404382344,71.92649182293319,123.49762356213829,62.50294750392672
88.85090891791883,339.52743733568263,105.89274737095909,315.14449409581727,72.04460546921379,122.4736640781851,62.31498770590476
88.74665359571277,341.98427978942277,104.63347102013547,314.4884747428893,72.17734612583497,121.45216023790205,62.11809339213821
88.62662011852579,344.4677496917313,103.37544243293408,313.90094070731726,72.3240302314571,120.43475248090232,61.91241874136956
88.49167619771387,346.97260919201887,102.12226707825425,313.385563423827,72.48387812097296,119.42306927877135,61.69815277538224
88.34275027187545,349.4929716530221,100.87746947803143,312.9456115801629,72.6559930915323,118.41869298474946,61.47554685815283
88.18080838740019,352.0222188231392,99.64450960182002,312.5839640351757,72.83935095407426,117.4231736702487,61.24491910049021
88.00687528601799,354.5529665069268,98.42682574111645,312.3029977371752,73.0328169145443,116.43807059428406,61.00663853991634
87.82207091673796,357.07706417879234,97.22784001532929,312.1044458973608,73.23517162408221,115.46496354885647,60.76112105069501
87.62761149409826,359.5856538472491,96.05091094213375,311.9893299064399,73.4451171789656,114.50541955612117,60.50884308977112
87.42477861184776,362.0693135382345,94.8992901304405,311.9579209985032,73.66126381351857,113.56095290160056,60.250344086216025
87.21489195856088,364.51818750957324,93.77612367567563,312.00967215817565,73.88213006538294,112.63300452203127,59.986202379524414
86.99929322070815,366.9220264208864,92.68447426207118,312.14316764301975,74.10617277161916,111.72293485742311,59.71700929815136
86.77932051589416,369.2702550613989,91.6273278887733,312.3561343724133,74.33181839749456,110.83202986392622,59.443368949374495
86.55626630834571,371.55217427691076,90.60759407649606,312.64547021635246,74.55746995138233,109.96154026713167,59.16591340698506
86.33134466488865,373.75718916256443,89.6281487175805,313.007230811515,74.78151587403558,109.11275815563356,58.88530117101169
86.10569464049864,375.87496903744585,88.69192624827136,313.43657693551205,75.00237538247231,108.2870911355107,58.602191799680504
85.88040405115477,377.89561865244383,87.8019739708608,313.9277437835515,75.21855531870658,107.48608435374453,58.317222235592745
85.6565191467365,379.8098751172818,86.96139828254536,314.47409569065803,75.42866620220671,106.7113791748637,58.03100564794248
85.43505424124318,381.609199831746,86.17325414906622,315.0682512186602,75.63139788592186,105.96463410995955,57.74414122587785
85.21704050400551,383.2857371322476,85.44048677282424,315.70220321469117,75.82550908434486,105.24743818331845,57.457210525833155
85.00358897243586,384.8322977814424,84.7659724729669,316.36741291165623,76.00986168682836,104.56123388983112,57.17076223096774
84.79590068438479,386.24246014741055,84.15259244767633,317.05492553469367,76.18346156854025,103.90726474086102,56.885309938000844
84.5952147774169,387.51064765224834,83.60323887131953,317.7555032906476,76.34545933085447,103.28656967823248,56.60134780274778
84.40274672950078,388.6320611793305,83.12074097581467,318.4596965524563,76.49513120785993,102.70002776212108,56.31935882024038
84.21965428475416,389.60257826588196,82.70776482430463,319.157831632676,76.63188680050145,102.14841083883809,56.039800829885806
84.04702009673208,390.4187276639155,82.36671996400597,319.83999920496905,76.75529425297253,101.63239851574713,55.763091114728574
83.88582683733512,391.0776725014238,82.09969786267231,320.4961168560718,76.8650750746695,101.1525824505258,55.48961641161422
83.73693925393638,391.57716336925836,81.90846439192484,321.11603487716997,76.96106114684495,100.70952278346792,55.21975956458356
83.60113520514736,391.91554578738015,81.79447241064675,321.6896076361494,77.04316038687917,100.30384052438204,54.953908539896965
83.47917791104811,392.0918221432249,81.75883606865062,322.2067587927726,77.11136683964652,99.93626737270779,54.69243786691488
83.37185878381484,392.10563433296164,81.8022617480171,322.6577020406111,77.16578970107494,99.6076291253669,54.435690375065015
83.27997872197722,391.95712867101736,81.92497865919138,323.0333567804861,77.2066509934582,99.31881087974168,54.183981849389276
83.2043252133815,391.646820938991,82.12672338003131,323.3257171391887,77.23425175894933,99.07073480182112,53.937613623712
83.14569065217293,391.1755378581671,82.40679639087634,323.52795824044983,77.24895964020725,98.86432772562408,53.696867467198075
83.10488681714875,390.5443826265485,82.76413808182755,323.634337517335,77.25124396554973,98.70047446315873,53.46198720267519
83.08270242614854,389.7546713717836,83.19738311751418,323.6400449900811,77.24171229691687,98.57999978776554,53.23317232327446
83.07982811266756,388.8078920658288,83.70492261442831,323.5410719196366,77.22109942943985,98.50368726070066,53.0105898061434
83.09681321664345,387.70576237207587,84.28497726025857,323.3340960652184,77.19023210591608,98.47227768006901,52.79438272060585
83.13408029097349,386.45033652349287,84.93562126944677,323.0163771649353,77.15002246568683,98.48641950910557,52.584659298666814
83.19195460829428,385.04402989834523,85.65473403827507,322.5856781832179,77.10148871950207,98.546633562614,52.3814752219506
83.27065943765828,383.4895484109605,86.43993629240146,322.040230023379,77.04575393140811,98.65334702226349,52.18483348107648
83.37030102040922,381.789827672963,87.28858599006917,321.3787563571124,76.98400487312512,98.80694285261703,51.99470309579689
83.49089735378745,379.9480173726168,88.19784073878662,320.60055518661727,76.91744964500249,99.00774360583863,51.811031131558444
83.63243564815964,377.9674449277153,89.16470869410162,319.7055772058497,76.84731084781109,99.25594361866072,51.63373281006513
83.79489139330774,375.8515212483165,90.1860324136923,318.6944323741911,76.77483821106513,99.55155225323887,51.46267735610207
83.97819220132466,373.603631970725,91.25844415334159,317.56833103528186,76.70130038063387,99.89436101301482,51.2976916502264
84.18218112973753,371.2270702285086,92.37834231757007,316.3290180757251,76.62796099099486,100.28391308573083,51.13857446996891
84.40661849257074,368.72501259215005,93.54187677780435,314.9787204217357,76.55608560312358,100.71948569264902,50.985097630796254
84.65119009359594,366.10050668254786,94.74492085794158,313.52007429366836,76.48698352194079,101.20013505995436,50.83699320453245
84.91548070836244,363.3564723076704,95.9830656173852,311.95602392205194,76.42202754059937,101.72482210381868,50.693953479168925
85.19892887277507,360.49572862057005,97.25170491099352,310.2897587848232,76.36261904625472,102.29254822209545,50.55565679789131
85.50080097266421,357.5210103075893,98.54620894238695,308.52474547406706,76.31013735925787,102.90241143873948,50.421794855534365
85.82018622857832,354.43493955669106,99.86207560606964,306.66481538673463,76.26592133609947,103.55356842050728,50.292074024089736
86.15598631082402,351.23999138644666,101.19497181650783,304.7142413413741,76.23127125071446,104.2451476472712,50.166200191847
86.50689248120932,347.93851699705846,102.5407041997773,302.67777339003646,76.20742534862038,104.97615857155493,50.04387750111817
86.87137761290651,344.5328381265861,103.89518953331729,300.5606278323038,76.19550750399772,105.74541851180852,49.92482631088003
87.24772163839276,341.02535475887333,105.2544256997729,298.3684441873781,76.19649467335684,106.55151032732432,49.80879337058713
87.63404352612554,337.41861498079095,106.61444269177021,296.10723900992326,76.21123165323364,107.39277547468946,49.69553838115876
88.02830537596951,333.71537225448003,107.97125135716288,293.78339252216017,76.24045463167329,108.26731621124782,49.58481857722049
88.42829611569174,329.91866860096593,109.32082066194134,291.4036909944097,76.28477907180923,109.17297428571045,49.47639783361409
88.83163039775694,326.03193216973153,110.65908373906758,288.9753872891397,76.34466381380037,110.1072952511912,49.37007128845549
89.23578146572022,322.0590785867581,111.98194900662514,286.506206522868,76.42039418681233,111.06751743242418,49.26567359822697
89.63812639266592,318.0046392909925,113.28530542923664,284.00425552506107,76.51210249038878,112.05060209153856,49.163063363225575
90.03596793620271,313.873902247298,114.56502610380677,281.4778477751497,76.61979912711153,113.05328058122194,49.062112186672074
90.42653008728857,309.6729693276012,115.81697401790173,278.9353001271963,76.7433803179627,114.072089991,48.96271976150451
90.80695613578749,305.40871199586246,117.03701186115799,276.38477127973067,76.88262169666739,115.10340114674354,48.864835548027145
91.17432583238171,301.08879838001917,118.22100746407112,273.83419998891645,77.03718593685892,116.1434583350582,48.76845601460336
91.52567734322506,296.7218884259262,119.36482657691279,271.2913375955544,77.20663559523965,117.1884241166984,48.67360247540567
91.85801667017152,292.3178341279555,120.46433191010503,268.76378884601485,77.39042303124259,118.2344020255276,48.58031215720223
92.16832064756036,287.88774941802825,121.51541499930947,266.2590543610968,77.58786329365684,119.27744483891485,48.48865319336282
92.45355824194414,283.4439805523198,122.51404932704487,263.7846714248315,77.7981284180722,120.31359825483254,48.39873731322374
92.71074645962884,278.9999862023271,123.45632423142072,261.34842379161597,78.02028208551846,121.33898828552461,48.310707223649366
92.93701937327376,274.5701339018916,124.33844989432433,258.9584950872092,78.25332265130389,122.3498851786818,48.224711645537816
93.12966900263271,270.1694866885007,125.15677485872902,256.6235427759502,78.49619159794167,123.34270346587054,48.140898186394715
93.28615339228944,265.81358697270804,125.90785208333132,254.35271204134352,78.74775372418982,124.31398901388718,48.05943063248925
93.4041049351339,261.5181862541779,126.58852457592126,252.15556486362888,79.00679414090932,125.26044783155355,47.98050322560244
93.48135208534822,257.29896744543134,127.19597403496016,250.04190828746826,79.2720481188654,126.17899907513956,47.904329981039645
93.51593134992427,253.17137472267754,127.72773498447515,248.02154803568808,79.54222888940949,127.0668110318514,47.83112814428222
93.50607748704537,249.15056672461913,128.1817112646537,246.10401479373618,79.81603061292586,127.92132256834007,47.76112719224418
93.4502173752725,245.25136619411163,128.5561842818816,244.2982886497368,80.09213560203916,128.740273955914,47.6945955111277
93.3469921894099,241.4880968149155,128.84979570021514,242.61253174921544,80.36924769102612,129.5217433614916,47.63184712290724
93.19529049373456,237.874365818478,129.0615550579981,241.05387923654746,80.64612024858583,130.2641894730205,47.573218543496345
92.99425697716501,234.42291055856376,129.19092764322846,239.62836198666463,80.92154737348011,130.96652320263652,47.51904871062651
92.74328270609837,231.14550331428677,129.23795648089086,238.34094766288416,81.1943415915165,131.6281906990736,47.46968774209715
92.44202451883731,228.05284254618877,129.20331057122712,237.19558506243703,81.4633399515041,132.24920981349172,47.42551441209382
92.0904654706504,225.15444498214111,129.08822364017357,236.19520125421928,81.7274332108167,132.83012793169783,47.38692802672801
91.68895836691141,222.45860319403363,128.89438355546227,235.34171216384053,81.98557380884981,133.3719164970173,47.35431883467179
91.23820735877072,219.9724112100367,128.62383940586972,234.6360540692887,82.23675053568185,133.87585305542675,47.32805297886177
90.73921965396981,217.70180719220926,128.2789400798036,234.07816160925282,82.47997479236334,134.3434403588815,47.308485560502895
90.19328466353458,215.65160914111448,127.86227790047244,233.6668928578488,82.71431488262087,134.77636162096067,47.29597257789234
89.60198654087701,213.82556975061533,127.37662219582079,233.40001709409168,82.93894680161142,135.17642970167924,47.29085504755858
88.9672034555518,212.22644023751224,126.82486941596804,233.27432349340026,83.15316646925164,135.54551122081972,47.29343099496778
88.29106590635757,210.85596008301275,126.21004154698609,233.2857720224147,83.35636707387175,135.8854486596892,47.30394744998252
87.5759043537192,209.7147547543904,125.53531196854264,233.42966958742204,83.54803158991268,136.19800602275004,47.32261314566658
86.82422262397866,208.80225067530165,124.80400168762195,233.70093939887155,83.7277527662991,136.484843133486,47.3496020590157
86.03868686660256,208.11667763139874,124.01953523528479,234.0943870891831,83.89524042793575,136.7475039487059,47.38503401120769
85.22209641071956,207.65508429634778,123.18541457016589,234.60479451005602,84.05030153843067,136.9873983375625,47.4289557598765
84.37733444920532,207.41329006962422,122.30524787198411,235.2268941105856,84.19283119313319,137.2057720654229,47.481347403326005
83.5073328668017,207.38581751211683,121.38278244064283,235.95538903002208,84.32283169211775,137.4036903112858,47.542142895443554
82.61506924857888,207.56587908677886,120.42188092397933,236.78501788049886,84.44042104928299,137.5820829096593,47.61123387230892
81.70356784295845,207.94541275451266,119.42645525571426,237.7105500437078,84.54579904035518,137.74184792855772,47.68845212358629
80.77587352103066,208.51511564527544,118.40040213534309,238.72671336859452,84.63919333820593,137.88392330419617,47.7735596542691
79.8350129613775,209.26446569059215,117.34754838563123,239.8281498246849,84.72083053823881,138.00926730087085,47.86626604341057
78.88397808614916,210.1817741063051,116.27159406086238,241.00940680268872,84.79094006457288,138.11880087584294,47.966252805630255
77.92573260613551,211.25429030913432,115.17605231448623,242.26489406148573,84.84975370614515,138.213393639361,48.07317464514308
76.96320757315524,212.46831632281047,114.06419820549942,243.58878398798151,84.89747533820041,138.29389961352453,48.186644307294415
75.99927022577732,213.80928618268308,112.9390453522894,244.97490414324568,84.93424327178334,138.36117992041076,48.306235370075235
75.03669428949678,215.26183336462702,111.80335930380916,246.41666802189968,84.96011698521367,138.41608675171398,48.43151213181594
74.07816148561118,216.80991339450705,110.65968496230663,247.9070351681829,84.97508408719202,138.45945215215,48.562053484384656
73.12627939273064,218.4369975846551,109.51035832297731,249.43849526201663,84.97905858211392,138.49209541057473,48.69744410675608
72.18357737498644,220.1262586306186,108.35751170196181,251.00312850042442,84.971863911129,138.51481124952562,48.83725174567925
71.25247707662076,221.86067834708976,107.20309859591411,252.59279937875564,84.95323350003407,138.52833606619555,48.98102552788701
70.33527558755699,223.62311439596343,106.0489278663293,254.19944461968805,84.92285128358328,138.53333088509626,49.12831718552603
69.43416323346881,225.39640250791226,104.8966775241031,255.81531035792082,84.88039943006545,138.53039063451615,49.278693676562995
68.55124643468189,227.16350066335184,103.74788993106984,257.4330533408204,84.82556996250538,138.5200570614802,49.43172401391238
67.68854030421384,228.9076123358053,102.60397690793101,259.04575544939934,84.75805051251508,138.50283171763516,49.586963707567826
66.84794520962151,230.6122511171368,101.46624644672463,260.64689209442696,84.67752241125856,138.47921288591067,49.74396504607979
66.03124764560988,232.2612857163888,100.33592984090218,262.23023484823,84.58367500445628,138.44975569105404,49.9023020727176
65.24014718140685,233.83902857805788,99.21418554850612,263.7897091729588,84.4762088740323,138.41509825839603,50.061575289908674
64.47626725113606,235.3303721414968,98.10208848939523,265.31929222899726,84.35481872962872,138.3759165420996,50.2213897096626
63.74112954865151,236.7209097640273,97.00062812411767,266.81298999829346,84.21918143599986,138.33285661461798,50.38133849545326
63.036128171327796,237.9970138609267,95.91071120521876,268.26484543199683,84.06897542606548,138.28649594839098,50.541017207180055
62.362540216584456,239.14592409820642,94.8331483053539,269.66897270137343,83.90391917231577,138.23731192392813,50.700050324402596
61.72155258098809,240.15587139046858,93.76862443628927,271.019664723352,83.72378862996727,138.18562712671337,50.85809548951181
61.11426050983649,241.01617818482313,92.71768316699055,272.3115132903913,83.52840173609817,138.13156270656953,51.01482635996535
60.54163651603016,241.7172848476354,91.68076439136831,273.5394285916786,83.31760619040833,138.07505974284572,51.169924568472595
60.00451025842101,242.25073893593407,90.65829258161286,274.6985904184175,83.09130341331655,138.0159681016017,51.323089552428335
59.50358136821295,242.60919966265857,89.65075008486488,275.7844865764547,82.84948814945027,137.95412634365437,51.47404207539982
59.039438035316095,242.78643603951298,88.65870011278359,276.79309489287294,82.5922569930933,137.88939068148144,51.622506694180686
58.61254822237003,242.77727698946865,87.68279100602645,277.72105874841515,82.31977897940189,137.82166228942322,51.768193207460534
58.22323595740983,242.5775276463463,86.72375352888778,278.56571408849925,82.03226802335482,137.7509526542165,51.910801865899245
57.871680098987085,242.18389347711945,85.78237113834534,279.32504748462435,81.72998587380356,137.67744144288878,52.05004289608898
57.55793767317605,241.5939348751909,84.85943783222466,279.9977392744195,81.41325605730553,137.60147112926484,52.18563961223787
57.28195418929981,240.8060436436697,83.95574675588871,280.5832836255147,81.08245885786746,137.52350345053577,52.31730887762667
57.043541856314015,239.8194127143298,83.07211786615977,281.08204725093236,80.73802018274283,137.44409799740228,52.44474606162898
56.84235188553155,238.63400642780138,82.2094202046852,281.49519298337543,80.38042291968519,137.36391101323213,52.567635767395956
56.67787173031653,237.25060757851256,81.3685512286522,281.82451808230053,80.01022621698996,137.2836692915625,52.68567327375255
56.54944141030547,235.67097093279898,80.55039667704202,282.07227010270793,79.62805667583713,137.20411897300053,52.79856835329948
56.45625848066733,233.89795969810106,79.75582449592311,282.24095185662463,79.2345756073328,137.1259911369444,52.90603342378406
56.39736312003625,231.93554192564045,78.98572015906001,282.33314666302556,78.83046816368615,137.04999158350614,53.00778485792616
56.371631409446614,229.78869768545277,78.24101119818856,282.35146725107865,78.4164819993672,136.9767882050327,53.103566522790445
56.377797546106095,227.46335433093412,77.52265029960567,282.2986620250423,77.99347889185863,136.9070056975649,53.193168010722204
56.41448253651269,224.96636335799792,76.83159227636048,282.17772890983116,77.56244130427811,136.84126399744846,53.27641408260414
56.48020034635619,222.30545115349088,76.16879778824838,281.99192104633096,77.1244355294185,136.78025654642275,53.35313958250563
56.57335680239396,219.4891202668372,75.53524047610664,281.7447013825291,76.68058852113965,136.72481878507426,53.42318164374467
56.692274977227804,216.52655239437686,74.93188297172448,281.43967689263945,76.23210597368833,136.67593810426007,53.48639711792429
56.835238891180154,213.42755691611762,74.35963221932062,281.08046823939776,75.78029057176704,136.63471427277534,53.54267874200072
57.00051465739797,210.20254013702873,73.81930876397828,280.6705415792082,75.32652023295432,136.60232370130902,53.591946270102156
57.18633505156923,206.86243777148954,73.31163289817813,280.2130867517959,74.87221181847296,136.58000127684707,53.63412543696775
57.39087342530727,203.41860847547733,72.83720240265703,279.7109659175499,74.41881521970441,136.56902144124516,53.6691430891559
57.612235782564845,199.88273912881337,72.39646229026637,279.16670167522085,73.96782925814048,136.5706845686445,53.696939529926254
57.84847270187633,196.26676792252096,71.98969928052449,278.58253702982887,73.5207932907512,136.58631187530236,53.71747207995636
58.09758883172988,192.582785275404,71.61706778711314,277.96060417365993,73.07924332779136,136.61722712516251,53.730698673855656
58.357538182673686,188.84292511588455,71.27860688661757,277.3030771578493,72.64467537634154,136.66470927716222,53.736563064258334
58.62622483445746,185.05931103998506,70.97422238212435,276.6121598118527,72.21854996157452,136.72992564228025,53.735001930447524
58.90153052000274,181.24405923921168,70.7036654648162,275.8899471954708,71.80231118774006,136.8138751724749,53.7259612232801
59.181355363088784,177.40925750262403,70.46654784662846,275.1382826450331,71.39737382242356,136.91735768434916,53.70939606617289
59.46363958305503,173.56688723917952,70.26238043347354,274.35866019154787,71.00508191175696,137.04095441903215,53.6852556143338
59.746364447578244,169.72875022293138,70.090589336652,273.55216328077296,70.6266849825754,137.18502828691862,53.653480425235486
60.0275616246365,165.90643971247275,69.9504939781456,272.7194314169174,70.26335220704944,137.34978206471612,53.61402417914851
60.305339805964564,162.11131160608704,69.8412771143291,271.8606956221012,69.91618956994203,137.53534687488656,53.56687551687953
60.57790207007332,158.35440608801346,69.76197996248906,270.975968400525,69.5862239968815,137.7418070811,53.51205640367246
60.84353599960272,154.64633852073618,69.71152308204728,270.0653679698097,69.27437423754832,137.9691364760679,53.44961094532893
61.10059607752524,150.99721698807244,69.68872788689367,269.1293721740499,68.98145105088312,138.2171219482013,53.37961149690578
61.347509203115045,147.4166027749534,69.69232651344764,268.1688565475955,68.70818244866668,138.48533508507646,53.302177253997264
61.582801947295124,143.91347249345347,69.7209714799107,267.1850061146008,68.45521932057339,138.773127681984,53.21747692814884
61.80511564907782,140.49615536646442,69.77324580419204,266.1792232209743,68.22310712565343,139.07960920483816,53.125707774029514
62.01319515471258,137.17228143622506,69.84765624606298,265.1530360820807,68.01226296366607,139.40362227772928,53.02707542382622
62.20588354207564,133.94878113546852,69.9426091095996,264.10801154511836,67.82299058015796,139.74375780392555,52.92179773949097
62.38215317516477,130.83191187907403,70.05639123056022,263.04571093832413,67.65550841982584,140.09840803390105,52.81012316837034
62.54115046201172,127.82725599685367,70.18717061961887,261.96767411657476,67.50994674540908,140.46581392036734,52.69233403589322
62.68220875181114,124.93968747958998,70.33300683708767,260.8753856330759,67.3863174761105,140.84407322299927,52.56872688641321
62.80482712107046,122.17336659830062,70.491855647001,259.7702093556573,67.28450221335203,141.23113846364402,52.43959391572585
62.90865688308627,119.53179617813723,70.66156816790655,258.6533194476843,67.20427819267937,141.62487928582556,52.30522470934655
62.993519946262204,117.01788825703628,70.83989319545017,257.5256965240631,67.14534572474179,142.0232076512158,52.165915310575
63.05943290134048,114.63397564194801,71.02448782721895,256.38820606847287,67.10732111401211,142.4241577559453,52.02196333082933
63.10660334018302,112.38178102982978,71.21294055520859,255.24166037214664,67.089715027594,142.82587147089885,51.87365499650342
63.13541135902226,110.26240344266186,71.40280672998593,254.08680206019926,67.09193604587605,143.22657065647778,51.721267507926946
63.14641348637827,108.27633906194282,71.59165267439006,252.92426106758384,67.11331495592782,143.62458002178855,51.565088723347095
63.14036638892847,106.4234976809772,71.77710736997969,251.75451722591686,67.15311139209872,144.01835761700409,51.40542854266916
63.11822923165408,104.70319066007828,71.95690846152053,250.57786474266732,67.21049251577196,144.4064759787311,51.242608119510145
63.081128426978246,103.11412634430425,72.12891814373603,249.3944204821727,67.28451875863541,144.7875739810835,51.07694752806228
63.030312948357526,101.65446302471075,72.29110656717016,248.20420011248603,67.37416374889496,145.16033910306018,50.90877389977919
62.96712503773765,100.32190631709214,72.4415256634521,247.0071924772998,67.47834498221157,145.5235255379916,50.73843811076032
62.892975460465365,99.11377913262434,72.57829214200967,245.80335352877688,67.59592734608125,145.87594991899698,50.56631360857472
62.80930709063567,98.0270293462503,72.69958033087036,244.5925295011477,67.72570547454129,146.21643691038977,50.392777262815045
62.717563887527774,97.05821725435429,72.80361901395945,243.37437110598466,67.86640635127803,146.54376620626536,50.218198475390956
62.6191908940488,96.20352798853442,72.88869865617984,242.14829646673303,68.01672705125681,146.856671285353,50.04295024263657
62.51564893327489,95.45879874044877,72.95319809373375,240.9135597493649,68.17537023951347,147.15386267773076,49.867421940097636
62.40840346737016,94.8195304513111,72.99561592305376,239.66944250759963,68.34104327229505,147.43402273018665,49.69201132220612
62.29888276479405,94.28089115868427,73.01458277608097,238.4154877052664,68.5124424116513,147.6957755559779,49.517107528765045
62.18844288870255,93.8377492447895,73.00885594978753,237.15165037732635,68.68826340751697,147.93766976728512,49.34309290138739
62.07836841017379,93.4847444955569,72.97731753200607,235.8783122616894,68.86723508169923,148.15818321524753,49.170363624067306
61.96989037355298,93.21635273649886,72.91898806664612,234.59623407452221,69.04813454912339,148.3557415728159,48.99933987324883
61.86418202008228,93.02691206701874,72.83304484791657,233.3065360774369,69.22977107321171,148.5287549271851,48.83045053103533
61.76232954930034,92.91064319851314,72.71882419171659,232.0106791683538,69.41097887449168,148.67567000297217,48.66411403450272
61.665317868513974,92.8617062124589,72.5758122257237,230.71038824127928,69.59065204368498,148.79501773357524,48.500740363762745
61.5740552864619,92.8742719302893,72.40365924234871,229.4075646429612,69.76779150819168,148.88544994389173,48.34074535958514
61.48940494804836,92.94255673862291,72.2022261366546,228.1042440875951,69.94151354278931,148.94580486621714,48.18454883063741
61.4121818256506,93.06082576587627,71.97161727293216,226.80255334534002,70.11102503498564,148.97525265002983,48.03255159209107
61.343131144821626,93.22341783259745,71.71216691862311,225.5046045350262,70.27561287758834,148.9734789731928,47.88511765237887
61.2829376968998,93.42480530245166,71.42441147005816,224.21235522487558,70.43466126624571,148.94077042335937,47.742579079265674
61.23227131309861,93.65963726850522,71.10910002737155,222.92752269047844,70.58766052016246,148.87794714281884,47.60524590280835
61.191818371058794,93.92273737588174,70.76724150468516,221.65161420774953,70.73417923199167,148.78624588401607,47.47339749046801
61.16226947239267,94.20910730449266,70.40012895814412,220.38604676945468,70.87381695075842,148.66725435100204,47.347263984866466
61.14429805991411,94.51398366126455,70.0093048755731,219.1322599500897,71.0061774184933,148.52287730968678,47.22702382784386
61.13856841265078,94.83290514278782,69.5964961850963,217.8917555349444,71.13088181803508,148.35527549434585,47.112818560635375
61.14575187459415,95.16172012244411,69.16356011216249,216.66608396700434,71.24759535115533,148.16677751068642,47.00475888257456
61.16651061877684,95.49654287714071,68.71244886059014,215.45681227282037,71.35603346436709,147.95979836367061,46.90291049989347
61.2014597853899,95.83372580973666,68.24517888344032,214.26545867849882,71.45596715180325,147.73676806236926,46.80728259355281
61.25115665556223,96.169877326145,67.76379970707728,213.09338496267492,71.54725754264797,147.50006029294545,46.71784102064946
61.316126725138844,96.50188158819415,67.270381109602,211.94169467243842,71.62988714446665,147.25195488973756,46.634532301100315
61.39687854468468,96.82687677538283,66.7670281255849,210.8112110004759,71.70394110917351,146.99468230637183,46.55728905813382
61.49387689795282,97.1422178651183,66.25589210605675,209.70255334698896,71.76955403586904,146.7305263070822,46.486016180317606
61.607509552177056,97.4454705062003,65.739146551119,208.61622973199133,71.82687205609305,146.46192031654073,46.42058454007282
61.73808853135209,97.73442538330984,65.21894805253255,207.55265326167614,71.8760470103811,146.19152899786502,46.360845240648146
61.8858680899924,98.00708883973414,64.697426726051,206.51208529793098,71.91723363321407,145.92233202567644,46.30664481650278
62.05103488655001,98.26164630720271,64.17670812467583,205.4945547686261,71.9505635278294,145.6576751639669,46.25782064362079
62.23366853060916,98.49643617715935,63.65892124219086,204.49977906465236,71.97611288073291,145.40123078657336,46.21418774074514
62.43371828923452,98.70995031213279,63.14617029065091,203.5271015424559,71.99390266444622,145.15686546443143,46.175542496734565
62.65102872100582,98.90083495085668,62.64050131357715,202.57546457574912,72.00393962429307,144.92847472479008,46.14168206197903
62.88538593294994,99.06786949428768,62.14389344317314,201.64341515529057,72.00625680320809,144.71984332944854,46.11241208491822
63.136531168343744,99.20994663378453,61.65826472091064,200.72911443304426,72.0009139556164,144.53454982400385,46.08753261340255
63.40413901247084,99.3260924470419,61.18546869404958,199.8303318671656,71.98797277672996,144.3759034460132,46.06682633948933
63.68780454884213,99.41551270350476,60.72728271461409,198.94443528443236,71.9674861358719,144.24689518146894,46.050069835935005
63.987056820706805,99.4776088237991,60.28540415461413,198.06840081528372,71.93950503606307,144.1501553637258,46.03705199527557
64.30136625793845,99.511944529151,59.861446924820285,197.1988468752935,71.90407474664737,144.08791588225697,46.02757269716115
64.63012222066116,99.51820465798848,59.45691584629572,196.3320836404154,71.86121081471859,144.06199258612497,46.02142481854796
64.97260358794328,99.49618883870187,59.073164942701865,195.46420603888814,71.81088511581565,144.07381799818765,46.01838694574205
65.32797479841749,99.44583078117255,58.711372826869784,194.59127335686438,71.75304923187636,144.1245136070573,46.018238507254374
65.69530207370309,99.36719983630356,58.37254925409981,193.7095237335053,71.68767409171534,144.21495375891462,46.020776558515635
66.07355835075137,99.26047547669778,58.05755060333813,192.81549560814162,71.6147622265267,144.34579860091685,46.02581180873837
66.46160795560665,99.12593522263276,57.76708759058843,191.90602471893672,71.53432971481395,144.51749783281448,46.033153727158655
66.85819589430176,98.96397463576106,57.5017325701336,190.9782175128091,71.4463975451491,144.73026750444077,46.04260975158155
67.26195901644398,98.77511848107153,57.26192539317759,190.0294803305941,71.35101382660118,144.9840477583098,46.053998192664274
67.67144227920575,98.55999158464098,57.047968211621274,189.05757022770578,71.24827881790488,145.2784474208855,46.06715082686516
68.0850977946413,98.31927995032511,56.8600112040869,188.0606016233943,71.13833953751417,145.61268247024486,46.08189727544608
68.50127637615914,98.05371920044745,56.698033189979746,187.03701797733908,71.02136704028675,145.98553244750636,46.09805389460936
68.91824294038064,97.76409584657758,56.561823602327536,185.98557508604176,70.89755498451647,146.39533230031057,46.11543781675822
69.33422033570886,97.45122807987605,56.45098788472768,184.90532698845593,70.76714287717975,146.83998462656638,46.13389179302437
69.74742511455831,97.11593001120654,56.36498807591712,183.7955790712071,70.63042636350504,147.3169792844014,46.153289092130585
70.1560703239433,96.75899931174533,56.30318893476818,182.65582369333555,70.48773435802934,147.82344099448238,46.1735178119622
70.55836063739014,96.38125029309062,56.26487186889674,181.48570666962135,70.33939965092897,148.3562097197618,46.19447640698148
70.95251349380163,95.98355609225277,56.24922460985316,180.28503497342055,70.18575461697077,148.91191334592054,46.216095763066626
71.33679397354517,95.56684803836089,56.25535119419133,179.05378625553786,70.02714341589602,149.4870106660355,46.238360982645546
71.70952577420606,95.1320785133445,56.28232023602208,177.79209717812552,69.86391857870484,150.0778221364173,46.261304464017826
72.06907587238328,94.68020417869432,56.329213047816914,176.50025914505514,69.6964188041815,150.68055026668995,46.284982799885036
72.41385226569022,94.21221478251766,56.395135994061064,175.17875327542313,69.52496187363195,151.29127942859793,46.30946833303211
72.74233750230066,93.7291621660981,56.479215204105536,173.8283183147769,69.34987034282182,151.90598448111777,46.33485726912564
73.05312711924208,93.23214725765246,56.580597150943184,172.45000816669514,69.17149859644579,152.52058354166363,46.361268520439154
73.3449333118456,92.72229769402139,56.69844047234937,171.04519230382877,68.99022501870081,153.13100035534603,46.38882252491155
73.61656430347229,92.20078806885422,56.831883345442066,169.6155059208687,68.80642080723152,153.73317914071268,46.41761993500028
73.86692333388547,91.66888584019829,56.98000291984593,168.16279495215704,68.62043736831372,154.3230731379797,46.447737654945286
74.0950390621282,91.12796102952716,57.141799281556416,166.6890659863613,68.4326256213988,154.89668462393638,46.47923154945492
74.30008957626309,90.57944586682017,57.316217165448165,165.1964275704288,68.24335337026143,155.45019356397185,46.512126703422105
74.48139127261604,90.02479763828285,57.50218017542577,163.6870398395828,68.05299314018616,155.98011645769185,46.54639651450698
74.63837527032756,89.46550736239446,57.69860745023388,162.1630906611161,67.86190330268636,156.4833903828516,46.58195002716576
74.77058729094067,88.9031258452389,57.904423054861645,160.62677356546615,67.67043465059079,156.95735965472795,46.61864037102558
74.8777064643699,88.33925526882048,58.1185865013199,159.0802420007538,67.47894895307307,157.39973789161198,46.65628235114389
74.95954704988867,87.77551281517322,58.34013657281958,157.52555818279512,67.28781335932881,157.8085815378424,46.69465599094463
75.01603077056176,87.21351128876412,58.56821037553235,155.96466324651024,67.09736881351515,158.18224438937878,46.73349467245527
75.04716047567408,86.654861200078,58.802028355014684,154.39936293999216,66.90790951714986,158.51930787223915,46.77248236957928
75.05302371421182,86.10115750147092,59.04087583629975,152.8313046841641,66.71969847722501,158.8185152375956,46.81127438993931
75.03381069398044,85.55394099076256,59.28409622553728,151.26194107376796,66.53299491780831,159.0787116755405,46.84952208473606
74.9898116133618,85.0146743755818,59.5310758109494,149.69250559801324,66.3480548686905,159.29877448033739,46.88687695680425
74.92139304619965,84.48475889949249,59.78120761476144,148.12402264799604,66.16510903518186,159.47754642684677,46.9229833129319
74.8289865423863,83.96555317860607,60.0338526264698,146.55734212670652,65.98435367360466,159.61381681316524,46.95748771024053
74.71310059391071,83.45834854918961,60.28832212900473,144.99318378574543,65.80596377588223,159.70637031248705,46.99006628007869
74.57432632488758,82.96432088727542,60.54388021278416,143.43219002630897,65.63009933220162,159.7540519342964,47.02043987286963
74.41331782916764,82.48452452729622,60.799743314342955,141.87497726297258,65.4568877053394,159.75577955850198,47.04836244413613
74.23077280248565,82.01995130553001,61.05506700322789,140.32216596573676,65.28640688989147,159.71050656764092,47.073606467742174
74.02744266564574,81.57159080273348,61.308942332825175,138.7743768899785,65.11869542435711,159.61719252776743,47.09597148614865
73.80415742554159,81.14042559449888,61.560419122013904,137.23219718128252,64.95377349164852,159.47481447655963,47.11530568195104
73.56182681751372,80.72738446646062,61.808538700879566,135.6961448496668,64.79164274064539,159.28239199347243,47.13150989521421
73.30140856188292,80.33332186207367,62.05235435288505,134.1666671161299,64.63226565363095,159.03898642645817,47.144519478007396
73.02387288129025,79.95904011359087,62.29094354475647,132.64416959512982,64.47555922577459,158.74368030260177,47.154292584360455
72.73019204015343,79.60530409817964,62.52342556701573,131.12903251051617,64.32142051911678,158.3955774091005,47.16082230753562
72.42134829477627,79.27281235710454,62.748980289713955,129.6215929009523,64.16975518689175,157.99384172536688,47.1641516448865
72.09833096782444,78.962161387129,62.96684959862547,128.1221259479016,64.02047541756042,157.53774409091042,47.164365677786876
71.7621207377101,78.67385812689594,63.17631665888048,126.63085466677636,63.87347823559531,157.02667721886374,47.161569042007585
71.41369393714417,78.40837038396909,63.376680446387056,125.14796596224298,63.72863985414072,156.4601480647752,47.15587424456721
71.0540559297447,78.16615074174744,63.56724963623094,123.67360346185212,63.58583286353772,155.83777764624404,47.14740552733292
70.6842653327113,77.94761022107295,63.7473621688311,122.20785388126987,63.444936713630106,155.1593030936815,47.136298413726614
70.30542262561755,77.7530964930734,63.916405525878666,120.75076332671733,63.30582426022788,154.4245741067727,47.12268340963315
69.91864998182045,77.58292292455293,64.07381283943651,119.30237790156191,63.16834852342075,153.63357122920274,47.10667128171133
69.52509644477662,77.43741002372091,64.2190531395708,117.86276550630747,63.03235762901254,152.78645990335954,47.088360885404676
69.12595522565856,77.31687625757316,64.35166029552794,116.4320062993515,62.89772382574098,151.88364307254392,47.06785957834912
68.72245597104666,77.22158498356268,64.47130379059028,115.01018682942679,62.7643483886977,150.92576580149816,47.04528780797487
68.31583070057654,77.15171340039306,64.57785108209639,113.59741660372754,62.632136307582634,149.91367052881736,47.020763105670426
67.90729346735029,77.10738150675358,64.6713975347623,112.19384002373899,62.500976821196936,148.8483399715823,46.99439043796238
67.49805591215333,77.08869881694109,64.75228683036768,110.79961977607725,62.37075629833857,147.73085316386042,46.96627917785362
67.08934606113347,77.09576745846053,64.82111889210003,109.41490721058491,62.24138199424791,146.5623515450373,46.936569301997416
66.6823930873866,77.1286542044649,64.87871577542538,108.03982956562682,62.11278093912337,145.3440113512562,46.90543740036179
66.27839250324232,77.18738342049707,64.92605116534564,106.6744986280573,61.98487921198905,144.07703689547353,46.8730863272003
65.87849307832347,77.2719461459026,64.96418210498018,105.31901737799946,61.85759928616722,142.76269709081572,46.83974520125018
65.48381511843384,77.38227969743389,64.99420855001979,103.97346767850182,61.73088597957325,141.40239908172816,46.80568214230556
65.09546583200243,77.51821510401784,65.01725099340689,102.63789301790567,61.60472615619713,139.99774476505246,46.77120424336041
64.71452683018943,77.67944252044218,65.03442097942924,101.3123047621609,61.47913707608378,138.5505355344986,46.73663462007099
64.34204141926492,77.86552754529646,65.04678225618581,99.99671508288735,61.35414733773103,137.06278151837603,46.7022908977049
63.979035234741,78.0759444229301,65.05532692786517,98.69116289640995,61.22980363890864,135.53678859478396,46.668489206381786
63.62654784011694,78.31007367119665,65.06097961142049,97.39570841750208,61.106193993190914,133.97528483336944,46.635560514778284
63.28563067622225,78.56717300205604,65.06460843765426,96.11041475225534,60.983450204648584,132.3814710986406,46.60384747207952
62.957316437705614,78.84637530577108,65.067015481449,94.83534481120773,60.861721272311996,130.75895691626383,46.57367887700491
62.64260747118504,79.14672542509558,65.06891143223233,93.57057902294478,60.74115181317077,129.1116448292717,46.54535193094235
62.34250031766682,79.46720649125929,65.07090364891064,92.31624073510186,60.62189000490794,127.44362549195331,46.51914026687544
62.05800677318407,79.80672840149595,65.07350667487722,91.07250936563061,60.5041020026872,125.75910050873233,46.49530717950997
61.790139306780674,80.16412037260802,65.07715094191991,89.83961674369174,60.387960357618034,124.06232698372155,46.474098092069205
61.53988735713598,80.53816132130805,65.08217813983381,88.61784433664407,60.27361669263759,122.35756620498661,46.45571974279726
61.30822258050496,80.92760885320499,65.08885848811407,87.40752577317465,60.16119601133535,120.64902805558773,46.44033086785112
61.09611852057293,81.33118118543698,65.09746284958567,86.20903542403876,60.05081947585632,118.94083095436707,46.428047350267256
60.904542651935245,81.74751326036055,65.10835283040998,85.02275829676594,59.94261954986351,117.23699040754275,46.41894206843175
60.73442597109113,82.17514524661132,65.12201586723006,83.8490631876418,59.83672425703782,115.54141277837147,46.41303126224619
60.58666216454684,82.61256476843464,65.139029316236,82.68829602057511,59.733236008778164,113.85787171753444,46.41026698656741
60.46214701336909,83.05825741310689,65.16000082745863,81.54078328187032,59.63223834451354,112.18997558086821,46.410555039952605
60.361799239305206,83.51071049618004,65.18552232225946,80.40682616884457,59.53382141673388,110.54114460680465,46.41378461299562
60.28652392463281,83.96838057166099,65.21613426819971,79.28668889437554,59.43808846298955,108.9146053117017,46.41983775191666
60.237153643039576,84.4296845545256,65.25229064283674,78.18060451152827,59.3451341742461,107.31339178444296,46.428573529998786
60.2144186398853,84.89303961437024,65.29433842965243,77.08880103093442,59.25503043443171,105.74034682854747,46.439814768783
60.2189482179558,85.35690634758635,65.3425321792809,76.01151829938541,59.16784501336241,104.1981514438776,46.45335729131421
60.25126446697648,85.81979055520547,65.39707159380924,74.94899710343687,59.08366718620596,102.68940034754493,46.468987145694385
60.3117499038238,86.28023112135595,65.45812085979695,73.90145985632986,59.002603323646966,101.21666668634474,46.48648170918609
60.40062010416189,86.73681753391232,65.52579070649064,72.86911074822498,58.92475100925054,99.78250263856121,46.50559858453417
60.51793245355794,87.18821517934192,65.60010273851229,71.85215393870388,58.8501883160475,98.38942261928447,46.52607587948963
60.66361083054004,87.633152653504,65.68095993872083,70.85080270678604,58.77898540649835,97.0399283815021,46.54764735068194
60.837444943541136,88.07038181751776,65.76813288727732,69.86526708402444,58.71120829225845,95.73654064701823,46.570049388798225
61.03906493869321,88.49866401036589,65.86125826129748,68.89574132177117,58.64689812810811,94.48178822330254,46.59300769475385
61.26792812878143,88.91680131895184,65.95983847727173,67.94241323354787,58.58604975171954,93.27817640191537,46.616222806415685
61.523330258147126,89.32366806534587,66.06324392995032,67.00548348844333,58.52861454129612,92.12815526914916,46.63937705007002
61.80441322683714,89.71820100898775,66.17072993251148,66.08516760054894,58.474515398606286,91.03406447204485,46.662155634773846
62.110151163656575,90.09937416063002,66.28145900915732,65.1816815563849,58.42364499765085,89.99805473772984,46.68425496217302
62.439342710161846,90.4662052232951,66.39450496064852,64.2952407162683,58.3758440856967,89.02203697800341,46.70537074676993
62.79064717711231,90.81778367035383,66.50884022787602,63.42608375263254,58.33088521065083,88.10769244487295,46.72518829738752
63.162649681288705,91.15327209574424,66.62333423910732,62.57449339033353,58.28848101398301,87.25650517636629,46.74339317007446
63.55389731636424,91.4718721660621,66.73677796760576,61.74078850622997,58.24830369991869,86.46976491335485,46.7596887925074
63.962884733526934,91.77279912176452,66.8479149586751,60.92530429874789,58.209989376066595,85.74855598831138,46.77379725797446
64.38803237519495,92.05529447150523,66.95545363706954,60.128389692933595,58.17312989074872,85.09376432627165,46.785446635565116
64.82770323027002,92.3186486651021,67.05806705862165,59.35041718489913,58.13728174881819,84.50607648851829,46.79436930359768
65.28024542975784,92.56219224511737,67.15440255321685,58.59177715600937,58.10199901006242,83.9859421971846,46.80031689588516
65.74401111633118,92.78526401125694,67.24310477191496,57.85285090196395,58.06685716921279,83.53354392601285,46.803069037085706
66.2173367242357,92.98720556661611,67.32283497866025,57.133988411311556,58.03144569131959,83.14883908326118,46.80242045773006
66.69851805943553,93.16740243533238,67.39227236082486,56.43551085911202,57.995353648878066,82.83165477000723,46.798161522565245
67.18580660374083,93.32532697651328,67.45010678105655,55.75772280217553,57.95818221841754,82.58173747558848,46.79007567817991
67.67741493576204,93.46053916669867,67.49505355851036,55.10090756163075,57.919576571665566,82.39871669651063,46.77795334470402
68.17151147768983,93.57267133549652,67.52590291363491,54.465308692610485,57.87923928423506,82.28205550045578,46.761598949767865
68.66621677067604,93.66144063826404,67.541570528912,53.85112535335622,57.836913212865866,82.23107254982426,46.74082073270416
69.15962529071021,93.72667304648971,67.5411129730445,53.25853089598823,57.792366533164106,82.24501811070017,46.71542292224244
69.64983984009893,93.7682949313342,67.52371718457795,52.68768950078401,57.74540713186449,82.32311050708086,46.68521760297914
70.13498331051406,93.78629339530208,67.48868877658084,52.13874924344977,57.69590495830263,82.46449282816036,46.650042150961184
70.613184119691,93.78069332141811,67.43543869158871,51.61182619993775,57.64378697655969,82.668158436058,46.60975841569598
71.08256649667587,93.75158323655648,67.36346001428466,51.10700522055181,57.58901236429663,82.93289014580176,46.56423565218163
71.54126718930961,93.69915734075087,67.27230591604771,50.6243529504,57.53156733190273,83.25720851800084,46.513342157628976
71.9874618682814,93.62371735025765,67.16158486068522,50.163916921700654,57.471488874121626,83.63931597675446,46.45695865464014
72.41937045798731,93.5256361238463,67.0309671120288,49.725704365451485,57.40887984006948,84.07704460534535,46.39499536883492
72.8352435930918,93.40534048916847,66.88018163241648,49.30966504833792,57.34388869130795,84.56782757096347,46.32739108156472
73.23336956855098,93.2633396244259,66.7090011001978,48.91569967625095,57.27667862067727,85.10870290972964,46.2541016625944
73.61212242978343,93.10025332677944,66.51724414307905,48.543681198353994,57.20742330748544,85.69633294907862,46.17510010781254
73.97001325099747,92.91679434184098,66.3048228145328,48.1934590676762,57.13632636116702,86.3270196170453,46.09038933427771
74.30570349879797,92.71373113811316,66.07181494673517,47.864844659409165,57.06362857453937,86.99673289043268,46.000007531208254
74.61800377088365,92.49188931693834,65.8185044341967,47.55760854163767,56.98959002555677,87.70119219067476,45.90401607085259
74.90589991025986,92.25219323461768,65.54536962670727,47.27150482651559,56.91448280368794,88.43599008604406,45.80248596952917
75.16859097345049,91.99568717275977,65.25306347112719,47.0062953996757,56.83862837556948,89.19668538540296,45.695501806846025
75.40549350633088,91.72350516661636,64.94242604641313,46.761744633664726,56.7624526298201,89.97882633994045,45.58317642186113
75.61620803879744,91.43683805317723,64.6145087261889,46.53759713935731,56.686502923239914,90.77795975490295,45.46565312818993
75.8004894298038,91.13694665083473,64.27056476275459,46.33357105628837,56.61142498930297,91.58970684420612,45.34309090201087
75.95825147162849,90.82519070171276,63.91200560648442,46.149369852420364,56.53794837841769,92.40989578848628,45.21565473548342
76.08958324416776,90.50301612833788,63.54036352673943,45.98468534258709,56.466899024303494,93.234652574175,45.08352593309576
76.1947362834283,90.17190402394439,63.15728245950118,45.83917969265065,56.399202578539,94.06040698614291,44.94691588632713
76.27408650749182,89.83332713788394,62.764513324033786,45.71246971570732,56.33585455289531,94.88388022820202,44.80606101526202
76.32811264013912,89.48873933504734,62.36388243174726,45.60413665158419,56.27789261725626,95.70209995331463,44.661203617530326
76.35740501795689,89.13958900196432,61.957241329556105,45.51374713218268,56.226408546736245,96.51239820193437,44.51258415142168
76.3626695329374,88.78732706575957,61.54644086720527,45.440853817956224,56.18257148428246,97.31235894377227,44.36045841134142
76.34470113959502,88.43339538590875,61.133347211477925,45.38497539513891,56.14761128515417,98.09975857067643,44.205120738977804
76.30435265058175,88.07921444593099,60.71985854389047,45.345587881750674,56.122766076752804,98.8725409896205,44.04690637825157
76.24252967210697,87.72617769554041,60.30788237700445,45.32214283332762,56.109237629463884,99.62880236834195,43.886176304908616
76.16019673005627,87.37562851881579,59.89929647884664,45.31408785378049,56.1081701273261,100.36674742132851,43.72330937018627
76.05836079323439,87.02881667125473,59.4959411953098,45.32086372991936,56.12062798545552,101.08462811053738,43.558709451715835
75.93803265188926,86.6868743924352,59.099643307055224,45.341890953205386,56.14755640621259,101.78070717752911,43.39280992470583
75.80020404987722,86.35083696282635,58.71222397309157,45.37657411612873,56.189745967665374,102.45326771857404,43.22606038642359
75.64586920502089,86.02167106310105,58.335464502512274,45.42432247040388,56.2478282009748,103.10064020115205,43.05890492208417
75.47606669930994,85.70026625023851,57.97105507293452,45.484557190761265,56.322291393865335,103.72120077150376,42.89177523176159
75.2918915424147,85.3874077655605,57.620557817079046,45.55669453319476,56.413480934647176,104.3133383618973,42.725105205443036
75.0944702641,85.08378231477344,57.285385478043246,45.640132655951334,56.52157349833832,104.87543396266089,42.55934471404826
74.88493639545474,84.79001884023643,56.966781609184096,45.73426931264238,56.6465494704246,105.40587764012652,42.39495271369464
74.66442615194926,84.50671071740585,56.665804679814116,45.8385341481813,56.7881857515405,105.90310070735433,42.232380735743384
74.43407466625358,84.23439275879042,56.38333501953807,45.952396577964365,56.94606324724829,106.36560781942447,42.07206911745183
74.1949967285251,83.97351345875816,56.120103801677516,46.0753442330073,57.11956883735224,106.79202616809607,41.91445544740763
73.9482752444626,83.72444452471922,55.87671348508097,46.20686754504428,57.30788830086499,107.18116471480396,41.759974130567926
73.69498258438668,83.48750786378855,55.653633423881125,46.34647412772481,57.5100128096152,107.53205119034654,41.60903759942753
73.4362091370122,83.26297413169985,55.451195840982265,46.493710830331075,57.72477381520477,107.84393874428858,41.46201520784578
73.17305750891714,83.0510340784641,55.26961868274832,46.64816103666424,57.95088310008029,108.11629239365143,41.319229050273556
72.90661158000074,82.8517891566389,55.109037644500425,46.80942435558809,58.18694835001176,108.34876257183642,41.18096302618182
72.637923336144,82.66528151500897,54.969510251785906,46.9771103184643,58.43147378344803,108.54114833697209,41.047463898912135
72.3680263467958,82.49152343142309,54.85098955442421,47.150849981038014,58.68287798334978,108.69334943784422,40.9189270332614
72.09793904863399,82.33048585393625,54.75329891033541,47.33029741646635,58.93953209929707,108.8053134660241,40.79548563311398
71.82863607629038,82.18206708205815,54.67612882170951,47.51510884254357,59.19978622193044,108.87699523239041,40.67721973556173
71.56101935222856,82.0460895975862,54.6190434424577,47.70492553817631,59.46196826436156,108.90834109386729,40.56417268896095
71.29592919662457,81.92232677130383,54.581474297889,47.899385225912276,59.72438421050065,108.899288828049,40.45635371570273
71.03418291421066,81.81051521978853,54.56270330004872,48.09814417668209,59.985347587358206,108.84975981007629,40.35372991949144
70.77658988877485,81.71033348344686,54.56185998543196,48.30087517410495,60.243219325070925,108.7596379354215,40.25623111581228
70.52392690471603,81.62138521146788,54.57794440643511,48.507240802722336,60.49642128917795,108.62875659802688,40.16377414615728
70.27691353347464,81.54322404321867,54.6098544767073,48.71687363326951,60.743424977444356,108.4569128775698,40.076283176178286
70.03621863145601,81.47539521244303,54.656392787198364,48.92938017045615,60.98275197624801,108.24389739741295,39.99368549872742
69.80247440017551,81.4174413443364,54.716255747702874,49.14434981811147,61.213002289603565,107.98951225723995,39.91589486406177
69.57626429603806,81.36887217770476,54.78802896870115,49.361346428960644,61.432881602817794,107.69357325852417,39.84281052697599
69.35809606887956,81.32915633446464,54.8702092430356,49.579890444624326,61.641199116427224,107.3559139182311,39.77433849035108
69.1483975844454,81.29777040118346,54.96124596184431,49.79945743291332,61.83685231327782,106.97639874247119,39.7104101683322
68.94754152733653,81.27425978994101,55.05957244541623,50.01949741232289,62.01883188449711,106.55495004883821,39.65097746447899
68.75586199866385,81.25824917446857,55.16362057369233,50.23944878208791,62.18624459088866,106.09159467125596,39.595995977141165
68.57363918365027,81.2494159781456,55.271841484219614,50.45872828383614,62.33832103482103,105.58651323894958,39.545422633346966
68.40108047727696,81.24748150775243,55.382734272374684,50.67671327683768,62.47439627062711,105.04006223395977,39.499232578599916
68.23833634227748,81.25222391093578,55.494856892880776,50.89274235995918,62.59389248241839,104.45276053799834,39.457432097309706
68.08553980359913,81.2634719715325,55.60681367556367,51.10613400492475,62.696331347444975,103.82525492616195,39.42004893918267
67.94282500237432,81.28106803368138,55.71724808357344,51.3161993043588,62.781358818915265,103.15828889851848,39.38711261048732
67.8103132888664,81.304839008371,55.82486019742552,51.52223633066046,62.84874524572054,102.45269106791254,39.35865213367721
67.68810014620118,81.334605104861,55.92842781431967,51.72352412174267,62.898360649504525,101.70937298577012,39.33471675785889
67.57626753971594,81.37019835575896,56.02680315417751,51.919342241805424,62.93016189037309,100.92931918011502,39.31539293334942
67.47490407057862,81.41144927009287,56.118895376282936,52.10901035113079,62.94420741397028,100.11358202308965,39.30079568601801
67.38410147414469,81.45815354486716,56.20367227353216,52.291910896615065,62.940668963913886,99.26330665948218,39.291050584985264
67.30393308063994,81.51006564546432,56.280186908264525,52.46747944613017,62.9198122016183,98.37977257983313,39.28629472923718
67.23445057070192,81.56692571203047,56.34759686860632,52.63519272121434,62.88196086510899,97.46440927352778,39.28669239984913
67.17570276779927,81.62847327221114,56.40515299278447,52.79458120635635,62.82748056003204,96.51877062057677,39.292436369290606
67.1277376891966,81.69442179893413,56.45217658333845,52.94524855938891,62.756803174605544,95.54449240701753,39.30372742356606
67.09056964138863,81.76443104939366,56.48806238208922,53.086868419481426,62.670472552901025,94.54326363067689,39.3207568897164
67.06413925772418,81.83811984885826,56.51231586285736,53.21916750994048,62.569166086169474,93.51681988893955,39.34371141701564
67.04829753831582,81.91510169023593,56.52458784988917,53.341925296654196,62.4536833739078,92.46694180579156,39.372785671973354
67.04280945693472,81.99499096008138,56.524672761966514,53.45499023299747,62.32494053858887,91.395441927272,39.40817714876991
67.04734961358761,82.07737711261464,56.512489921872046,53.55828333369575,62.18398438860865,90.304148978908,39.45006565081375
67.06148481640231,82.1618336951121,56.48808346836878,53.6517776064154,62.03199107565597,89.19490722581547,39.498604731266134
67.08467324173657,82.24800101855578,56.451632580285214,53.7354775953281,61.87022879420156,88.06958497187188,39.553933619678986
67.11629568065236,82.33567431234282,56.403438789172874,53.809423719142984,61.70001534751752,86.93006983152203,39.61618508240239
67.15568801339005,82.42481230798205,56.34388927226564,53.873709556025645,61.5227054783167,85.77824697597099,39.68546951825389
67.20214493919217,82.51548231429247,56.273436157947735,53.928481175191116,61.33969639553285,84.61598113359184,39.76184835557199
67.25491581813684,82.60781361436518,56.19262653965347,53.97391581921484,61.152414923021546,83.44511573335716,39.84532374271744
67.31322752218689,82.70198020842567,56.102159938039165,54.010208583403845,60.96228261964164,82.26747679962887,39.93585138953963
67.37632179325824,82.79817771164929,56.002911303436434,54.03758302827928,60.770692733529145,81.08486503509906,40.0333542512864
67.4434662876124,82.89657678462657,55.89590536037162,54.05630553140306,60.57901628362138,79.8990374149374,40.13771530391404
67.51393136256964,82.99729197495884,55.78229454076921,54.06667734163569,60.38861078630622,78.71169852929337,40.24875735824786
67.58696100966115,83.10041220332081,55.66337104662797,54.069010838367085,60.20080224614207,77.52452573500683,40.36623546941438
67.66176165805207,83.2060710059454,55.54057412378753,54.063620514798146,60.01685158614544,76.33921923012,40.48985121075192
67.73750597391556,83.31448103255305,55.415453823854236,54.05083858006456,59.83793769383832,75.1575324793775,40.61926930577568
67.81333360885638,83.42590576579661,55.28961623673373,54.031027873931045,59.665160999791055,73.98126520859512,40.754115905239125
67.88834789662322,83.54062051357646,55.16470236936751,54.00456713858542,59.49953928490862,72.81224871720282,40.89396630415485
67.96163320328503,83.65890687323405,55.042406116567214,53.97181992706497,59.34198129542105,71.65234292922368,41.038344094785266
68.03230038240696,83.78105821054064,54.9244806321209,53.93311549513559,59.1932628323414,70.50342874344457,41.18673380188992
68.09952511988257,83.90735542818591,54.812705198072514,53.888750267556354,59.054034497442466,69.36738195397137,41.338588113919705
68.16255132889354,84.03802055220834,54.70885634603382,53.838991073232066,58.92484995615667,68.24604307231513,41.49332088690443
68.22068527753135,84.17318978690516,54.614724029357,53.78406314580199,58.80617721434379,67.14120121373291,41.65030077769394
68.27331497560908,84.31291602251707,54.532137499467915,53.72413258342156,58.69838967193335,66.05458484394441,41.80886046954059
68.31993731028298,84.457165645176,54.46294504031279,53.65930551005429,58.60178246437225,64.98784202752282,41.968313244384845
68.36015464873283,84.605789062353,54.408958334054034,53.58964798460253,58.51663695050155,63.942516257291416,42.12795852008719
68.39364784567424,84.7584983267974,54.371925896766065,53.51520547394569,58.44328325324257,62.920042423618575,42.28707860015927
68.42016804030969,84.91489510612698,54.35356182093715,53.43600404974423,58.38210451231924,61.92176717851741,42.44494785123863
68.43955835188055,85.07453273433455,54.35557481941926,53.35204520139835,58.333497199920146,60.94896557800463,42.600857987120094
68.4517663319261,85.23694912878108,54.379641145057015,53.26331640681494,58.297839836642936,60.002836794853295,42.75413480375797
68.4568176838487,85.40165074282551,54.42734026762729,53.16981195428534,58.27548901443924,59.08450462822273,42.904130983202236
68.45477419835916,85.56809818677924,54.5001081701113,53.07153779494447,58.2667778770377,58.195046694503425,43.05021344103051
68.44571729178914,85.73572927222854,54.59922678546109,52.968497042192226,58.27199470917989,57.33552549497982,43.1917701490134
68.42976286429567,85.90398448214303,54.72581857823936,52.86068485042922,58.291355858468044,56.50698764537849,43.32823165017068
68.40707204033842,86.07229324543604,54.880821169053775,52.748108375688645,58.324995829529136,55.71045278274731,43.45908033601366
68.37783394273946,86.24004055974598,55.06497239517338,52.63080653152178,58.372965418506745,54.94693088193812,43.583838171437804
68.34224527705996,86.40655804885753,55.278842488042784,52.50884212023041,58.43521568072392,54.21745209166389,43.70205449538653
68.30052055697799,86.57114062448572,55.522882598817795,52.382274923248005,58.51157140789642,53.523062029128916,43.81331480486697
68.25292035599321,86.73305160435405,55.797429980331145,52.25114248268327,58.60171195627781,52.86477494095949,43.91726093682912
68.19975499324514,86.89150174311432,56.10266547939889,52.11546174417192,58.705160887298476,52.24352103412814,44.01359794915685
68.14135329126991,87.04563627961313,56.43856848392241,51.975240410975,58.82127518748619,51.66012426376236,44.10208537089345
68.07803178806536,87.19456108447703,56.80490085432529,51.830479114241946,58.94923441052667,51.11531165076716,44.182533947095514
68.01009587275256,87.33738286984108,57.20120866545987,51.68116782143851,59.08804222327704,50.60971978181725,44.254816221643836
67.93785856220676,87.4732156649838,57.626813650959505,51.52729765383581,59.23655248805927,50.14387727870765,44.31887259975037
67.86163921000048,87.60115264834482,58.08079300363173,51.36888777304654,59.39351063884039,49.71818766324101,44.37469703503943
67.78173718501957,87.72025346285874,58.561972256267566,51.205999417624625,59.557580297488784,49.332937844123535,44.42231387571421
67.69841498226411,87.82958372850277,59.06893807348552,51.038723861394885,59.727343434870875,48.988312283164824,44.46177143574138
67.61191115747208,87.92827644488337,59.60004788065458,50.867166463667296,59.90130047452459,48.68438251437149,44.49315810428111
67.522458165209,88.01555652360352,60.15342270270622,50.6914501323582,60.0778977039419,48.42108170175132,44.5166166182069
67.43027843183037,88.0907267469436,60.72694503259331,50.51172845336267,60.255569832606334,48.198195316191644,44.53233526947628
67.33557735940344,88.15316373533065,61.31829447925588,50.3281830192899,60.43276295826964,48.01537163515397,44.540527976792355
67.23856035403925,88.20233686137038,61.92501689027916,50.141003546768026,60.60793401449503,47.87212616785244,44.54143131301962
67.13945452623226,88.23781137208655,62.54458148411687,49.95037757246697,60.779561680163305,47.76782575222715,44.535324188865225
67.03849953877446,88.25922089891299,63.174401231549275,49.75650858402763,60.94618475962412,47.701671535962696,44.52254423061124
66.93591477580142,88.26625427835398,63.81183888281284,49.55964400874436,61.10643440584753,47.672707121608724,44.503479164516364
66.83188433933348,88.25869404008799,64.45421717322813,49.36008023137559,61.25903106018714,47.67984660815353,44.478546556341236
66.72657949775733,88.23647123757947,65.09882307502211,49.158145734013225,61.40277007745448,47.721889967087044,44.44818872862007
66.62018896587858,88.19967359954988,65.74289779935955,48.954194248380446,61.53654003745914,47.79751347581981,44.412882818588436
66.51291994884889,88.14850458554463,66.38362865349795,48.74861942215052,61.65937560406739,47.90526030475451,44.37314035193442
66.40498083046272,88.08325550370854,67.01817400911212,48.54186506040666,61.77049731053435,48.04355175103745,44.32948670872641
66.29658694475073,88.00433470511241,67.64372528530569,48.33440957205528,61.86930406362027,48.21070812395273,44.28244495342893
66.18799399327976,87.9123167004709,68.25756021395753,48.126739469419604,61.95534219626489,48.404963486525396,44.23254501899016
66.07951587174941,87.80794486593017,68.85705057324654,47.91934063937194,62.028290454796156,48.62447621576109,44.18034093369728
65.97150189998739,87.69208952096477,69.43964862006598,47.71271034263562,62.08795867795135,48.867349772749364,44.12640704734935
65.86430320637889,87.56571632667801,70.0028978352434,47.50736313820546,62.134271695920695,49.13167725114483,44.0713167368911
65.75826685140731,87.42987977650307,70.54447172614779,47.30381288898348,62.167237151029205,49.415595531006346,44.01563343248925
65.65375146236131,87.28570357892146,71.06220204562625,47.102548138520554,62.18693087868975,49.71730949477862,43.95992727394909
65.55112586831703,87.13432892632083,71.55407303640798,46.904029731377,62.193519007671725,50.03507607040119,43.90479448257515
65.45073816054996,86.97686477000977,72.01821100356679,46.70871123657567,62.187286653334155,50.36718163583036,43.850852963818966
65.35288784764573,86.81438041324182,72.45291798264323,46.5170516095197,62.168633306953915,50.71193596360993,43.798722736826015
65.25783125854133,86.64792938756804,72.85674704204214,46.32950231525344,62.138042486137515,51.06766776423203,43.74901812450288
65.16580399765668,86.47855455044997,73.22855356838276,46.14649088262943,62.096063847814435,51.43270420003686,43.70235277110191
65.07702633273799,86.30725337637706,73.56748123886206,45.96842823780117,62.04331572004501,51.80534601344249,43.65933308312107
64.99169672854818,86.13493833540201,73.87291756624933,45.79573083845546,61.980479252913135,52.18386533850213,43.620532171017956
64.91000276866176,85.96243707282979,74.14446323074357,45.628825493752615,61.908272482143964,52.56653231464201,43.58646771304421
64.83214349711601,85.7905272870909,74.38191045292373,45.46812748269236,61.827432766352224,52.9516417889906,43.55760402635218
64.75832979294428,85.61995505675895,74.5852094712895,45.31401797588748,61.738731770602655,53.33751393970737,43.53436522706765
64.68875514851021,85.45141781423395,74.7544343006656,45.166846079433874,61.643002324448446,53.72248204378837,43.517132456316624
64.62356881839686,85.28555777802754,74.88977710152471,45.02694539884533,61.54113703149439,54.10489263680827,43.50622479777787
64.56288891531239,85.12299289508302,74.99156777986177,44.894635757635356,61.434053737945966,54.48311394718632,43.50189137295718
64.50684816114608,84.96434061084287,75.06028038755068,44.77020708207378,61.32266415751849,54.85553311723088,43.5043284610234
64.45562158112254,84.81019716262868,75.09650561077187,44.65391421147814,61.20787172962498,55.2205458686613,43.51369917986434
64.40941481340367,84.66110964000916,75.10091422615916,44.545997113712325,61.09057926797712,55.576565159083366,43.53013056493344
64.36844561706819,84.51758801215266,75.07426017552571,44.446700892876436,60.97167519078938,55.922056604371264,43.553697158945376
64.33293962488607,84.3801356246951,75.01744342040986,44.35626966303786,60.8520048025512,56.25557021644678,43.5844166773742
64.30311977372818,84.24924452804046,74.93158290718901,44.27493042319219,60.732358465384834,56.575742149369646,43.62225985839949
64.2791734333681,84.12535257023808,74.8180348839091,44.20289748637647,60.61348245447002,56.88127976538034,43.667152810266096
64.2612171170692,84.00881503364805,74.67836937315106,44.1403908902086,60.496083241606826,57.17095500375015,43.71896268580166
64.24928943014285,83.8999260753133,74.51436393006266,44.08763594954614,60.38080848735274,57.44361465467321,43.77748699458933
64.24337132869277,83.79895637782465,74.32801755140974,44.04483833790492,60.268228489860874,57.6982086886311,43.84246781169391
64.24339817757988,83.70615476902563,74.12153403794089,44.01216604624023,60.15884519780402,57.93382720265202,43.913619481037045
64.24924275306941,83.62172244817658,73.89726012207998,43.98975828286197,60.05311575458552,58.14972224480612,43.99063966508768
64.26069602782603,83.54581002334999,73.65762477269836,43.97773970229545,59.95145569746936,58.345306351398484,44.073200542452895
64.27748502522752,83.47854530332829,73.40511894262443,43.97621220145386,59.85421645544646,58.52013995601795,44.16094917607669
64.29932067745696,83.42004563533145,73.14229552275093,43.98523398505365,59.761668861019565,58.673909817211914,44.25353041891252
64.3259262900419,83.37038831163744,72.87175083113452,44.004818297280984,59.67401643777378,58.806399315650395,44.350606696907235
64.35702936032918,83.3295704732211,72.59609635587083,44.0349578729857,59.59142022042521,58.917475039444355,44.45184943436798
64.39235774862748,83.29749955125982,72.3179568971014,44.07564315095625,59.51400239293924,59.00710578051586,44.55691399213139
64.43166505585567,83.2740094390441,72.03998839537255,44.12685097193208,59.44183247532122,59.07538493806983,44.66543181551838
64.4747503906539,83.25886280436008,71.76486736502109,44.18852280247293,59.37492907474197,59.1225207961794,44.77703345334133
64.52143945697516,83.2517273834247,71.49523595812573,44.26056285355089,59.31328342426441,59.14879996664331,44.891376470852684
64.57155063698683,83.25216812815054,71.23364597515437,44.34285385731505,59.25687188036892,59.154549544039604,45.00814787163905
64.6248937115872,83.25969302427522,70.98254469453768,44.435261680120114,59.20563998087659,59.140110221493195,45.12705052589436
64.68130526540824,83.27382124765842,70.74428655682289,44.53761695488898,59.159490278530825,59.10582031335681,45.24780574836707
64.74067167626062,83.29410971749313,70.52112485310987,44.64969619678978,59.11831304089786,59.052007348512106,45.370175087110525
64.80290861794103,83.3201303063418,70.31518305388539,44.77122536685398,59.08204421368563,58.97898343713915,45.493970290472475
64.8679289660551,83.35144292461548,70.12844215520913,44.90189565899732,59.05069418383718,58.887045309760175,45.61903607520154
64.93564161438123,83.38758483639201,69.96274110950972,45.04136601357729,59.02432774624299,58.77647994833527,45.74523155196016
65.00597324048424,83.42805410269912,69.81975442360452,45.18925398632576,59.00303526813202,58.64756616726138,45.8724382177191
65.07887252111682,83.4722772278403,69.70094810450799,45.345142102792515,58.9869290942024,58.50056407756171,46.00058147582101
65.15428747537112,83.51959140046667,69.60755163508436,45.50860531028459,58.976147315915156,58.33570164713543,46.12963122511892
65.23215228285467,83.56926994838946,69.54055888477808,45.67922850790998,58.970833398080934,58.153174604760075,46.2595782723483
65.31240495943348,83.6205679447053,69.5007322426333,45.85659306346592,58.9710987580897,57.953161608017105,46.3904192984059
65.3950037691623,83.67273719952054,69.48859002073434,46.04025357758837,58.977005024715616,57.735837543821496,46.522169369194756
65.47990845174164,83.72500480296634,69.50438621175869,46.22973652213771,58.98858004735023,57.50137140761626,46.65487880956518
65.56704471696342,83.7765671723405,69.54810466603149,46.424557882360936,59.00583642104449,57.24991841845357,46.788625545924454
65.65629474385058,83.82663333301566,69.61947516504189,46.62422894837367,59.02876020824077,56.9816266789746,46.92349321895548
65.74752022083698,83.87447743200362,69.71798866951141,46.828237738728824,59.05728260884229,56.69666195996152,47.05956757267535
65.84058069324833,83.91944555639454,69.84288806764992,47.036028650422395,59.0912768592546,56.395230166779534,47.19695363398059
65.93532244931544,83.96092495699979,69.99314277344426,47.24700451325027,59.13059762839913,56.07757865632712,47.33578109834886
66.03156091036226,83.9983200822732,70.16743543425015,47.46054384633884,59.17512516760481,55.743984018487296,47.47618074256457
66.12908568887951,84.03105004182984,70.36418726998944,47.67600671173241,59.22476961142318,55.39475065613672,47.618255343527906
66.22767664554168,84.05854791688624,70.5816205049322,47.892724708979294,59.27944833418355,55.0302296743435,47.76207332690733
66.32709901248963,84.0802530783516,70.81781571069972,48.109999924040736,59.33907961465399,54.65083824595873,47.907678946836846
66.42707884310896,84.09562096764408,71.07074023269999,48.32712412396298,59.40359594596792,54.25706093607259,48.05509102829778
66.52729836615248,84.10416035879705,71.3382869480678,48.54339535596276,59.47294280291969,53.84945135354747,48.20428593011214
66.62742856986402,84.10545688030669,71.61835217751205,48.75811063492362,59.54705160953053,53.42866196276119,48.355194107352325
66.72715979905661,84.09915181622407,71.90890618424714,48.97054578166368,59.625817330720096,52.99548646050712,48.50772710326122
66.82619268190737,84.08490817229003,72.20800870727692,49.17995077745554,59.70910559178603,52.55087207285782,48.66180698206955
66.92420876252086,84.0624072915793,72.51380045143752,49.38556983784075,59.79677012954078,52.09589415823521,48.81736513695752
67.02086371190491,84.03136802391423,72.8245212457336,49.586662390077215,59.888647247530955,51.6317282084094,48.97432288818653
67.11580901026736,83.99154806621773,73.13854106911069,49.78250020319849,59.984530142167536,51.15964443615131,49.132590202385614
67.20870712322527,83.94271676602033,73.45435884787858,49.9723500060464,60.08415195374669,50.68100855511013,49.29208519169955
67.29921646832075,83.88463274492746,73.77057354325815,50.1554735830951,60.187186740730475,50.197261858153695,49.45274084200952
67.38696826507511,83.81705092776359,74.0858741061919,50.33115827863379,60.29325065907702,49.70988245474205,49.61448318457773
67.47157160524715,83.73973722242361,74.3990593117234,50.49875092903095,60.401891999442704,49.22035365667813,49.7772078188572
67.55264393930224,83.65245859830765,74.70904487132786,50.65766390279231,60.51258783531239,48.73016387151512,49.940783837604634
67.62982657407481,83.55495396496073,75.01482977542653,50.807363103384034,60.62476706898815,48.240833354294644,50.105073714941604
67.70276762249405,83.44692109025652,75.31544468361858,50.947369862328934,60.73784195730255,47.75393102478645,50.269935828895164
67.77110564642317,83.32803680636191,75.60991665666133,51.07727883589509,60.85121598590409,47.271064748045525,50.4352065535382
67.83448734841966,83.19798308289681,75.89725955306369,51.196763814552945,60.96427666849895,46.79388182176542,50.60069621543998
67.89260218107026,83.05644644252571,76.17647491518267,51.3055591534721,61.07641181317768,46.324107839572115,50.76621704427785
67.94519518828318,82.9031029619712,76.44654522407481,51.40343770404289,61.18705292537628,45.863585407742235,50.931611828708874
67.99205815112735,82.737623486906,76.7064195003835,51.49020697208406,61.295702322358636,45.414262016979116,51.09674849761741
68.03302480558307,82.55970042022035,76.9550015399167,51.565716272839126,61.40191893698864,44.97813534835957,51.26149387501053
68.06796808141686,82.36906266772199,77.19114129854466,51.62985334653859,61.505292686845664,44.55719553621668,51.425703132924795
68.09677924864819,82.16546114413654,77.4136227652028,51.68252983570962,61.60544555508632,44.15337835153796,51.5892307905628
68.1193318564493,81.94864756899088,77.62115555471736,51.72367646449389,61.70205388993215,43.76852012055649,51.751935555541664
68.13545735988131,81.71837458275171,77.81240962997559,51.75325541616341,61.794855361282146,43.40431353700453,51.91366395059514
68.14495514556562,81.47441070824377,77.98613220675148,51.77127079767631,61.88362765450027,43.06228104230864,52.074236164812525
68.14762562348616,81.21654131059309,78.14130387018582,51.777759452699456,61.96816962824169,42.74377774416679,52.23346094602366
68.14328745091663,80.9445510804903,78.27722594720015,51.77277102008511,62.0483112025771,42.45000712523466,52.391165552297885
68.13176497968107,80.65822439589186,78.39350414595378,51.756363795992115,62.12393065381596,42.18202033946627,52.547204145271984
68.11287911370465,80.35739628619677,78.49000140082809,51.7286279092294,62.194945250309615,41.94069519458206,52.7014400274483
68.08646968812866,80.04202883991061,78.56681949771672,51.68971247000818,62.261283110444175,41.72671869604291,52.85373514014283
68.05242583378312,79.71225232172836,78.62428653108152,51.63982833944182,62.32287434679024,41.54059164999116,53.00396693258666
68.01068626526592,79.36835355902734,78.66291093050718,51.57923494651149,62.379674081878576,41.38264457932514,53.15204857364291
67.96121754697478,79.01075367891431,78.6833178994311,51.5082390357146,62.43168437120922,41.25304257106484,53.29792225869166
67.90400981107389,78.64000893287182,78.68622123004592,51.42720555070342,62.478944609669,41.15178088787119,53.441536745699906
67.83909787123285,78.25681502270324,78.67244711447566,51.336555685440445,62.52150907637662,41.07869277745106,53.58284260538764
67.76657326412922,77.86198479626836,78.64295866283464,51.23674454682253,62.55944699138106,41.033470913023976,53.7218074271769
67.68656682035144,77.45641257957939,78.5988313806022,51.128242564130026,62.592859300663896,41.015678062679356,53.85841927449666
67.59922816588237,77.04105505951647,78.54119825050346,51.01154299782022,62.62187669716134,41.0247367384521,53.992664364325975
67.50473351854893,76.61692280111248,78.47120933835478,50.887181907159956,62.64663069271499,41.05992031080606,54.12450726515603
67.4033099038411,76.18505708600442,78.3900110953319,50.755739437359004,62.66723082893555,41.12036595702146,54.25390276838128
67.29523911236089,75.74649525435707,78.2987205527237,50.617822388032245,62.68377670068679,41.205096428750345,54.38082393140596
67.18083497225618,75.30225161791553,78.19838823084051,50.47406073310266,62.696387081266415,41.31302590146909,54.50526706372356
67.06043061143674,74.85332074855653,78.08996987001616,50.325130425318314,62.705205505626886,41.442950578700156,54.627228582237805
66.93440587356669,74.40067837723225,77.97431798883309,50.171771174335085,62.710377579923964,41.59354789946712,54.7466895129681
66.80322975016938,73.94526366241067,77.85218092727882,50.01477087484781,62.71203932341514,41.76339662299826,54.863629674895456
66.66746952051966,73.48796552626901,77.72420418046087,49.85493113785978,62.71034626377543,41.95100075043001,54.97804702021585
66.52776877421925,73.02964289085324,77.59095383427368,49.69304991675966,62.70551899336822,42.15479624994086,55.08995077002039
66.38483686914464,72.57116381537159,77.45296552958459,49.52993460749664,62.697856456739714,42.37314497778196,55.199339641681924
66.23945822905047,72.11341761663026,77.31077833400127,49.366419567884684,62.687711199731694,42.604340193274815,55.3062001228728
66.0924875005485,71.6572880149589,77.16492426400453,49.20335776214565,62.6754626448519,42.84663808635978,55.410527511650514
65.94481920456508,71.20362497366946,77.01590507325105,49.041594497067315,62.661504352138245,43.0982968063305,55.51233577755426
65.79737046851325,70.75324994911877,76.86420672223524,48.88195202753239,62.646226651094715,43.35759228062687,55.611639156408366
65.65110269207673,70.30698058695482,76.7103513687687,48.72522884646559,62.62998591861394,43.62281431640252,55.70843212691395
65.50704485820465,69.86563534623583,76.55494216036523,48.572192283008285,62.613083704765,43.892286932045636,55.802698227245244
65.36627474036713,69.43001837189664,76.39867104586826,48.42355616394066,62.59577719255332,44.16444385055372,55.89443657608504
65.22987045482814,69.00092950520116,76.24229762853668,48.27996349780633,62.57830343656228,44.437922813234536,55.9836695940879
65.09887572170602,68.57921055751919,76.08663592429602,48.141994594564345,62.56088207391914,44.71161003517058,56.07042425851208
64.97429844702165,68.16577490854071,75.93257572572143,48.01018987848903,62.54369596403598,44.984620340166245,56.15471970457413
64.85711796937933,67.7615835866746,75.78110530040345,47.885056279193726,62.526886005572756,45.25625201935902,56.236585276665416
64.74826715437939,67.36760101526819,75.63329035630741,47.7670487486537,62.510577956072105,45.525942548915744,56.31608644246589
64.648596188255,66.98477848947395,75.49022879772166,47.65655309575405,62.494910395235955,45.7932252745386,56.3933231850701
64.55885678690706,66.61406270818553,75.35303165805554,47.55389259092242,62.48002993741092,46.05768934355695,56.46840782016918
64.47972060574023,66.25638976820439,75.22284678023296,47.459345099793765,62.46606588056857,46.318953120493276,56.54145915960906
64.41179766674702,65.9126493646959,75.10089600943135,47.37314457607051,62.453116697174146,46.57665462184818,56.612620122660175
64.35562404896834,65.58364684765971,74.98847644477246,47.29547060863351,62.441251469355976,46.8304474826336,56.6820648975773
64.31163857477235,65.27009051726384,74.88692934841997,47.22645308674838,62.430504304455035,47.07998689518762,56.749975616868745
64.28017943856158,64.97259439505238,74.79768636584427,47.16619511403336,62.420856529711244,47.324904660396946,56.81651391575863
64.26148940752691,64.69166846640978,74.72248242709327,47.11478429684004,62.41223230338636,47.564788710243995,56.88181970349222
64.25570188961203,64.42769841560349,74.66362647546316,47.072277566626646,62.40452304830276,47.79917917262265,56.94602988076312
64.26281310152689,64.18095014795675,74.62412600708257,47.03868568224853,62.39761267242965,48.02757361888199,57.00928173040073
64.28266722568348,63.95160917981526,74.60760698155386,47.0139847265355,62.39137280879775,48.2494267930426,57.07169060758976
64.31496207527339,63.739813188510965,74.61812295280362,46.998141063091,62.38564181695415,48.46415417660725,57.133332525994625
64.35925653682988,63.54564296691701,74.6599587241735,46.991115973257855,62.38022059648751,48.67117252782659,57.194256403016404
64.41496569040135,63.36909196120645,74.73747199578848,46.99284780896199,62.374888200093125,48.869978007754185,57.25450678030646
64.48136008069974,63.210053342402304,74.85495626004585,47.003248487404704,62.3694089945023,49.060205457985376,57.314124098914384
64.55759482887636,63.06832821773648,75.01649860083486,47.02223776151252,62.36351468771634,49.24162886833531,57.373128011266964
64.64275731189254,62.94362762802121,75.22585798309514,47.04978467436488,62.35687989097259,49.41413238469764,57.4315197919058
64.7358922923388,62.83555789935413,75.4864396325615,47.0859111626096,62.34912486569943,49.577696532303285,57.4893118130618
64.83599514926765,62.743614993047686,75.8013912550895,47.13066125744136,62.33985834590717,49.73240444713928,57.546547161065035
64.94201407701995,62.66721065723137,76.17373992437793,47.18407684093095,62.32873012266119,49.87844783384857,57.60328456213456
65.05288956466916,62.60571116964989,76.60647490788318,47.2461984005602,62.3154524487925,50.01612286052905,57.65957406575557
65.16759900129534,62.558454592661306,77.10254142963434,47.3170670784407,62.29979731718131,50.145825642149546,57.71545743784346
65.28516337982624,62.52475726780782,77.66475361599365,47.39670539991157,62.281603007301555,50.26805100067811,57.770985198656476
65.40462646289588,62.50395070122582,78.29566144388912,47.48509314625959,62.26078408575854,50.383377013563816,57.82621701375
65.52504448558005,62.49544230929258,78.99742883951772,47.582168298609965,62.23731635640779,50.49243217772911,57.88119968509322
65.64549319528079,62.49874466074729,79.77180198922079,47.687848735135425,62.211204554146526,50.59588354870961,57.93595339480129
65.76506822398483,62.51345469221497,80.62018708122295,47.80204057991051,62.18247007486938,50.69447570388763,57.99048634374805
65.8828675810671,62.53922351837139,81.5437270048261,47.92461968470866,62.15116946910884,50.789083423871666,58.04481552681216
65.99797804729599,62.57574585458251,82.54328166365332,48.05541402066502,62.117410326218376,50.880718674309854,58.098963303019644
66.10949076706794,62.62275043220204,83.61934374426953,48.194216011358996,62.08133612639852,50.9704911777402,58.1529390067308
66.21653500845458,62.67996957354807,84.77194278005479,48.34081180830184,62.04309709798217,51.05956252796855,58.206738473141144
66.31829379137898,62.74710286753604,86.00055119458082,48.49499003746403,62.00284224448963,51.14910847844582,58.260364430857216
66.41399115513391,62.82380785741023,87.30401157045819,48.65652132089151,61.96073541798109,51.2402771474912,58.31383526007546
66.50288357457231,62.90972057117575,88.68051410748221,48.82513870610427,61.91696268647557,51.33414435735678,58.367164863310734
66.58428496285015,63.004468395784286,90.12765814754476,49.000543057088095,61.871713485836224,51.431689805079245,58.42033814495707
66.65760520133077,63.10764834031481,91.64262398034897,49.182418203454965,61.825163040645705,51.53380425840871,58.47331166980974
66.72235806410205,63.21878737511179,93.22239119075415,49.37042782150389,61.77748375604762,51.641300341090485,58.52603096461705
66.77813487020589,63.33731845915453,94.86385843458217,49.56419803900492,61.7288659649273,51.75489700290355,58.57843132874409
66.82459105031927,63.4625868441824,96.56381812785838,49.76331487882669,61.67951166630424,51.87518449102419,58.630415715501336
66.86148215049118,63.593867964719934,98.31889664622777,49.967342983112964,61.629602392574526,52.00259689457357,58.68184262984364
66.88871912952978,63.730373451758034,100.12556722148375,50.175837177446155,61.57927430716999,52.137403426196876,58.7325480530136
66.90638396677576,63.871261117436994,101.98021909443375,50.388329740231235,61.5286214871815,52.279706251208154,58.78237758141435
66.91470226309404,64.01567461813205,103.87920170007098,50.604316932434564,61.477712579939904,52.42943088449962,58.83119112839447
66.91402032783526,64.16278812617185,105.81883120070827,50.82327175264353,61.4265917069896,52.58631400581989,58.87884541440492
66.90480460272195,64.31181164948106,107.79540748288615,51.04467032870798,61.37526327591807,52.74990882492662,58.92519100534718
66.88763129559999,64.46195940068472,109.80523493276412,51.26799839099679,61.323692536268716,52.9196161233787,58.970092116779256
66.86314885404384,64.6124231270457,111.84461789850602,51.49273069449401,61.27183471656517,53.09471828567334,59.013437155363384
66.83204700189292,64.76238129394166,113.909871580306,51.71830745074543,61.21966003758317,53.2743909541449,59.05512146111716
66.79506179954494,64.91103104886993,115.99739036957659,51.9441266737253,61.167146743313815,53.45770123914347,59.09502743547763
66.75298976305693,65.0576027535387,118.10372872141163,52.16954485198713,61.11426723525504,53.64362248861942,59.133031201904785
66.70667072145397,65.20134730589572,120.22564053580645,52.3938704040349,61.06101146782837,53.83107422503856,59.16902390811163
66.65694985933406,65.34152965043187,122.36011107558376,52.61635415608095,61.00744111700964,54.01896021360383,59.20291264104303
66.60466280379723,65.47744642174598,124.504417127838,52.83619660889293,60.95371758637643,54.20617636832057,59.23459588121434
66.55065302372874,65.60844022411392,126.65615436548998,53.05257468630054,60.90007718249163,54.39159477353432,59.26394692687814
66.49578059051544,65.73388382272266,128.81318089109146,53.26466285012124,60.846791820541476,54.57405551511333,59.29082892343362
66.4408953908928,65.85315143641049,130.97353177334656,53.47162938510176,60.79415566312164,54.75238623391018,59.31512081361518
66.38680385177071,65.96562146853884,133.1353630435825,53.672622282671185,60.74248784533266,54.92543345947037,59.3367192389392
66.33426644332525,66.07072232768255,135.29690336699878,53.866775514142,60.69211873119752,55.09207582128146,59.355518199166276
66.28401521596325,66.16797236038647,137.45639579704385,54.05324393226303,60.643356862698646,55.251218056945724,59.37140166168517
66.23675177229957,66.25697223000677,139.61208357642738,54.2312377794733,60.59646701710223,55.40179127360955,59.3842635364143
66.19311726752846,66.33737574980202,141.76226550882953,54.40002875766608,60.55167711437305,55.542771730077504,59.39402525494887
66.1536702093628,66.40888395524003,143.90533552271015,54.558942632965376,60.50919138307551,55.673201537430955,59.40062317324904
66.11889829094883,66.47126132676384,146.03972712007328,54.70736951976128,60.4691817499615,55.79219144571892,59.40398171789216
66.08924064670188,66.52433956090229,148.1638217164972,54.844785796583224,60.43176692120614,55.89891191206993,59.40400869711167
66.06508454318679,66.56799427150986,150.27594692043434,54.970756090833774,60.39700797080776,55.992592612414484,59.40062112367543
66.04674117078814,66.60212110067945,152.37447192508333,55.084911180082074,60.36492146303245,56.0725299132668,59.3937697502174
66.03443466059129,66.62664452136927,154.45786582531224,55.18693257790444,60.33548273804772,56.13808510828212,59.38343392767148
66.0283185498612,66.64155164684469,156.5246696495572,55.27656718058279,60.308609112271334,56.18867335942414,59.369602868725494
66.02849438505831,66.64690747213051,158.57351311532187,55.35365543453973,60.28415020254003,56.22376174238766,59.352277140823375
66.03500444374926,66.64283132891742,160.60323440438668,55.418136782397326,60.261911791660545,56.242880418891055,59.33148879449295
66.04781137868453,66.62946181820439,162.61297231483564,55.47002838773259,60.24169586017181,56.245627771060164,59.307307338192885
66.06680093696276,66.60694178229365,164.6021631415562,55.50941335477185,60.22331493191651,56.231658426755516,59.27982034517002
66.09181058232505,66.57542111570993,166.5705211566105,55.53645903638321,60.206575180610784,56.200670770296256,59.249117102936324
66.1226456354798,66.53505526369739,168.51802255931779,55.55143646375924,60.19127577780739,56.15241332026121,59.21530007491401
66.15906481242324,66.48599656983437,170.4448350270191,55.554708282763954,60.177265232700414,56.08670134937761,59.17850665202373
66.20077278011794,66.42840214421436,172.35120976765648,55.546698951060904,60.164522594579694,56.003419314518396,59.13890719613391
66.24745721183895,66.36246453783748,174.23743334980952,55.52788177731647,60.15319168804311,55.90250686999413,59.096681701405544
66.29884378202408,66.2884316038443,176.10388341552647,55.49878501400141,60.143555504286965,55.78395402418667,59.05201148815128
66.3547140187669,66.20658936645114,177.95111134380355,55.45998827449789,60.13600319455337,55.6478195022806,59.005100899046795
66.41488570158083,66.11722619905218,179.77986901230003,55.41209818845037,60.13101828172032,55.494249918886865,58.95619842011426
66.47920632138954,66.02061284084282,181.59110126061398,55.3557295667554,60.12916126244997,55.32347454354236,58.9055879296832
66.5475779926475,65.91700789355042,183.38596100820814,55.29151478687912,60.1310276685535,55.135785841034824,58.85356745380098
66.61997354922111,65.80666669582632,185.16583094464548,55.22012259657479,60.13721169523108,54.93153318247822,58.8004508343145
66.69641435238411,65.68983560423835,186.93227612675244,55.14225428957973,60.14830599297403,54.71113411883617,58.74658870879057
66.77694061182201,65.56675233869198,188.68690899018776,55.05862169524638,60.16491605668324,54.47508142982802,58.69237124977151
66.86161751979755,65.43767658168129,190.4312336732448,54.96993816146425,60.187650085460746,54.22393581383377,58.638199939757676
66.9505684321165,65.3029253261646,192.16653183135725,54.87692907087386,60.21709168198688,53.958331129705975,58.584460138461566
67.04399046713341,65.16287132597908,193.89383762841848,54.78033397443457,60.253796932756394,53.67901634795229,58.531522537235176
67.142140899199,65.0179130160362,195.61402976489236,54.68088339569483,60.29832144994341,53.38690435040428,58.479757060705175
67.24533019820196,64.86846198389085,197.32795874701418,54.579270118705836,60.351232500266036,53.08307961303987,58.42952566579244
67.35393691503198,64.71496620769423,199.03648584482718,54.47614005643941,60.41307743824028,52.768768990426075,58.38115587828802
67.46840619186278,64.55793547537044,200.74045045689886,54.372097122296374,60.48433436953022,52.445317766170014,58.334928886798664
67.58920993663254,64.3979347423328,202.44065163555968,54.2676975374285,60.565386743851725,52.11418459409519,58.29109506129809
67.7168079134155,64.23556205459106,204.13781201293776,54.163429425416254,60.65652938328375,51.77692902400818,58.24988926031404
67.85164667655468,64.07144872524385,205.83246907284231,54.05970261499701,60.75797482313621,51.43517299609243,58.211521874820434
67.99417193477034,63.906278414002976,207.52486884192302,53.95686556725827,60.86983496647613,51.09055315684336,58.176162973050495
68.14480940091956,63.740786687554234,209.21494405285293,53.85522943106493,60.992095477543316,50.74469434125666,58.143952129264555
68.30391810504011,63.57572914204253,210.90232626198193,53.75506949286579,61.124617057061386,50.39921022233866,58.115030140050656
68.47176354725,63.411853625622385,212.5863180115922,53.65660885823644,61.26716296294303,50.05570399860979,58.08955296438511
68.64853251303579,63.24990944056821,214.26586334294728,53.56001869831481,61.419415892179124,49.71574698027977,58.06767044403584
68.83435367485473,63.09067474276457,215.93959969352926,53.4654495154609,61.58096594327476,49.38084828907494,58.049501704454336
69.02928632515923,62.93495681261522,217.60597810929343,53.37306280865784,61.7512957487061,49.05244031992947,58.03513944501841
69.2332927150781,62.78355563256974,219.26334514740788,53.28303066702389,61.92978887567667,48.73188005152955,58.02466786778536
69.44622915229496,62.6372280608199,220.90991888509632,53.195517434293336,62.115747855182335,48.42044731449215,58.01815947439435
69.66785390341292,62.49669172066015,222.543700572171,53.110679689870445,62.3083929258187,48.11934157812178,58.01565265444265
69.89782225408844,62.36266001585614,224.16240270481984,53.028686318165,62.506842072992455,47.82970495194575,58.017143947687615
70.1356615600949,62.23585951843939,225.76342539902734,52.94972562111029,62.71010216495897,47.552670631076346,58.02260599694176
70.38075453558837,62.117014469930275,227.34387322251672,52.873985997986054,62.91708719783159,47.289389627410614,58.0320023451033
70.63235302679176,62.00683879563593,228.90062943948243,52.80163786049612,63.12664156361836,47.0410080887926,58.0452766617566
70.88960454223957,61.90605439547925,230.43049132358462,52.732842064813795,63.33754181595436,46.80863104115452,58.06233485471934
71.15156274308275,61.815397745035646,231.9302830106979,52.66777022008839,63.54848870195256,46.5933364560585,58.08305043365102
71.41719088874149,61.73558822546942,233.39688234581607,52.60660520066851,63.75812821364695,46.39625431960872,58.107289059233864
71.68539033676635,61.667284723186796,234.82721844768085,52.54951843424148,63.96511094667663,46.218640344272465,58.134917864725466
71.95505314616203,61.61106108075311,236.21831130495022,52.496649358567794,64.16814515875095,46.06187352210286,58.16578662137013
72.22509962092819,61.56739175088882,237.56734460974232,52.44810112063232,64.36600393412036,45.9273933898113,58.199711735959255
72.49447813487755,61.5366252750646,238.87172607075138,52.40393854262174,64.5575059879599,45.81663239089532,58.23649104128046
72.76215503845728,61.51894937051155,240.12911290615688,52.364172989237105,64.74151402042372,45.73096311460227,58.27592953315786
73.02713119198218,61.51437554184047,241.3373930332602,52.32874215490611,64.91695771312304,45.67164968283417,58.317839062088424
73.28847127229228,61.52275632978448,242.49461909250763,52.29750943107835,65.08284838236338,45.63979925048797,58.36201420513574
73.54530423908516,61.543810242145824,243.59893814713072,52.270294234549745,65.23826459539053,45.636326625587046,58.40822069739372
73.79679454581947,61.577124640628604,244.64857341804517,52.24690856348112,65.38233286822785,45.66194635662678,58.45621303822093
74.04212654153983,61.62214290873632,245.64184262516454,52.22716658919779,65.51424096323943,45.71718646205805,58.50575490072471
74.28052375618374,61.678168975645185,246.577148097726,52.210875051837384,65.63328144851322,45.80239591330438,58.556614526677116
74.51127261389786,61.74440599243746,247.45292659683753,52.19783971242907,65.73887983923744,45.91772850512458,58.6085490000128
74.73371451709112,61.82000242148029,248.26760244249758,52.18789156310494,65.83058341670939,46.06311998230921,58.66130817238964
74.94721738218527,61.90406892141448,249.01956868389004,52.1808991586494,65.90804688411353,46.23828520160314,58.714654030436606
75.15116205629299,61.995673606628536,249.7071884076545,52.176751091023846,65.97104889907509,46.44273504172028,58.76836280628352
75.34494696303426,62.093852579463146,250.3287993554948,52.175335239567936,66.01951321964556,46.67578755878417,58.822200917809255
75.52798292427721,62.19764079131674,250.88271563529648,52.17654270043047,66.05349464992294,46.93656201626652,58.87590315343055
75.6996680366512,62.30608892804879,251.36724234802432,52.180284473467026,66.07313705668594,47.22397836977235,58.929176137540686
75.85936924449321,62.41824938871406,251.7807049658658,52.18649022226602,66.07863727660747,47.536783791175864,58.98171252760405
76.00643779818635,62.533158853611745,252.12146150333254,52.19508943130136,66.07022714913809,47.873589229997336,59.0331882985992
76.14024496719351,62.6498451033517,252.38789457309383,52.20600601437751,66.04815750049518,48.232883382439454,59.08324536315899
76.26019711094402,62.76734462231775,252.5784296404606,52.219176184107404,66.01267356898413,48.61302193236862,59.131490204019926
76.36572158759535,62.884702596214765,252.69159769008297,52.234559793428225,65.96400622888993,49.01221920862953,59.17752243701991
76.45626459365288,63.00096277148762,252.72609714815076,52.25212216447281,65.90241295703078,49.42856153941364,59.22096524766141
76.53132883803268,63.11518161506407,252.68081436128375,52.27180176700218,65.82825198462024,49.86003151654759,59.261466212503535
76.59051743178644,63.226467894476585,252.5548310422538,52.29349295081187,65.74202522636607,50.30451939785884,59.29868056226023
76.63353853135625,63.334005456187796,252.3474529109425,52.31705215393692,65.64435851208748,50.75981682156984,59.33227155667271
76.6601818420022,63.437037747037884,252.0582177449397,52.34230763853726,65.53595657217605,51.22361101699765,59.36193050835281
76.67031189856299,63.534846135183976,251.68684530858428,52.36905410311724,65.41758887673444,51.693500714279956,59.387385396165314
76.66388592045946,63.626759691384365,251.23317406981988,52.397046735964054,65.29011826650517,52.16703481521446,59.408383881831895
76.64095923359532,63.7121867910661,250.69712991083762,52.426020687640595,65.15452676579334,52.64174839189348,59.42467522845215
76.60165829128643,63.79062626936273,250.07870985093075,52.4557266348936,65.01189691068612,53.11517594734543,59.436017512335255
76.54615081577248,63.861643481571356,249.37795475908328,52.485945531793355,64.86336562305738,53.58485533103381,59.44219952881584
76.47464805961643,63.92484950850498,248.59492699626492,52.51647106415315,64.7100888912545,54.04834341890479,59.44304544480999
76.38742777760915,63.9799326731024,247.72974273901983,52.547091099219315,64.55322057683162,54.50323781783041,59.43839754750119
76.28483612153143,64.02673345776928,246.78267554438312,52.57760060565239,64.39388495196599,54.94719328137287,59.42810673084972
76.16725882538385,64.06529215110538,245.75425718311953,52.60783487699911,64.23314352205699,55.37795440262774,59.4120461159612
76.03510136804243,64.09583025896842,244.6452997416618,52.63768363158889,64.07198244172103,55.79342455406326,59.39012366397405
75.88880791951713,64.11870912432052,243.4568808128926,52.66707715183461,63.91132823682739,56.191733309087496,59.362269483988534
75.72889083392366,64.13441749244829,242.1903736680599,52.69597756001252,63.752060381047244,56.571257939656405,59.32840974326486
75.55592779763565,64.14357667114689,240.84750771130845,52.72439525048856,63.594995377958945,56.93062594182499,59.28845909180809
75.37053511995315,64.1469222963397,239.4304032829457,52.75240587370969,63.44086104091065,57.268744189349626,59.242343375453345
75.17335635475011,64.14526434015853,237.94159904721695,52.780140049107914,63.290292131388746,57.58483279881526,59.19002594255667
74.96507022040132,64.13946759663408,236.3841104747989,52.80776028203759,63.143843172314014,57.87841401865663,59.13150700423619
74.74638496704554,64.13046307276683,234.76147900606023,52.83545826412224,63.00198790440714,58.149255252681776,59.06680612495046
74.51800860463953,64.11924760337897,233.07774030049018,52.86347070801043,62.86509736385026,58.397309141764495,58.99596034400513
74.28062945310417,64.10684465111507,231.33731701692395,52.892079913753946,62.73342482610049,58.62269950967455,58.91904075353494
74.03493321007402,64.09425572333905,229.5449205267952,52.921588133325834,62.60712110190561,58.825761183904625,58.836158087024955
73.78162932253677,64.082440179634,227.7055106045471,52.952296966375,62.486263194685804,59.0070750504392,58.74744444394621
73.5214470695153,64.07231762838568,225.82426588782775,52.98451936986093,62.37086134290335,59.1674464681531,58.653037365973255
73.25510857601228,64.06475853597624,223.90651761477852,53.01860544842553,62.26084308970386,59.307851525522935,58.55309317957728
72.98331852466852,64.06055389946468,221.95766991921062,53.054941882393095,62.15605606854752,59.429396788167196,58.44781502244695
72.7067860771278,64.0603955030582,219.98313047177373,53.093921674758526,62.05632074728497,59.53329155159562,58.33745858916423
72.42624950668967,64.06488892923777,217.98824681000792,53.1359222739009,61.961501497963916,59.620809535104435,58.22231127081403
72.14247113814146,64.07457363993011,215.97827362010756,53.18131609685121,61.87153593389486,59.6932452459489,58.102678879194855
71.85621580643608,64.08991508225137,213.95838605259706,53.230489016475836,61.7864160448076,59.75189121272791,57.97889947570465
71.56825181499278,64.11127755125787,211.93367528437625,53.2838322263061,61.706170199477036,59.79803694789373,57.851359531039414
71.2793764245925,64.13891766276788,209.90909706885068,53.34171683311809,61.630872525166446,59.83295976867763,57.72048374731461
70.9904248315514,64.17301151221538,207.88948050004544,53.40448892178079,61.560650172357285,59.85789300376383,57.586711634578194
70.70224310145753,64.21368021567503,205.87966132592743,53.47248927222703,61.49566050341749,59.87399283765987,57.45049330750774
70.41565946835588,64.26098286342625,203.88461531800328,53.54606020621149,61.43606345984393,59.8823274236141,57.31230371836589
70.13149228896367,64.31489836456362,201.90948440300025,53.625520945403586,61.382033110522784,59.88388144616057,57.17264280276669
69.85058069796494,64.37533734624637,199.95954618709018,53.71114168229907,61.333801609583276,59.879549851956384,57.03200810986862
69.5737928392277,64.44218317311231,198.04016910008278,53.80314755809049,61.29167973235313,59.87011412623541,56.890865216291154
69.30200231303635,64.51531812240286,196.1567298616638,53.90173753393477,61.25602885865687,59.85622677846665,56.74964354385526
69.03606680867902,64.59460950088013,194.31451684721972,54.007082473101384,61.22722611114185,59.838427423302385,56.60875016197837
68.77682769321838,64.67988513236341,192.51868023180793,54.119301034716564,61.205668211313856,59.81717633839668,56.46857082043318
68.5251086836946,64.77094180364796,190.7742446419191,54.23844636622707,61.19179909845376,59.792869809056626,56.32945026488057
68.28169956253254,64.86758319621123,189.08613875922083,54.364520860351796,61.186111022343674,59.76582807565287,56.19167931135536
68.04735910574576,64.96964342892313,187.45916850036517,54.49749532601181,61.18910683611422,59.73628327700743,56.05550761061023
67.82286164216829,65.0769855447919,185.8979228608742,54.63730356626267,61.20126320872056,59.70438813540358,55.92116161446015
67.6090391996902,65.18951216352048,184.40671744658485,54.78382162709667,61.2230255688988,59.670229720139545,55.78884157494654
67.40676544901119,65.30719597288676,182.98964061421793,54.9368643456576,61.25481442419485,59.633826878327156,55.65870773330369
67.21689816973067,65.43008693313224,181.65059116408295,55.096203862349576,61.29700742118228,59.59512420714849,55.5308842286858
67.04023327168251,65.55827643679675,180.39319799877993,55.26157897674268,61.34989952264582,59.55400979115241,55.40548081148972
66.8775033399003,65.69185183998306,179.22068099456254,55.43267633627787,61.41367413468739,59.510349374179796,55.282603123060255
66.72940593171718,65.83087102294819,178.13575693464625,55.60910488350281,61.488399227882255,59.46400168835377,55.162338570878816
66.5966124632971,65.97534511985558,177.14060133860988,55.79039595062133,61.57402766592637,59.41480759065324,55.044741236264414
66.47974091848937,66.12520824581216,176.23682603812725,55.97602817332841,61.6703882275605,59.362586879190694,54.92984133521949
66.37933230103894,66.28028103696181,175.42546778547066,56.165443864431104,61.77718733437531,59.30716609832597,54.817669152629385
66.2958630958229,66.44025361727765,174.70700959901774,56.35804221548685,61.89403464676927,59.24841624260338,54.70826138802614
66.2297693305588,66.60469895697035,174.08142191921786,56.55317598061179,62.020467895998635,59.18626641636072,54.601643685454874
66.18144043224116,66.77309604857712,173.54819829944321,56.75017252291879,62.155948993322774,59.12068768756014,54.497818550470875
66.15118694378675,66.94483332764452,173.10640609300668,56.948358717359014,62.2998390391935,59.05167046331128,54.39677806972287
66.13922192960786,67.11919549657848,172.75477028228744,57.14706273015053,62.45138336313892,58.979219706433504,54.29852176163368
66.1456685881872,67.29537454250296,172.49175409923367,57.345604910161974,62.60971992803941,58.90336356496778,54.203053514071705
66.17056496651956,67.4725270963318,172.31559768874146,57.54331031416678,62.773890966642114,58.824151653923714,54.11036624198972
66.21384722081176,67.64983683948488,172.22431450987028,57.73954017182756,62.94283756705349,58.74164070589263,54.0204413079997
66.27533567003977,67.82653037286588,172.2156832236705,57.93370439090132,63.115388990554024,58.65588451241595,53.93326325902952
66.35474813404251,68.00186374274017,172.28726827368348,58.125240745061,63.29027471985744,58.56692728192822,53.84882324058015
66.45171889550022,68.1751431900239,172.4364383426387,58.31359241993941,63.46616461198194,58.47478624917807,53.76710186834406
66.56578992884722,68.34579250660519,172.66036555298433,58.49821496189655,63.6417082400346,58.37942626774896,53.68805704051624
66.6963857225576,68.51340161076884,172.95606473606912,58.678599257068996,63.81554547113177,58.28074881992246,53.611636597900976
66.84281077050987,68.67770867838479,173.3204737276606,58.854274681321925,63.986298867957686,58.17861472174457,53.53779723742466
67.00427644972616,68.83854961026945,173.75049141471806,59.02478773938964,64.15258274126039,58.072887741112844,53.466500297013766
67.1799217436568,68.9958291633998,174.2429826366061,59.18968775633802,64.31303896217892,57.963459851187224,53.39768670867761
67.36880512782697,69.14951819655198,174.79482252095994,59.348539174885076,64.46636882366383,57.85024247691559,53.33126222618582
67.56988997363291,69.29964189027612,175.40293424012353,59.50093964883199,64.61133213659575,57.733152872256646,53.26711245767969
67.782051324329,69.44624438122968,176.0642388716829,59.64651478129968,64.74672934662546,57.61212708565931,53.205127626746894
68.00409403733906,69.58936224394775,176.77555537909964,59.78489470405819,64.87142115583816,57.487149093183014,53.145205589261636
68.23475252375914,69.72903518459174,177.5335314759271,59.91570294183917,64.98441925375586,57.358260472769125,53.08723921214017
68.47267046174109,69.86532822711484,178.33462790385136,60.03856879597027,65.08499717803657,57.22554367664554,53.03112086661201
68.71639541289235,69.998322111849,179.17512606884742,60.153140442083604,65.17273522316735,57.089105399389474,52.97676784601685
68.96441455466729,70.12807452846789,180.0511193389755,60.2590768571459,65.24748875058367,56.949071935068545,52.92413513940822
69.21520707133459,70.25459928458599,180.95849246945272,60.356028583108476,65.30933095223662,56.80557989635864,52.873197449902705
69.46726758061128,70.3778973487294,181.8929199809806,60.44363303995846,65.35849640899977,56.65875247619543,52.8239257729661
69.71910135443544,70.49801140671822,182.84987421274633,60.521528872045025,65.39532126699582,56.50867870035571,52.77628892496427
69.96923361073345,70.61504470795235,183.8246186618446,60.589366371382425,65.4201835141905,56.35541908163335,52.73027188663971
70.21624396647309,70.72913249764599,184.81219473930526,60.64679747052694,65.43346074264201,56.199032476336434,52.68587828426981
70.45878845756485,70.84040054532153,185.80741427382094,60.69346090727969,65.43551836571402,56.03959269058103,52.64310984543104
70.69558757949386,70.94893176694502,186.8048666614962,60.72899217847899,65.42671614030208,55.87718517182666,52.60195247570087
70.92541049022729,71.0547386146213,187.79897472981168,60.753059389646275,65.4074033885435,55.71191036700981,52.562389524876714
71.14708871769803,71.15773913027978,188.78412347453428,60.76538844734046,65.37789521162183,55.54390448521857,52.52442130264027
71.35954447995789,71.25774560294616,189.7548100925055,60.765755237915144,65.33845747655974,55.3733515768912,52.4880613059009
71.56179382985935,71.35447886794672,190.705723138027,60.75397235602983,65.28932229251237,55.20047227963039,52.45331633680391
71.75291574901341,71.44759838155711,191.6317486442602,60.72990448939056,65.23071310005852,55.025509107136145,52.420182802819525
71.93201470237626,71.53671480256561,192.52800750672907,60.693499828351065,65.16284562602678,54.848728908685196,52.38866739568784
72.09820386379965,71.62137853932322,193.3899643649095,60.644798444461586,65.08590466930032,54.67043600916688,52.35880223865907
72.25061137267195,71.70108958392895,194.21351257865277,60.58391161523029,65.00002219100925,54.49097320132472,52.33063126032652
72.38839231216842,71.77536901006461,194.99496589429603,60.51100480793362,64.90527249091059,54.31070706620001,52.30418509395045
72.51073609192194,71.84385635198664,195.73100971111845,60.426303657888596,64.80167688155505,54.13002008168117,52.279475364985004
72.61687943100128,71.90635598791687,196.41867348861328,60.33010215878361,64.6892033733705,53.94931636298566,52.25650992910245
72.70612786533121,71.96281870520838,197.0553035028894,60.22274766396835,64.56776980717495,53.769018351153804,52.235300707341565
72.77786348948291,72.0133115568126,197.63849924112122,60.104613667913,64.43727362945073,53.589540843167114,52.215848415660595
72.83153505692326,72.05800429379056,198.1660406333226,59.97609460536902,64.29763911429882,53.41125714329994,52.19812550967589
72.86667172235097,72.09714820398281,198.63586266102888,59.83762936992379,64.14884100159708,53.23447986318291,52.1820825085949
72.88294107974954,72.13103049906734,199.04608109643004,59.68971868374365,63.99089041621303,53.05946287267498,52.1676680290115
72.88020211013527,72.1599325338128,199.39501179189526,59.53291039143406,63.82381675596621,52.88640861838189,52.15483325605731
72.8585004501137,72.18413413121795,199.68114487879944,59.36777082204883,63.647680437257634,52.71546349710581,52.14351605410703
72.81802040981746,72.20396018069177,199.90310083623285,59.19487327688774,63.462606363935855,52.546706327815,52.13363245112573
72.75906020693567,72.21981115779467,200.05959851626218,59.01480554566254,63.26879979617575,52.38014662903533,52.12509435014001
72.6820949452526,72.23214373835572,200.14941970470454,58.82817058284875,63.06653651669354,52.215736011613835,52.11783195281805
72.58791390449213,72.24144208756601,200.17136125391417,58.635565989575504,62.856158778189304,52.05337984738248,52.11179118348821
72.47773589417945,72.2482242337692,200.1242304114802,58.43756225638206,62.638090168263325,51.892942916222765,52.106915616241885
72.35325144924063,72.25306079170014,200.00695461598994,58.23470367618435,62.41283968915391,51.73427823630242,52.103145996663336
72.21663482594411,72.25656179375747,199.8187660338948,58.02752260627374,62.18097844541529,51.57731842494767,52.10044117108072
72.07055621915016,72.25933915507392,199.5593249422002,57.81653959255326,61.94312381529613,51.42219915209665,52.09878888352103
71.91816322517019,72.26198455261328,199.2287349485864,57.60224491188473,61.69996431521839,51.26932429596325,52.098189265266704
71.76300195715812,72.2650692112072,198.8275160597544,57.38508546623133,61.45229775984366,51.11933939631558,52.09863500212562
71.60889366758948,72.26913463557511,198.35657034293632,57.165475529961455,61.201031652919184,50.97306740298496,52.100117306814674
71.45980172109898,72.27465921476734,197.81714080873647,56.943817584208084,60.947143930142076,50.831457211516216,52.10264891603031
71.31970697315084,72.28202636332762,197.21078326261463,56.72050623625196,60.691650645644145,50.69554161763863,52.10627008727959
71.19252643586198,72.29152246052492,196.53934672028515,56.495917852548104,60.43561176130497,50.566385845227835,52.11102934894131
71.08215645591378,72.30335246995536,195.80493415029264,56.27041633485425,60.180150368423625,50.445030307988915,52.116969157422595
70.99264888900939,72.31763771027116,195.00983794265733,56.04438157135971,59.926441530062775,50.33244903052555,52.12413815182775
70.92836285407571,72.33439174577954,194.15647095456177,55.81822687930733,59.6756701992185,50.22954151825725,52.1326097222242
70.89394465537491,72.35351240591791,193.24732992054066,55.592384492632725,59.428998703262955,50.13714885596335,52.14247667066703
70.89418354049819,72.37481160286653,192.28500391279985,55.367285361573394,59.18756573547343,50.0560615611923,52.1538273812568
70.9338896092737,72.39804916517782,191.2721872981245,55.14336537884643,58.952491016525066,49.98700812917387,52.16673412909551
71.01784614110444,72.4229328637054,190.21166859871934,54.92108707597396,58.72485550345543,49.93064659749478,52.181262210908585
71.15077078067637,72.44909877025555,189.10631743381762,54.700941153613506,58.50567106105144,49.88756932269857,52.1974749274677
71.33723968247918,72.47610890550551,187.95908077935562,54.48342105324911,58.29587878481742,49.85830157077578,52.21541681917609
71.58160829236785,72.50347125934066,186.772973996841,54.26900086564743,58.09638186043401,49.84327929204088,52.235093417293754
71.88794611800418,72.53065410338806,185.55106541490574,54.058138690064354,57.908070681087246,49.842818637833034,52.256473732762004
72.25996523740575,72.55707840364528,184.29646171993943,53.85128810864474,57.731810301914074,49.85710078182135,52.27950953509671
72.7009749473585,72.58211085021871,183.01229723229252,53.648889531302785,57.568414015081956,49.886175725836964,52.30414134219511
73.2139144314615,72.60508710965672,181.70172680948085,53.451347699603886,57.41863220838621,49.92996352618279,52.33028251014441
73.80141773182129,72.62536046581603,180.36792129200873,53.259031478498194,57.283145261307695,49.9882409444115,52.35780905154759
74.46582300120039,72.6423433760706,179.01406050260587,53.07230863879519,57.162538247601226,50.06063243934571,52.38657763605444
75.20912924701307,72.65552432133994,177.6433019131423,52.89157782086375,57.05726551465803,50.14662439318143,52.41645248408127
76.03295440895043,72.66448064164383,176.25871233205086,52.717261157223014,56.96763874913817,50.24558927311486,52.44730803555883
76.93849746656757,72.66890646111176,174.86319039235116,52.549774484966456,56.89385499157025,50.35679351838312,52.47901152579524
77.92649377247996,72.66863674220252,173.45941670640914,52.38951389781482,56.83603329990477,50.47938849219152,52.51141859116695
78.99719504612773,72.66366543265683,172.0498468511881,52.23686250417991,56.79421917008276,50.612408777394144,52.54439056715217
80.15039494465172,72.65420010553179,170.63675365430072,52.09219067043112,56.76836412252104,50.75479168256799,52.57780562498156
81.38547692736918,72.64075068868259,169.2223018784926,51.95584105559182,56.75832081000952,50.905402347344925,52.611545312602885
82.70144981865694,72.6241766472086,167.80859726748236,51.828116943850844,56.76386424600174,51.06304265121716,52.645476698893866
84.09694858914605,72.60566108670685,166.3976885837308,51.709281216701854,56.78470589689579,51.22644726921647,52.67945901869984
85.5702205518002,72.58668590685086,164.99157466418546,51.599551330408374,56.82047808423532,51.39429000837203,52.713368851293126
87.1191437948843,72.56906266851095,163.59223529999647,51.499082362020815,56.87071199328939,51.56520896227429,52.74710963723485
88.74126187969918,72.55495161099007,162.201639377713,51.407953944647524,56.93484211139643,51.73783028785904,52.78059373696028
90.43378559057207,72.54679085881527,160.821715966547,51.32617909143582,57.012232679918036,51.9107748015465,52.81372500345658
92.1935974371093,72.54716443338867,159.454334484468,51.25372361419001,57.102192493744475,52.08266552541834,52.846405651983495
94.01731736824611,72.55869483773358,158.10132562603778,51.19050830412302,57.20396349623862,52.252158125570716,52.87855174057512
95.90138988977556,72.58402229272538,156.7645085967163,51.13639082835013,57.31670805547982,52.417978135387095,52.91008994256137
97.8421241706577,72.62585274068748,155.44568570165453,51.091154478755705,57.43952542044725,52.57893460192552,52.940941404717385
99.83568260757049,72.68698063174608,154.14664455661844,51.05452310150107,57.57149084411906,52.73391596885852,52.97102121863794
101.87804785774915,72.77023797134994,152.8692125460818,51.026184740110395,57.711678991207215,52.88189383389878,53.00025647223394
103.96498541733797,72.87841790249999,151.61530352152016,51.00579345229554,57.8591555923883,53.02193112672044,53.02859381861438
106.09200431310045,73.0142111358145,150.38687808514098,50.992953330812355,58.0129674735671,53.15317339143698,53.05598196025956
108.25435220012038,73.18013774739129,149.18584474526253,50.987225305406696,58.1721557220774,53.274821656481976,53.082351981863525
110.4471010788389,73.37847026196035,148.01399589938217,50.9881742605342,58.335770485997685,53.38610401548733,53.1076213441983
112.66528400361298,73.61117742327995,146.87302241155777,50.995416131477114,58.502859258279315,53.486266307114064,53.1317123958879
114.90396113935107,73.8798970510581,145.76455377056132,51.00862605520558,58.67244027538827,53.57459088639301,53.154555058128395
117.15817842172129,74.18590916878092,144.690155568468,51.02752671713197,58.84349558753588,53.65042390454356,53.17606679807964
119.42290600268852,74.53009662088165,143.65129704397216,51.051906038733236,59.01499595375366,53.713181668300834,53.19613624041759
121.69303902511125,74.91292607302874,142.64934893200942,51.08168548316925,59.18593020051038,53.762339906893224,53.21463254823559
123.96345536763292,75.33447319960557,141.6856194972088,51.117003373231725,59.355307536562904,53.79743916283082,53.23142716447228
126.22908930295378,75.79445802632065,140.76137219581315,51.1582587561287,59.522141570282585,53.81811497504786,53.24639845437738
128.48501209932255,76.29224769956723,139.87779374776323,51.20611384324475,59.68545152998425,53.82411870588531,53.25941946873325
130.72652461301988,76.82683735034402,139.0359454628592,51.261504765296934,59.84428877207355,53.81530372457852,53.270360182602836
132.94923873195492,77.39685730398699,138.23673621637565,51.32567682987974,59.99775598063037,53.791591732399525,53.27911532003715
135.14909654480377,78.00063457763152,137.4809249064488,51.400198122025955,60.144997983044775,53.752942379859014,53.285626682566836
137.32229892927822,78.63627385875806,136.76913294631254,51.486931737216686,60.285189054878586,53.69933380671309,53.28987374416641
139.4651967434341,79.30170463555086,136.10183828229248,51.587995988934594,60.41754520712418,53.63075406465157,53.29184903899489
141.57425093090825,79.99472325872782,135.47934602126838,51.70572338513552,60.541346751226854,53.54720293133046,53.29155080545399
143.646092272842,80.71310719693831,134.90174781882595,51.8426287273341,60.65593876498345,53.44870054668534,53.2889966064869
145.6775823235147,81.45477648355583,134.36888859263954,52.00141764737148,60.76071063968182,53.335295765027574,53.2842302510013
147.6657885925833,82.217881578781,133.8803793081697,52.18504008135319,60.855086251171016,53.207069501234294,53.2773048244394
149.60790462024082,83.00076592867123,133.43566360855078,52.39675032350904,60.93853826608467,53.06413052165892,53.26826018996873
151.50118339630743,83.80186238810232,133.03407375652765,52.64010453591518,61.01060183148972,52.90660160453096,53.25711981281701
153.34290259489015,84.61959015109653,132.67483473551695,52.918853692499006,61.07086311388996,52.73460809901229,53.24390207541792
