HandOpen,HandClose,Wrist Flexion,Wrist Extension,Supination,Pronation,Rest
91.13027482237243,538.6336047847045,108.18401802858737,305.47921734408834,93.42947444487686,369.2736698357033,84.66320817573705
91.50664786852313,541.5066754737845,107.12275363432946,305.56407401534887,93.68024572847412,365.59534367779696,85.04075536665327
91.89453809241076,544.3543567256365,106.03340015312466,305.60768106984557,93.91955218417111,362.0477834923016,85.40648471369929
92.2919331263485,547.1641118742473,104.91842967629373,305.61120468405153,94.14658220950727,358.63279302726625,85.7600916225771
92.69669877637914,549.9244482924427,103.78032738559676,305.57568249372963,94.36059201947117,355.3519253164658,86.1012690872014
93.10658504739622,552.6249720380298,102.6215443948968,305.50200623704245,94.56094005015395,352.2064261900568,86.42974460246265
93.51928734735289,555.2563449586622,101.4444594671277,305.3908462950075,94.74711094809591,349.1971838534678,86.74531673426715
93.93256557229319,557.8100853967622,100.25136787659008,305.24256887645754,94.91870358906003,346.32470135643587,87.04784372749094
94.34433602205785,560.278294977684,99.04448843459802,305.05722904259176,95.07542491512051,343.58906322348633,87.33720883322773
94.75268323551104,562.6534880027762,97.82596923995897,304.8346178679642,95.21711343600872,340.98985510217045,87.61331746417255
95.15584216335871,564.9286677013903,96.59790730153809,304.5742914152166,95.34375051909323,338.5260870498775,87.87612753600773
95.5521971076419,567.0976299860242,95.36241874981786,304.2755571915994,95.45542631265555,336.1961944264838,88.12566095646508
95.94027464754599,569.1552300138377,94.12173676711659,303.93744707282326,95.55228904850098,333.9980721104737,88.36197293678319
96.31870368472937,571.0973838541775,92.87825881511642,303.55872161093635,95.63451994075074,331.9290541333744,88.58512354832038
96.68616449368827,572.9208379061992,91.63451818903319,303.13792652436393,95.7023315583357,329.98584179856,88.79519534197392
97.04137574636869,574.6228757173176,90.39313832734692,302.6734674052194,95.75595571143553,328.1644376935983,88.99232927071047
97.38313078124123,576.2010889505416,89.15681885881598,302.1636442083158,95.79561296711935,326.4601381268283,89.17672165026286
97.7103304786089,577.6532320511004,87.9283317553644,301.60667188518363,95.82150265792147,324.8676009364181,89.34858431576042
98.02197738968265,578.9771815678962,86.71048458412241,301.000828269937,95.83383769875721,323.38093193780327,89.50812390174218
98.31718025171932,580.1710210589641,85.50605713437827,300.3447647440786,95.83288176066642,321.99373694953124,89.65556160440111
98.59521054211832,581.2331442111448,84.31777447344992,299.6377706897514,95.81893959434737,320.69915840549464,89.79114852208171
98.85555689272499,582.1622687515421,83.14837699625238,298.8798176511347,95.79232359703632,319.4899059676066,89.91513985934796
99.09791945545433,582.9573714397583,82.00075236100068,298.07143805213326,95.75335775143117,318.35827606388455,90.0277574087369
99.322166123766,583.6175718930773,80.87801493806512,297.21354141444317,95.70242739919175,317.29621907279807,90.12918703244571
99.52829222316353,584.1420016636804,79.78349713381829,296.307229174339,95.64001874751695,316.295494791375,90.21960370840326
99.71639324356082,584.5297094060292,78.72072024126825,295.35367671845387,95.56671058765208,315.34783905127927,90.29917572878541
99.88663805037969,584.7795743267033,77.69337091003841,294.3541022206336,95.48314680726304,314.4450447332693,90.36803395735357
100.03922977005256,584.8902054530975,76.70524895508801,293.30976593966676,95.39002110835294,313.5789610328838,90.42625120664995
100.17436649733818,584.859956285911,75.76018224352156,292.22196346594814,95.28805631994683,312.74149707728964,90.4738696995405
100.29223303107614,584.6871438470905,74.86193429046298,291.0920365591418,95.1779593183626,311.92468721397324,90.51094741728032
100.39302770880897,584.3703311789702,74.01411772976086,289.92140091100123,95.06037458297124,311.120791287134,90.53756785256986
100.47698341798927,583.9085086310665,73.22013887767241,288.7115285071987,94.935867166187,310.3224287600387,90.5538137473958
100.54435718605728,583.3011307731731,72.48324963462578,287.4638597418439,94.8049290968871,309.5227752916416,90.5597580734053
100.59541743787256,582.5480509731032,71.80673256555396,286.1797096115167,94.6679777891374,308.7157280308715,90.5554936217287
100.63044824602223,581.6495090786761,71.19407440833245,284.8602266502015,94.52533706559097,307.89593940636615,90.54115673356218
100.64974448291638,580.606281562981,70.64896848758896,283.5064009547371,94.37722419347062,307.0588076237295,90.51691004606008
100.65359624220632,579.4198674891275,70.17517106418157,282.11909171681003,94.22375801091012,306.20051786251935,90.482920499697
100.64230904596646,578.0925283836707,69.77633648091556,280.699032284439,94.06497109885281,305.3180482865474,90.43938042783911
100.61626680760743,576.6271506401124,69.45590419271652,279.2467835082838,93.90080469921087,304.40906109937924,90.38654931508397
100.57597431669676,575.0270251152241,69.2170323665944,277.76266501516216,93.73109544091045,303.4717457870241,90.32475785865341
100.5220501599122,573.2956874422918,69.06253100297211,276.2467227816798,93.5555795704626,302.5046924147686,90.25437150071168
100.45522749659071,571.4368785361407,68.99476887089169,274.69875201633715,93.37391300802494,301.5068105966581,90.17577062802546
100.37639883625772,569.4545192916828,69.01559680635867,273.1183519510614,93.18567848715308,300.47731438789884,90.08938002550191
100.28664752264217,567.3525771517818,69.1263717062626,271.50499687794553,92.99037144160013,299.41577002866103,89.99570639185767
100.18720854181723,565.1348553996647,69.32808527122243,269.858122596059,92.7873950520458,298.32212568631616,89.89533076104146
100.07938230304585,562.8048533870688,69.62146953551313,268.17720664188965,92.5760916844747,297.1966811806168,89.78887173989398
99.96445966251413,560.365773129329,70.00700052467649,266.4618217000875,92.35579124370817,296.0400481485724,89.67697520068917
99.84368382903146,557.8205708009996,70.48488251344526,264.7116785545742,92.12583474751833,294.8531039964383,89.56033516559489
99.71822898436335,555.1719530992303,71.05507731294429,262.9266720646002,91.88557173076559,293.6368951564479,89.43969515976652
99.58916927691992,552.4223780651259,71.71731474880869,261.1069161531485,91.63437426347139,292.39250782692193,89.31580888723985
99.45745696583832,549.5741105384219,72.47103731569199,259.252768432623,91.37168566579733,291.12095194040586,89.18940478976313
99.32395602664208,546.629256568679,73.31534232945953,257.36486326095223,91.09706236778005,289.8230773105888,89.06119609666064
99.18952209033193,543.5897396043393,74.24898338703655,255.44417187854802,90.81016939664983,288.4995432999072,88.93190993571945
99.05505537842855,540.4572705449186,75.27039876951504,253.49211414917397,90.51074653598987,287.1508436082323,88.80228013254633
98.92150443505697,537.233318988248,76.3777096961683,251.51071308968758,90.1985906218243,285.77733193024307,88.6730018100963
98.78988516655166,533.9190636621454,77.56868016467185,249.50272717837223,89.8735780782225,284.37923083415257,88.54470315448825
98.66133599274703,530.5153797693878,78.84065783518463,247.47170368856197,89.53570640825279,282.95668838887906,88.41796625604084
98.537137262124,527.0229245958909,80.19052011553815,245.42196626321822,89.18511278828338,281.5098856824331,88.29335624502409
98.41865370389196,523.4422740303403,81.61464677350972,243.35858738617256,88.82206455778596,280.0390910572282,88.17141051214678
98.30725244863399,519.7740516080182,83.10891602420713,241.2873403911876,88.44695386719866,278.5446279784253,88.05261017536431
98.20425855643386,516.0190534429843,84.66870402010544,239.21457451656647,88.06030947173404,277.02686538650056,87.93738335846383
98.11094667404741,512.1783594035928,86.28888256279906,237.1470289063207,87.66280386497647,275.4863042041309,87.82613278167479
98.02852767089706,508.253423042058,87.96383238825761,235.09171661654605,87.25524533624956,273.9236944362974,87.71923857982173
97.95811234716255,504.2461547321801,89.68749511626996,233.05598590062385,86.83857893671998,272.34012515033805,87.61702489142823
97.9006833982719,500.15899046435237,91.45348034709197,231.04768344789434,86.41390492951967,270.7371218156338,87.519735969921
97.85710191563969,495.99496884807894,93.25522794004085,229.0752408845697,85.98247820503438,269.1167300190756,87.42755954789402
97.82811510648573,491.7578502910979,95.08617683131955,227.14764784719623,85.54566935026516,267.4814858742145,87.3406688987478
97.81432502850168,487.4522294889085,96.93986493969328,225.27439999309803,85.10492309644735,265.8342866854612,87.25922810632656
97.81614054899919,483.0835994095109,98.80996536615632,223.46540047815594,84.66174297891875,264.1782951772576,87.18336099071344
97.83376227897408,478.6584014865946,100.6903351621919,221.73072387882,84.21767872167153,262.51692343452567,87.11313928958418
97.86720369581221,474.18404380267594,102.57508313368847,220.0803024347021,83.77428821089981,260.85382098501486,87.0486175365882
97.91630290446321,469.6688026696608,104.45858966928904,218.5237215072377,83.33310221492445,259.19284060673954,86.9898713199772
97.98070467916841,465.12161505625954,106.33546048083248,217.07020085432222,82.89565284419534,257.53804436937577,86.93699007276533
98.0598516862171,460.5518584871205,108.20046676273259,215.7286429265938,82.46356114718866,255.89374468096153,86.89004328800965
98.15301269334176,455.96916008314383,110.0485120837022,214.50763564403755,82.03859202693195,254.26449742722434,86.84907263582808
98.25931481638946,451.38321319734405,111.87461393339404,213.4154116221961,81.6226273881165,252.65508393793374,86.81411323195778
98.37774658959589,446.8036252641229,113.67388210985833,212.45975696068678,81.21762046185401,251.0705817940721,86.78519689714877
98.50715130265479,442.2398832653004,115.44150858998748,211.64783590785237,80.82558860775123,249.51644387480408,86.76231914177407
98.64623816425843,437.70142848806483,117.17278063460634,210.9859619557004,80.44861040352626,247.9984415296736,86.74541372453491
98.79359867155655,433.1977047703375,118.86309096004057,210.47939135976856,80.08877969282311,246.52248684201106,86.73437262450798
98.94770248869608,428.738182839029,120.50791649208556,210.1321779565802,79.7481350985693,245.09443112753564,86.7290815073467
99.10687701469487,424.33249412835664,122.10277566836704,209.94708302013606,79.42861405502092,243.71990849399958,86.72941807365784
99.26930212090276,419.99062716778155,123.64319573111617,209.9255412471309,79.13204108698316,242.4042388463827,86.73521718217341
99.43304183048149,415.72300897919536,125.12471227786581,210.06769028209882,78.86011301126743,241.15234441299512,86.74625663995167
99.59609238535424,411.5404012340124,126.54289700645256,210.37243933565213,78.61435460534217,239.96864529420972,86.7622892796794
99.75640441056706,407.45369547079474,127.89338503303786,210.8375600065142,78.39606745986934,238.85694889438633,86.78307937423354
99.9118752953241,403.4737507431294,129.1718865266394,211.45984055918973,78.20630765780706,237.8203587494681,86.80839550528704
100.06035667778058,399.6113451606011,130.37419957889588,212.23531019188533,78.04589178032725,236.8612420234749,86.83797885650158
100.19970363836862,395.87721466200145,131.49623469398222,213.15941859240436,77.91540542067682,235.98127495027572,86.87154132739269
100.32782952660625,392.28205197050755,132.53403409671787,214.22708201994698,77.81520865609515,235.181506218417,86.90879793582104
100.4427235578087,388.8363431529176,133.48377600788643,215.43266148131565,77.74545471345431,234.46239059269212,86.94948209400216
100.54244083974292,385.55015762964115,134.34178669832255,216.76995837339695,77.70611899169145,233.823823661902,86.99331833672257
100.62509528018751,382.4331048564827,135.1045932580051,218.23221807413373,77.69701128337456,233.26520586035707,87.03999386590964
100.68885838926464,379.4943987749741,135.76900959008694,219.81212913230024,77.71776043065688,232.78553730958924,87.08917435772108
100.73194995435011,376.7428117349529,136.3322004959189,221.50188062822392,77.76779604243448,232.38352041224607,87.14054386350081
100.75262730204001,374.18651559627375,136.79169013643846,223.29330872670118,77.84635340541035,232.05762176634497,87.19381207795384
100.74920410586668,371.8329741321835,137.14535330306418,225.17803972655452,77.95249312938002,231.8060935349514,87.248681567805
100.72010436204607,369.68890714052503,137.3914605476623,227.147529122454,78.08511007354275,231.6269883944892,87.30482800798674
100.66390602339041,367.76019552446564,137.52878619629865,229.19299922860432,78.2429338480228,231.518161776724,87.36192499548193
100.57934189019583,366.0516654487273,137.55669546826027,231.30537315571922,78.42455066598568,231.47725759703238,87.41967503101105
100.46529095622847,364.566828725827,137.47514692421723,233.4753557415199,78.6284505447583,231.50169607131917,87.4777994808853
100.32080019706407,363.3077021284096,137.2846459147592,235.6936815751064,78.85306120023567,231.5886467153495,87.53600471338956
100.1451168795291,362.27475721736306,136.98619881033065,237.95131521551826,79.09674609590641,231.73496681879004,87.59397720945911
99.93768824141938,361.4669505463329,136.581264123296,240.23944661760467,79.35779221740367,231.9371601260913,87.65141353799622
99.69812747676193,360.8817971854357,136.0716899955936,242.54939651125986,79.63441906322016,232.1914477201316,87.7080352040335
99.42618694040186,360.5155141753876,135.4596577748563,244.8725714931382,79.92480627900515,232.49395790096048,87.76356204383303
99.12177536872137,360.36321000458304,134.74764933310325,247.20044574649063,80.22711987758547,232.84093592864878,87.81768368938569
98.78500460604505,360.4190377603854,133.93842289304172,249.524542787657,80.53954557709918,233.22887874516786,87.87007197636495
98.41620995877902,360.67628575665395,133.03497545123437,251.83645402147434,80.86034904533645,233.6545567491143,87.92041425720643
98.01592433375126,361.12744461034634,132.04049841580326,254.12788405425502,81.18793330343262,234.11493225850532,87.9684166129231
97.58485213125,361.7642990654662,130.9583455532614,256.3907096983743,81.52084396190534,234.60702684069082,88.01377404820644
97.12388489525276,362.57804732763805,129.7920140124722,258.61707308855074,81.85772830956708,235.12778765858104,88.05616005595917
96.63413496549613,363.55935726883746,128.5451244823522,260.7994579905473,82.19729857091984,235.6739849967305,88.0952644260887
96.11693340452653,364.69828841326307,127.22139427784822,262.9306721005339,82.53832763152143,236.2421803065426,88.13083630687792
95.57379162794055,365.9841626969017,125.82461806463213,265.00374835246686,82.87965602604879,236.8287691162199,88.1626813234391
95.00638799723335,367.4055198259589,124.35867351570168,267.01182993903535,83.22017629705704,237.43003369740305,88.19063081664346
94.41660861580431,368.9502296812511,122.82753902058259,268.94808699268214,83.55880051650107,238.04215145720894,88.21453867407135
93.80658381468757,370.6057343168944,121.23529212122726,270.80569166609627,83.89445677271314,238.66117193056164,88.23431127322878
93.17866313342655,372.35927086929394,119.58608673332681,272.57785129517276,84.22613144713202,239.28298769230472,88.24991864899745
92.53535958426485,374.1979827230743,117.88414721805478,274.2578696101344,84.55290422367605,239.9033098530109,88.26136165174569
91.87931721634335,376.10899789907114,116.13379936776421,275.83922633953085,84.87392788963503,240.51767966738842,88.26863989215519
91.21329369546854,378.0795270297769,114.33949820843067,277.31567894785576,85.18837897683719,241.12154132612145,88.27176787378757
90.54012367814043,380.0969465959235,112.50580990256684,278.6813370692861,85.49543505015775,241.71032456305025,88.27081565919528
89.86266791894428,382.1488722063709,110.63736042949228,279.93067876516415,85.79429489862224,242.2794778443384,88.2659139466641
89.18377343011409,384.22323417664745,108.73878951241193,281.0585557578731,86.08420483209851,242.82450224139072,88.25721681697904
88.50624882060258,386.3083476829196,106.81473450351746,282.06020735208574,86.3644518491265,243.34105253327758,88.24487740959047
87.83284210075912,388.39297675034214,104.86984802851693,282.93126104832635,86.63433719821778,243.8250609294446,88.22907044983533
87.16621110033888,390.4663525253096,102.90882722575641,283.6677389385359,86.89316854719186,244.27280558434126,88.21002333678992
86.50890109445992,392.51812328778016,100.93641743368049,284.26609142432955,87.14026886464626,244.68091016327506,88.1880047318988
85.86336147275128,394.5383063809554,98.95737968564859,284.7232174993156,87.37496875682554,245.04631658737222,88.1632847100197
85.23198894694528,396.51728769493957,96.97644879699594,285.036438270154,87.5965789794609,245.36626678573452,88.1361195121447
84.6171362207314,398.4458087182442,94.99830194967161,285.20349008628983,87.80438604014311,245.63828044830726,88.1067689703624
84.02106572652863,400.3149019153753,93.02752977150935,285.2226322113548,87.99770130233573,245.8601288097798,88.07550101725565
83.44589955487065,402.1158492433514,91.06860011920473,285.0928320912083,88.17592580477202,246.02983489576306,88.04255997791883
82.89361053627879,403.8402551970742,89.12581974220579,284.81387557597924,88.3385714532609,246.14568532726986,88.008136215458
82.3660326447572,405.480220991114,87.2033054448934,284.38633571689036,88.48524194431454,246.20621990698157,87.97237835472309
81.86485130513252,407.02853504487183,85.30496718991145,283.8114940172881,88.61561723793139,246.21020904690707,87.93542924266022
81.3915933815284,408.4788224651339,83.43449235859194,283.09130844032285,88.72944927008275,246.15663736169103,87.89743271967849
80.94765425450043,409.82560730837537,81.59532643227068,282.2283973676228,88.82654344630694,246.04468012912164,87.8585025051327
80.53433375546237,411.0642524680996,79.79066662384446,281.2259769890953,88.906722606182,245.8736661099975,87.81870325634927
80.15283282335848,412.1908607781802,78.0234840284557,280.0878017332618,88.9698073840291,245.6430773211028,87.77807836155164
79.80422672836872,413.2022802163673,76.29655628393543,278.8182054482711,89.01563996748796,245.35262894022569,87.73668913157435
79.4894620838346,414.0962376099426,74.61247931417441,277.4222070771436,89.04412524213603,245.00237059282676,87.69461370579833
79.20937732098879,414.8714952226901,72.97367145268994,275.9055426025629,89.05524188468111,244.59273038588782,87.65191687305845
78.96470288147785,415.5278963076053,71.38241842246151,274.27458549155523,89.04902528358058,244.12450873236298,87.60864286731895
78.7560236678929,416.0662530297243,69.84095652881727,272.53622920749837,89.02556318741713,243.5988490480605,87.56483991898098
78.58373855092314,416.4881805269687,68.35152426887201,270.6977612129274,88.98501300239377,243.0171787589138,87.52057020902396
78.44805558477579,416.79607008975887,66.91634445746054,268.76672012985324,88.92760673357064,242.3811181555768,87.47588064753661
78.34901283105113,416.9932526012819,65.53758003003459,266.7507972367251,88.85362158562441,241.69237714343058,87.43077416901522
78.28648156040786,417.0841035259313,64.21730806461493,264.6578261038485,88.76333588309373,240.95267890687322,87.38522667860137
78.26014272822037,417.0738642511591,62.957503004071675,262.49576932875635,88.65700656134645,240.16373339695548,87.33923001153582
78.26947366253964,416.96832246800284,61.760026987937906,260.2726200211425,88.5348779560538,239.32723569725107,87.29280281470643
78.31376087020949,416.77365495423254,60.6266607945156,257.99627712878697,88.39719230674193,238.4448706288299,87.24595905641098
78.39211153865907,416.49650049724363,59.559168127576115,255.67446454535002,88.24417711451399,237.51834751192104,87.19868760258706
78.50345842834349,416.1440396338512,58.559326148435595,253.31467607241242,88.07602766631028,236.54945735194548,87.15097911500258
78.64659048932002,415.7239106459137,57.62888485802666,250.92412958051136,87.8929138511695,235.54009721590108,87.10286292559343
78.82020707855096,415.2440219027616,56.76949340948813,248.50975131451875,87.69500535579986,234.49226641517174,87.05440126585555
79.02295052625944,414.7123441339337,55.9826528524111,246.07818539494158,87.48248772359278,233.40808058752094,87.00565471846814
79.25339780865018,414.1367286873162,55.26970690058792,243.63579532650306,87.25555955710051,232.28977774205669,86.95667407285393
79.51004036253748,413.52483658650584,54.63183011335276,241.1886343720312,87.01442357643701,231.13968860400797,86.90752700943972
79.79129627664905,412.88421684208066,54.06998448037018,238.7423857313524,86.75928311039107,229.96021445523513,86.8583097979537
80.09556437480558,412.22246610921576,53.584866704286426,236.3022938116856,86.49033983886011,228.7538340681988,86.80911674624168
80.42127165155048,411.54735293649134,53.176878009972604,233.87311003190422,86.20778745982392,227.5231080968408,86.76000617557057
80.76686707700225,410.86683009285036,52.84611015240335,231.4590749465316,85.91181988644571,226.27067206128723,86.71100765739608
81.13077786864282,410.18895059476716,52.592321760639436,229.06394072006444,85.6026732138858,224.99928750057964,86.66215388661689
81.51138147857273,409.5217262333677,52.414908626399,226.69100469948157,85.28067359356585,223.71199530606793,86.61348606244455
81.90702566983407,408.8729546910948,52.312909340212165,224.34313879057785,84.94624781488065,222.41224609505204,86.56502522788989
82.31607402879722,408.25005259585475,52.28506806103595,222.02282387038488,84.5999063916772,221.10386773256917,86.5167568372204
82.73692381431498,407.65990694465063,52.32990736318742,219.73217676032903,84.24224095246844,219.79091445073945,86.4686575635723
83.16798875359717,407.1087865607078,52.4457505864931,217.47296849562355,83.87394230882342,218.47751693024387,86.42072794974686
83.60769229442553,406.6023678619376,52.63070403164289,215.2466782104527,83.49580732853046,217.16778338635342,86.37298400758931
84.0544878326399,406.1457788427015,52.88265745905695,213.05459063586684,83.10871705046047,215.86573267353663,86.32542249145098
84.50687300515872,405.74353120472057,53.19932090429684,210.89787693657172,82.71361339200546,214.57521025623154,86.27801284247397
84.96338414215639,405.3993691235509,53.578254438243356,208.77763657935924,82.31150885950876,213.29977522640124,86.23072609542628
85.42260103710021,405.11615812792115,54.016857073350174,206.6949372303779,81.90351287953801,212.04261989276424,86.18355309306517
85.88317630060627,404.8959477083222,54.51233739508278,204.65086865145443,81.4908282972629,210.806593717569,86.13648263278348
86.34384997970055,404.7402294577667,55.06170014552663,202.64662642290335,81.07471383218753,209.594338190709,86.08947614313104
86.8034265391437,404.65023677835615,55.66174692321719,200.68362991766085,80.6564566717053,208.4084644078508,86.04248386746269
87.2607725491053,404.62715389071906,56.30907098667335,198.76358859511515,80.23737864711815,207.251689092877,85.99548502951043
87.71488325974298,404.67223210682374,57.000047008545195,196.88844463701818,79.8188428077704,206.1268840445458,85.94849660023866
88.16495495640625,404.78682217880845,57.730848796167415,195.06025633745415,79.40222585476518,205.03703016505668,85.90154040809674
88.61038068741038,404.9722922826722,58.49752817069253,193.28115151852415,78.98887545342492,203.98511109281813,85.85462069517347
89.05069025363053,405.22988799382364,59.29613096330621,191.55341490455714,78.58009370822397,202.974010737969,85.80774865129759
89.48550955153186,405.5606885008984,60.122778826944945,189.879624162525,78.17714850010046,202.00643651353715,85.76097762657373
89.9145596346698,405.96565913284627,60.97369141894861,188.26268628136557,77.78127403930391,201.08484683126449,85.71439697333393
90.33765184281607,406.4456223945401,61.84518906320119,186.70574648995188,77.39363876721316,200.21136998965645,85.66809842267006
90.75465008478288,407.0010847339213,62.73369746578347,185.2120488967819,77.01530264027743,199.38771774407877,85.62217072454523
91.16542982584912,407.63201909761403,63.63573482798675,183.78480731537945,76.6471973115363,198.6151015968264,85.57673233296262
91.56986679479182,408.3376721857857,64.54788405524741,182.42709239390487,76.29013587024063,197.8941582969535,85.53195079161593
91.96784271367719,409.11638355539577,65.46679208222635,181.14172201352972,75.9448259062128,197.22489804273764,85.48801796728998
92.35923991729777,409.96541843225526,66.38921305940127,179.9311874274802,75.61186266287484,196.60672003959522,85.4451197115785
92.74392173675815,410.88086919614983,67.3120497565877,178.79768384971644,75.29171535927794,196.0385390291459,85.40344401754355
93.12172642142805,411.8576433273532,68.23234617634304,177.74323184131055,74.98472859591513,195.5189741015866,85.36320662396282
93.49249634852526,412.88947843123486,69.14724425251472,176.76980999557327,74.69112939038106,195.04648579228103,85.32464311976925
93.85611046962036,413.9689652081168,70.05395210643826,175.87946726019806,74.41102146791697,194.6194184930505,85.28796637895407
94.21247155033612,415.0876160995939,70.94974889012235,175.0743971475493,74.1443804755645,194.23598624521026,85.25334182765815
94.56146702255192,416.2359518981847,71.83200753661184,174.3569319353373,73.89107277078496,193.89423740878883,85.22091280525235
94.90297440808204,417.40355220989875,72.698206696129,173.72945267305238,73.65088293824982,193.592021241755,85.19083956252267
95.23692455423543,418.5790845934375,73.54593309692835,173.19425772649677,73.42351743550114,193.32698426535916,85.16329844468333
95.5633449400213,419.7503374615154,74.37289134372062,172.7534340209509,73.20858594221099,193.09660145024912,85.13844979068584
95.88232750439792,420.9042626774826,75.17691918834204,172.40875291125886,73.00559826106574,192.89821075978222,85.11642772053334
96.19395921717829,422.02706120356106,75.9559888202639,172.16160365434123,72.814003996667,192.72902650353836,85.09736422864238
96.49827385827605,423.1043353453395,76.70819370901023,172.01299220968306,72.63325080519925,192.58613715497202,85.08140104019336
96.79523110848231,424.12127579849715,77.43175120378028,171.9636007060044,72.46281196442327,192.4664948394419,85.06866066271215
97.08470080368161,425.062837932991,78.12503184696071,172.0138214188978,72.30217892227452,192.3669005143272,85.05921296406267
97.36645978605107,425.9138727258425,78.78657929552361,172.16370297329541,72.15086139518583,192.28399485839867,85.05308274172445
97.64022208385981,426.6592047043836,79.41509843183836,172.41286760729201,72.00841161686839,192.21426675040132,85.05028388317437
97.90567972608885,427.28371935497904,80.00945377108383,172.7604941561422,71.87443872169818,192.1541122597393,85.05082657126191
98.16251283644124,427.77252585656464,80.56872194139923,173.20537572038623,71.74858823819442,192.09996205441888,85.05468626075394
98.410368287179,428.1111550375215,81.0922609133395,173.74596441850468,71.63051185713017,192.04841006781652,85.06178671979312
98.64884657321365,428.28571498371736,81.57972534268252,174.38033492210099,71.51986757069388,191.99626165665305,85.07203470148568
98.87752670075955,428.28301519900833,82.03102370865184,175.10609295865882,71.41634797591622,191.94050332242597,85.08536731128117
99.09601086912096,428.090701509021,82.4462684072193,175.92029254765652,71.31969298682698,191.8782435558681,85.10175349091642
99.30395011995856,427.69736741964846,82.82575165230809,176.81943913527786,71.22966586321888,191.80665757593914,85.12115772770039
99.50103650362183,427.09260488273577,83.16993538005623,177.79963329355527,71.14602637942178,191.7229482151261,85.14352218589981
99.68698820737842,426.2670511798063,83.47942808637444,178.8567897198669,71.06853923518038,191.62434433954473,85.16878478937481
99.86157711017637,425.2124865684592,83.7549558615633,179.9867960255673,70.9970034917319,191.50815290264526,85.19689004820924
100.02469853654453,423.9219320163557,83.99736534851738,181.18555362334743,70.93125745476604,191.37181976270836,85.22776195815207
100.17641261513805,422.38967154427746,84.20765945377026,182.44894559228564,70.87114904675005,191.2129299405837,85.26127190973516
100.31691742128893,420.6111991018102,84.38701523261382,183.7727915636676,70.81650804926714,191.0291505779535,85.29724661092041
100.44649656169676,418.58314014565434,84.53675772232188,185.15280223929983,70.76714597495653,190.81818558710438,85.33550275302939
100.56548979002322,416.30318367407364,84.6583346439453,186.58453388536313,70.72286484276634,190.5777859472383,85.37585606331375
100.67428193120811,413.77003194548064,84.75333715870532,188.0633700752103,70.68344749653235,190.30579162458366,85.41809306126414
100.77328577541931,410.983381050206,84.82352960528078,189.58454367766475,70.6486402382815,190.00016405092947,85.46195353389083
100.8629232974106,407.94395819860705,84.87082920631624,191.14317024785262,70.61815959712283,189.6590085331067,85.50715786523841
100.94362003874608,404.6536154134564,84.8972605090969,192.7342607953788,70.5917203358871,189.280594489043,85.55344492625304
101.01579989697393,401.1154296088044,84.90495304257924,194.3527125259259,70.56904524011625,188.86335452160733,85.60056997764045
101.07986382153462,397.3337270862438,84.89617760271328,195.99328968629823,70.54984403065383,188.40586155959173,85.64827295112075
101.13616565849156,393.3139982432467,84.87334765430086,197.650592713095,70.53380592245229,187.9068163347285,85.69626998773191
101.18500360857698,389.0627526681281,84.8389524711123,199.31901122729585,70.52064516927321,187.36505361940013,85.74428106222747
101.22661908781754,384.5873670410532,84.79546293874378,200.99267546117412,70.51016545259363,186.77954722260054,85.79204717907479
101.26118668725665,379.8959454590881,84.74526147172597,202.66543435939636,70.50227856921529,186.14941678655538,85.83930612069734
101.28881187675489,374.99721823620945,84.69060776399516,204.33087592109845,70.49697535404201,185.47394653441643,85.88576108467159
101.30957507158148,369.9004931856658,84.6336140066833,205.98236706919417,70.49430136949222,184.75258855042998,85.9310897462379
101.3236114089766,364.6156315859572,84.5762057549603,207.61307315352306,70.49436040630434,183.98492402333991,85.97498320953447
101.33115563290093,359.1530182507338,84.52008531762422,209.21596603836198,70.4973163173164,183.17060934512622,86.01716100481134
101.33252009071559,353.52352210551595,84.4667343129367,210.78387633272513,70.50337091515081,182.30936669203874,86.05734622081805
101.32805377481922,347.73847050511245,84.41745305470198,212.30959825352363,70.51274190153372,181.40105584693868,86.09524903299673
101.31812190928088,341.80969294507844,84.37339112223411,213.7859850489613,70.52566907000158,180.44580711441415,86.1305958443683
101.30308613055942,335.7496307383364,84.33554891509418,215.20599549646366,70.54243206010953,179.44414456893722,86.16316885911722
101.28326439304256,329.57140456758043,84.30477930552573,216.56272220821825,70.563341427516,178.39703311929532,86.19280211056635
101.2588936368782,323.28881677785887,84.28180245505345,217.84944390070686,70.58870236600345,177.30586638619187,86.21934346897046
101.23012470278226,316.9163698663308,84.26720617914162,219.05969817994176,70.61879641204949,176.1724701443225,86.24263802039295
101.19703711503392,310.4692717343025,84.2614212310793,220.18733881887937,70.6539065838202,174.99912680253942,86.26254936226269
101.15963673335976,303.96338438492097,84.26469728924842,221.22655551293803,70.69434487270011,173.78856500571345,86.27897381829814
101.11783197702312,297.41523333155106,84.27709461933088,222.1718572035198,70.74043509248932,172.54392321511315,86.29181475619421
101.071430599866,290.8421219044973,84.29847724274143,223.0180251298431,70.79246621078676,171.26875060700831,86.30094944519631
101.0201856279595,284.2621887439124,84.32849644517543,223.76005124437287,70.85066211344545,169.96703767635142,86.30623580101812
100.96385237327766,277.6943153296772,84.36657669368488,224.39309456742575,70.91518405972116,168.64320071868121,86.30754860996659
100.90220190371487,271.15794077190435,84.4119225891597,224.91249802270852,70.98614115010325,167.30201476882235,86.30479163986446
100.83500333671925,264.67281954655334,84.46354570568118,225.31388202554314,71.06358513206949,165.94856288165246,86.29787047851102
100.76202447315029,258.2587650203684,84.52028875136075,225.5932594720844,71.1475086812065,164.5882146675014,86.28667455933717
100.6830548449417,251.93546188857985,84.58083502813682,225.74709665948788,71.23787327080743,163.22660133065025,86.27110628220812
100.59792294144069,245.72233689427256,84.64372801841762,225.77232562604743,71.33464095290002,161.86958275570632,86.25112366906858
100.50650604195889,239.6384093554129,84.70742914393061,225.66635898051123,71.43776693311814,160.52320398443766,86.22674167261447
100.40875355120411,233.7021061803313,84.77038914001795,225.42710117451335,71.54715948090768,159.19361830156564,86.19799912068477
100.3047239688938,227.93106884455278,84.83108128535406,225.0529193783588,71.66265185676421,157.88696470593695,86.16494637217254
100.19460147424749,222.34197336978113,84.8879945580889,224.54259201146192,71.78401333065193,156.6092191725779,86.12767092626055
100.07866579396745,216.95037113175138,84.93963608670431,223.89530234054146,71.91097966044724,155.3660617624843,86.08631573721209
99.95724305713246,211.77054359470407,84.98456703922912,223.11070398962505,72.04326159028147,154.16278578406045,86.04105639977806
99.83069893871014,206.815403188415,85.02143592419269,222.1889906326102,72.18052731147357,153.00423929159376,85.99206855845748
99.69948735380385,202.09648908187881,85.04897625910893,221.13089507195596,72.32239978107894,151.89478006893867,85.9395338028657
99.56418867296452,197.6240032699687,85.06599574457672,219.93764196794507,72.46848630519365,150.83823652463778,85.88367576577996
99.42549400564462,193.406777430796,85.07139589767053,218.61092956183415,72.6184034953629,149.8378720648366,85.82477157349112
99.28418526057507,189.45217142702546,85.0642053101296,217.15295235426595,72.77177269351938,148.89636530263851,85.76311949446877
99.14115285658337,185.766007885859,85.0435842214003,215.56640563601124,72.92821602143482,148.01584260738946,85.69901064440454
98.9974078111767,182.35259737824902,85.00880008954081,213.85444058928786,73.08737670739387,147.19796420976616,85.63274768181635
98.85405216739245,179.214803834841,84.9592067944531,212.02061342935818,73.24893475483101,146.44398950955642,85.56468226655382
98.7122543788604,176.3540890102319,84.89423917041796,210.06886947892934,73.41259264849042,145.75477314456566,85.49521538387715
98.57326762784908,173.7705208315147,84.81340534218455,208.00353509068904,73.57805918643969,145.13074789537484,85.42476309433933
98.43844385000519,171.4627545345899,84.71626707558035,205.8292728341168,73.74506929596853,144.5719707719033,85.35374283578734
98.3092021446639,169.4280110771443,84.6024293532335,203.5510093296523,73.91342390144155,144.07823452898714,85.28259932435398
98.18698285853107,167.66207457436158,84.47156282169202,201.17388305834174,74.08299718691289,143.64917639684128,85.21182178361053
98.07321534740278,166.1593061982371,84.32344056513107,198.7032300136923,74.2537022926867,143.28431990959342,85.1419154145734
97.96928037293041,164.91266949968247,84.15794602519175,196.14457386108575,74.42547049988194,142.98306066613065,85.07336049799224
97.87644970645106,163.91378642036534,83.97504237804065,193.5035862834801,74.59827791304969,142.74464298267702,85.00661005878617
97.7958180294934,163.15304186974578,83.77473557353369,190.7860260795212,74.77217599203698,142.56813117362452,84.94211823575549
97.72825807212784,162.61970707718945,83.5570650481491,187.99768948489856,74.94727572865393,142.4523598371106,84.88034593813788
97.67441291328504,162.30203222482493,83.3221228470648,185.14438587855895,75.12370706851385,142.3958860307808,84.82172618283613
97.63470434694408,162.18730867584972,83.07007049650795,182.23191994758733,75.30160701827288,142.39698735195492,84.76663628029642
97.60933331323768,162.26195098524346,82.80113444716807,179.26606084100553,75.48113812618831,142.4537188267685,84.71541892039774
97.59829288579245,162.51163288348695,82.51559622603844,176.25251652543915,75.66248833898219,142.56400784099796,84.66842317503982
97.60142843710877,162.9214463949149,82.21379584662688,173.19694329342562,75.84583167259031,142.72576802455993,84.62600739184576
97.61851723670097,163.4760336017632,81.89614387920864,170.1049764557192,76.03129457222704,142.93700697750214,84.58850481916743
97.64929960911725,164.15970328620335,81.5631343303492,166.98223629350838,76.2189769664233,143.1958771552304,84.55620668333148
97.69345420874154,164.95657034539119,81.21536136547105,163.83429767704285,76.40900703631428,143.5006394042994,84.52938298470612
97.75057774640013,165.8506986870429,80.85353413660484,160.66666045760257,76.60156305338792,143.84957704472282,84.50829689176416
97.82020291823656,166.82620648364968,80.47846839952105,157.48474524518346,76.79684555383305,144.24092692410431,84.49318116198495
97.90181965629021,167.86732868384345,80.09105324404922,154.29389319322405,76.99504870244775,144.67284095510183,84.4842129843813
97.9948677739268,168.95845593117957,79.69222724040203,151.0993513249773,77.19635925299724,145.14333777334824,84.48152931539009
98.09873719482876,170.08417524481732,79.2829854845516,147.9062591970763,77.40095449523021,145.650229008981,84.48525768996532
98.212815174253,171.22932482265148,78.86438957120274,144.71965397539444,77.60897329328611,146.19106288199623,84.49551065260091
98.33654450546213,172.37904675377308,78.43755070022817,141.5444930363741,77.82047953007813,146.7631375992983,84.51234790352497
98.46944574124407,173.51882357678568,78.00360974447496,138.3856762451993,78.03545216974695,147.36357982448513,84.53576236949597
98.61112919817889,174.6345206137985,77.56375639748201,135.24804344648553,78.25380340359301,147.9894209871043,84.5657161623063
98.76134446227763,175.71246386186564,77.1192747526834,132.13635282708483,78.47539131015,148.63761964300915,84.6021804902429
98.920042121654,176.73953735054172,76.67156155761039,129.05526733382976,78.70001095769885,149.30504501895246,84.64512893195608
99.08737280575215,177.70325144421042,76.22210825673493,126.009344400707,78.92739684527396,149.98847298170617,84.69450427289894
99.26360737311269,178.59177094306676,75.77249748781797,123.00300422454245,79.1572608833196,150.68462993910356,84.75021406845998
99.44903938456982,179.39394179649773,75.32443873467956,120.04048035915709,79.38932759561374,151.39028431367,84.81215815660349
99.64392829791485,180.0993448267115,74.87979757760233,117.12578139180299,79.62332364736116,152.10235821240107,84.88023709044177
99.84848384018639,180.69835697323265,74.44057237368854,114.26268269077715,79.85894180536815,152.81800276055355,84.95431940505695
100.06285831790241,181.1821889014461,74.0088399943377,111.45473504128103,80.09582655617241,153.5345920775677,85.03421205720238
100.28715114179741,181.54290882400804,73.58671757394488,108.70526218721639,80.33359193607696,154.24967804110233,85.11967804516553
100.52145873959593,181.77347524390433,73.1763389513861,106.01734820450766,80.57184087807049,154.96098997505484,85.21047683475332
100.76593907253653,181.86776200176254,72.77981633738598,103.39383853854356,80.8101615220419,155.66648836131154,85.30637084017445
101.02081346425928,181.82056376802447,72.39918972776613,100.83735171757996,81.0481205277201,156.3644123695454,85.40709461858434
101.2862936067274,181.62761064295796,72.03638764637903,98.35027406865579,81.28528049639381,157.05328200533305,85.51234092617754
101.562494163003,181.28559608732047,71.69320287611173,95.93473520625352,81.52122026343592,157.73186483991017,85.62179129186384
101.84938509787584,180.79217598067507,71.37126873633513,93.59259628658666,81.75552793554068,158.39914873566408,85.73514855257562
102.14678394047814,180.14591676350855,71.07202455127567,91.32546826397231,81.98779334128668,159.0543502136802,85.85212572608512
102.454346296918,179.34621472866894,70.79667671338534,89.13473278927255,82.21764630567309,159.69695329915334,85.97241325963557
102.7715336430945,178.39321735992147,70.54617802270126,87.02153361888897,82.44482699450315,160.3268066380287,86.09567662931312
103.09759587632658,177.28777330118157,70.32123485073573,84.98674832603827,82.66922433791443,160.9442876608869,86.22158514935833
103.43160654833255,176.03142755265245,70.12232032213487,83.03098050680138,82.89085371758642,161.55040230538842,86.34982188676538
103.77251916211029,174.6264385916602,69.94967966620308,81.15459437030155,83.10981716053836,162.14671267858205,86.48005293879201
104.11918622114423,173.07576926374296,69.8033624616373,79.35776330620727,83.32629250922633,162.73516852072066,86.61189973248533
104.47034770002242,171.38304129301224,69.68330499154158,77.64048905677933,83.54053145414261,163.31795121642696,86.74495820506945
104.82464434729565,169.55248180508153,69.58940473667317,76.00259722016845,83.75282481843803,163.8973604256363,86.87883969637197
105.18066376511052,167.5888735669525,69.52152501212075,74.44375100976198,83.96345035582841,164.47575287614532,87.01317590146708
105.53696975543403,165.49749964337778,69.47945431402175,72.96348939753409,84.17265811404374,165.0555298025394,87.14758587461485
105.89210241362065,163.2840962645405,69.46288202680687,71.56124990942216,84.38070365395168,165.63912503853794,87.28166209272655
106.24459761385289,160.95484493426756,69.47140832321463,70.23635622482905,84.58786989754691,166.2289635314757,87.41500444529753
106.59303827648377,158.5163887185924,69.50455576279192,68.9879999721136,84.79443541157836,166.82742573758804,87.54725753926232
106.93608152776459,155.97581352450615,69.56175224501676,67.81524665467443,85.00062580593514,167.43684216381504,87.67810263313042
107.27242751328103,153.34058039815787,69.6422983161897,66.71705423932316,85.20660316934585,168.0594808834224,87.80722660887831
107.60076418845478,150.61846713162706,69.74534816881051,65.69227436934739,85.41248991144562,168.69749201632533,87.93432325691093
107.91974555336665,147.8175601213179,69.86990558879357,64.7396350177466,85.61837765784315,169.35284505490185,88.05912767855271
108.2280209549428,144.94626116353183,70.0148188350867,63.857736591373126,85.82429810543786,170.02732235261672,88.1814296895493
108.52427691235536,142.01325828341535,70.17878131016043,63.04507681773151,86.03018508551635,170.72255434310387,88.30104232354246
108.80726204048251,139.0274641138247,70.36036869160226,62.30007415774662,86.23585921436809,171.44004399994327,88.41776916871731
109.07581383157971,135.99796850386707,70.55811493124268,61.62106005367534,86.44102705836148,172.1811810489288,88.53141453671566
109.32889306300939,132.93402644546484,70.77057470734596,61.00625723389519,86.64527091760097,172.94724381723861,88.64181419824567
109.56559151587867,129.84503684943033,70.99633081881774,60.45378074026109,86.84803752460854,173.73935162692973,88.74883386982778
109.78509914254519,126.74046699369238,71.23397575561404,59.961663717735505,87.04866535207853,174.5583864645467,88.85233367488962
109.98667007726928,123.62974232406071,71.48211438960472,59.52787329547772,87.2464572931536,175.4049576528089,88.95215124219276
110.169628894507,120.52214534293462,71.7393803703767,59.150298314306355,87.44074121405683,176.27942145411427,89.04813053281764
110.33339954727933,117.4267418983168,72.00442905270856,58.826735141610556,87.63087201711978,177.18189734479247,89.1401544406381
110.47750444600672,114.35233627681947,72.27590682947908,58.55489967376065,87.81620597096703,178.11224294592589,89.22813423932406
110.60152152368094,111.3074542899757,72.5524383713927,58.332451703813064,87.9960971609314,179.06999716855165,89.3119762989115
110.70504065605088,108.30036078752894,72.83265287935464,58.15699942324458,88.16990830001086,180.0543434681489,89.39157837249206
110.78765541874544,105.3391195913272,73.11521373338238,58.02608301794725,88.33699938825292,181.06414011894822,89.46685632196052
110.84897574036152,102.4316597205503,73.39881128362818,57.93716871537198,88.49669664519837,182.09797606081128,89.5377512015861
110.88862369715704,99.58577966843738,73.68213262535049,57.88767070765129,88.64827494393197,183.1541907838753,89.60419634545688
110.90621199617071,96.8090882146996,73.9638509604168,57.87497783364661,88.79096142157114,184.23088933895008,89.6660878877283
110.90134111377444,94.10895145070377,74.24264596068554,57.896457112161386,88.9239347468925,185.32599186325703,89.72330075672676
110.87362285702413,91.49247521627704,74.517224212071,57.94944492909489,89.04630742419408,186.43727100519243,89.77572595542105
110.82269152101914,88.96648106292565,74.78631326573557,58.031255907033916,89.15711648750792,187.56233100526893,89.82327445399842
110.7481801038468,86.53744726568848,75.04864715508492,58.139209949831546,89.25534963208707,188.69855986204098,89.86584441603402
110.64969500380269,84.21144459359903,75.30297733966302,58.27064827484871,89.33998893827969,189.84310717135756,89.90330405286436
110.52683155200303,81.99409816348265,75.54810397054021,58.42292589666873,89.41002978757227,190.99290007924353,89.93551992919336
110.37921817037369,79.89055748730024,75.78288920925037,58.59340527936873,89.46447125113532,192.14468758633393,89.96239221787627
110.20653680494263,77.90544716081625,76.00623954662309,58.77947618583014,89.50232294538307,193.29510360257277,89.9838481329236
110.0085033062674,76.0428107819851,76.21709265727611,58.978587276666275,89.52265826741272,194.44071642592746,89.99980891191287
109.78484863600234,74.30607387147275,76.41444732684383,59.1882552267806,89.52467905299382,195.57803020851924,90.01018305923402
109.53533290844045,72.69802502928502,76.5974197153466,59.40604845356294,89.50773659353365,196.70346396406237,90.01489293717654
109.25976891909775,71.22080115658959,76.76527020823352,59.6295802384788,89.47131099028283,197.81337487681006,90.01388734442472
108.95801790930047,69.87587557008389,76.91738712399486,59.85653675422116,89.41499914017565,198.90415033216595,90.00711534395559
108.62996624597068,68.66406279222717,77.05327181350289,60.08471927947367,89.33853275704888,199.9723134925151,89.99450048477804
108.27552470851761,67.58554638382547,77.17254875667169,60.312061735046015,89.24179216775325,201.01457185638287,89.97595956143012
107.89465949771167,66.63990725583017,77.27496761680631,60.536622158907065,89.12478798189849,202.02781417869684,89.95144588875644
107.48741456129996,65.82612753986511,77.3603731377786,60.756579272911786,88.98763339539919,203.0091137179507,89.92096047210406
107.05389726718305,65.14258628224563,77.42867077933482,60.97024363533908,88.83053374514344,203.95574519781752,89.88452319679828
106.59425372786914,64.58708274393604,77.47981840909728,61.176059177535166,88.65377805415147,204.86516331544962,89.84215669394968
106.1086720986833,64.1568854203728,77.51382975612427,61.372581228513766,88.45770952860859,205.73492882231062,89.79391399944133
105.59740752665107,63.84877646249336,77.53076055498937,61.558452479893745,88.24269356517325,206.56264569662585,89.73991028833244
105.06078865748353,63.65909861996847,77.53068443595029,61.73240298347331,88.00913097116084,207.3459659796566,89.68031005897414
104.4991932029846,63.583840890641056,77.51369660400685,61.89326661442841,87.7575252541996,208.082648066174,89.61528571784497
103.91302923997905,63.618744527401404,77.47995946510189,62.039983957519,87.48854342921128,208.77064620873588,89.5450009325653
103.30275437971156,63.75936293667185,77.42975181237713,62.17158222760461,87.20301989187224,209.40823623279812,89.46962925517451
102.66891055004595,64.00105692941372,77.36348132752866,62.28715314820178,86.90193141776726,209.99413106277962,89.38936233333075
102.01213086608254,64.33898351802821,77.28167583936192,62.38584700394671,86.58638499685797,210.52750398054283,89.30438157393971
101.33311970108244,64.76814456218061,77.18498500462255,62.466874977546446,86.25760453993331,211.00791665566763,89.21483298542017
100.63264458533773,65.28348449626213,77.07417812970962,62.52950329972369,85.91688966475208,211.43521600996507,89.12084895432687
99.91155040262122,65.8799577997757,76.95011206598286,62.57304460064261,85.5655620579909,211.8094378366984,89.0225930517658
99.17076313299415,66.55253307429841,76.81368610427515,62.59686932373998,85.20493967789196,212.1307166980284,88.92026973125645
98.41126404172358,67.29618253915511,76.66581758635864,62.60043964378857,84.8363518241572,212.39919939478645,88.81409297168527
97.63406124291272,68.10588825923132,76.50743805994925,62.58333549387592,84.4611597446787,212.61496578753568,88.70426906695852
96.84018948508103,68.97663730000122,76.33948091154897,62.545255045382106,84.08074556889731,212.77796028225646,88.59102781302278
96.03072587072498,69.90338915116719,76.16284910746516,62.48601872679179,83.69648417796384,212.88793210854084,88.47466267905125
95.20678532563475,70.88104987203236,75.97839205572981,62.40560220008618,83.30973788084817,212.9443877869484,88.35552810362957
94.36949115678122,71.90448829370888,75.7869241922836,62.304167988546666,82.92187313538196,212.9465876326112,88.23400935134941
93.51995730128145,72.96857361744885,75.5892682188735,62.18205760936693,82.53425821555695,212.8936106871454,88.11051730027879
92.65930652763292,74.0681853220159,75.38627161987404,62.03975629457552,82.14822433450902,212.78444902678658,87.98551201203415
91.7886970231901,75.19818681162957,75.17878626417115,61.87786329015966,81.76502307638093,212.6180768881185,87.85950665684094
90.9093169617026,76.35340346471695,74.96765529691416,61.69707360296604,81.38581856502348,212.39349053071163,87.73302913688798
90.02235052708303,77.52865012172201,74.75372838717432,61.49815481684304,81.01170843341403,212.10975199009945,87.60657989173859
89.12895572995726,78.71880364700073,74.53786880375621,61.28191398035162,80.64373274975148,211.76606459883305,87.48062823174865
88.23028024630223,79.91885777851274,74.32092170476605,61.0491745211574,80.28285645788917,211.36186365203437,87.35563288194616
87.327493614662,81.12392079454055,74.10366108093031,60.800785538172335,79.92996709946408,210.8968897260378,87.23203899970213
86.4217958566098,82.32919384706432,73.88675019680666,60.53765363813277,79.5859247398325,210.37124447497604,87.11024359352524
85.51440418196152,83.52997488957301,73.67073469913966,60.26075853089966,79.2516275879875,209.78541803897957,86.99057696035632
84.60655229487067,84.72167553652096,73.45605733572334,59.97113589422072,78.92802770158954,209.14025895748355,86.87333223351753
83.69950587621842,85.89981942658174,73.24306334113986,59.66985810338627,78.61609595706108,208.43689948863738,86.75880498910773
82.79456166055802,87.06003142604298,73.03199143612207,59.35804569801528,78.31679638909496,207.67668265596234,86.64728916881703
81.89302046316956,88.19805767691736,72.82298245526705,59.03689618393533,78.03109890833449,206.86112195794217,86.53904012461628
80.99616833535583,89.30982324251752,72.61611624433742,58.707689651797736,77.75998799193307,205.9918809414314,86.43425917118896
80.10529239207435,90.39147919546588,72.41143894632329,58.37176386622897,77.50442631101662,205.07076563938628,86.33311374550333
79.22170671739711,91.43940567017118,72.208953835777,58.030494684736176,77.26529628942734,204.09982759253555,86.23574920263452
78.34674844202752,92.4502040310326,72.00860278612443,57.6853028694319,77.0433657561687,203.0816468038518,86.14226462755057
77.48175081339672,93.42071555613404,71.81027690359453,57.337660954116245,76.8392851928105,202.0196129432356,86.05268886365991
76.62803499741196,94.34804291797278,71.61384961013886,56.9890728443724,76.6535858632316,200.91796826371137,85.96699863848077
75.78692916761237,95.22953526523588,71.4191926885777,56.64104294001048,76.48666119905363,199.781647825647,85.88515777582829
74.95977573898938,96.0627453777586,71.22616663740867,56.29506656663598,76.33875568668878,198.61612406412732,85.8071244678586
74.14790313159443,96.84539788743223,71.03461921597842,55.95263994051673,76.20998362973255,197.4273380917439,85.73282166662416
73.35259245862056,97.57538735559595,70.84440655270697,55.61526051429177,76.10035366899761,196.22163228220023,85.66212302364815
72.57507882194895,98.25078594433683,70.65540642927286,55.284409922049115,76.00976517892937,195.00562160786868,85.59488890987612
71.81657782732825,98.86983665136853,70.46750096615035,54.96155221288377,75.93798987664748,193.78605490493572,85.53101492262765
71.0782915497758,99.4309476789125,70.2805479158894,54.64816497442215,75.88467837509342,192.56973548681114,85.47043702080114
70.36137889120633,99.93271523733382,70.09436919727987,54.345761995973234,75.84939292639417,191.3635061435093,85.41310289031698
69.66692974267967,100.37395767223568,69.90875551242272,54.05586817125084,75.83162558903626,190.1742313786626,85.35896308379498
68.99597967445081,100.75372098718442,69.72346374780489,53.77997108570151,75.83078219933863,189.00870510406406,85.30799157932162
68.34954321450084,101.07125765280124,69.5382050644606,53.51949637271943,75.84616590538549,187.8734889251979,85.26019002122807
67.72861617773432,101.32602486242317,69.3526585562936,53.275812106953886,75.87699934411721,186.7747402424654,85.21555228058484
67.13414020302075,101.517730609147,69.16652776890047,53.050227028340736,75.92246939899185,185.7180920123656,85.17402827672204
66.56696794683265,101.6463925630109,68.97959786203813,52.843961292417525,75.98174511139413,184.70862315893186,85.13553066501909
66.0278566834368,101.7123504101447,68.79174968559836,52.658114307983915,76.05396203849503,183.7508907218301,85.09996789881843
65.51747591164666,101.71622749134268,68.60294794944042,52.49366454791961,76.13821490166275,182.84894677462702,85.0672519359327
65.03640207257199,101.65889396615302,68.41324450982245,52.351493767799425,76.23357574888516,182.0063188619391,85.0372715804098
64.58510723017469,101.54146451152639,68.22279599642596,52.232394077628996,76.33910410896124,181.22600390099004,85.00987835314417
64.163967866909,101.36530786483411,68.03185940551298,52.137039557437745,76.45382286643759,180.51049050816832,84.98491577358666
63.77328837403192,101.1320380909208,67.84075045248848,52.065944559994435,76.57668143022815,179.8617552612575,84.96225824023283
63.41330826956208,100.84350081111093,67.6497893985367,52.019435319176495,76.70654748722042,179.28120476648394,84.94181072441683
63.08418873519195,100.50177692942127,67.45926739138882,51.99763838409027,76.84223617000815,178.7696342141059,84.92347916855789
62.78600842412636,100.1091803640876,67.26944167779277,52.00047155180026,76.9825392883662,178.3273111636668,84.90716298871062
62.51878036984066,99.66821569265092,67.08053702996231,52.02763031892302,77.12622357402874,177.95417323946918,84.89278064601429
62.28246000421896,99.18151290930872,66.89273221357256,52.07858456304102,77.27201728590188,177.649995061465,84.88028193131346
62.07692497455405,98.65178507027414,66.70614319947052,52.15260039918903,77.41862013772668,177.4144508544928,84.86961964844981
61.901959447000806,98.08181860458572,66.52082546955535,52.248773898969766,77.56473270686911,177.24711671422625,84.86071696215217
61.75728236600417,97.47446091727119,66.33678989605642,52.36604932522734,77.70906973125791,177.14743787228684,84.85347243461756
61.642599895529514,96.83258202765637,66.1540064511642,52.503222976942396,77.8503481518597,177.11468204620178,84.8477861462391
61.55762399896399,96.15903657030717,65.97239241714746,52.65896452171914,77.98729000787226,177.14792508314778,84.84355883662204
61.502045033157856,95.45666134415444,65.79182056911266,52.83186660645912,78.11866736175375,177.24606233136436,84.84065849289321
61.47551415226619,94.72829601333673,65.61217319916894,53.02048741073422,78.24335052956842,177.40781135654026,84.83890243413278
61.47768360013466,93.97678202492808,65.43340603595533,53.22335590389785,78.36031003692963,177.6317161384682,84.83808680329268
61.50827252072246,93.20492837201337,65.25556608413308,53.438959245361,78.46858464450166,177.916171010037,84.83802785069872
61.56709046358344,92.41548076213654,65.07876426183327,53.66574815413673,78.56726865814353,178.2594474664739,84.83856240943392
61.654017028359675,91.61112007214524,64.90314770543957,53.902160326737295,78.65554022690581,178.6596961985255,84.83951721237939
61.7689818525773,90.79446832071831,64.72889323258578,54.14663170827927,78.73269356347937,179.1149061690715,84.84070207861383
61.911944487288196,89.96807085536274,64.55620217659454,54.39758512618506,78.79813566343,179.62282486620754,84.8419414031152
62.082846475538574,89.1343645788385,64.38527609594078,54.653424555428344,78.85136390411346,180.18088166886582,84.84309572243886
62.281545946109865,88.29567286755308,64.21628502145127,54.91255907145529,78.89196911336992,180.78615210897024,84.84404011254746
62.50777587588021,87.45423781955039,64.04935606442287,55.17343725753998,78.91966970958266,181.43534378276448,84.84463453894435
62.761147451233334,86.61224651047735,63.88458714141514,55.434557874337585,78.93433445835578,182.124760376572,84.84473313079721
63.04117270605769,85.77181463420531,63.72205810076441,55.69445908156807,78.9359720988589,182.8502431160914,84.84421775370195
63.34726821472846,84.93494918540601,63.56181748329144,55.95171879486383,78.92472036713598,183.6071311214775,84.8430031391696
63.67874052810665,84.10353561774465,63.40386266393987,56.20497672837855,78.90085502082411,184.3902643661721,84.84100433430238
64.03478336289217,83.27935932968408,63.248149382201134,56.45295099143479,78.86478833920403,185.19400519856512,84.83811662879556
64.4144990541858,82.46412827416329,63.09463324727588,56.69442866659543,78.81703508262574,186.01224697199942,84.83424299996956
64.81691951056858,81.65947564457896,62.94330098991512,56.92824735392691,78.75817958967696,186.8384146811595,84.82933384703865
65.24099928433071,80.86697210578296,62.79416243086158,57.1532957983849,78.68888517423687,187.66548883841938,84.82338509821842
65.68559790217333,80.08817088915679,62.647232976963195,57.36853251238377,78.60992598483595,188.48607088729096,84.81640301166438
66.149490567246,79.32464621087207,62.502552272881445,57.57299354902064,78.52218733936684,189.29246828176503,84.80838979197367
66.63140167935487,78.57798240366971,62.36022982052423,57.76577744252241,78.42663381278193,190.07675943490293,84.79936499806985
67.13001518885096,77.84973903680071,62.22046554316661,57.94603464118452,78.32430072537768,190.83082910771523,84.7893779911937
67.64394727323771,77.14143897007867,62.08353182610329,58.1129869065114,78.21632695415767,191.5463943927865,84.77848168514815
68.1717202861616,76.45457367047554,61.94975913210427,58.26595778648732,78.1039736107143,192.21503599941823,84.76670293303253
68.71177234392967,75.79058633526003,61.819547176372446,58.404377126196806,77.98858681078343,192.8282371142702,84.75405539427882
69.262484062039,75.1508258141428,61.69336945435321,58.527758951953146,77.87154024647135,193.37743125304868,84.74057886201236
69.82218428375225,74.53651166780944,61.57174292420218,58.63568950144048,77.75421257113345,193.85406235173707,84.7263490951321
70.38914247667289,73.94874853276546,61.45518312736591,58.727846165044305,77.63799610522831,194.2496616308135,84.71144509177378
70.96159193705694,73.38857050157195,61.34418570118183,58.80402025576395,77.52429039955885,194.555943191209,84.69592336299777
71.53778892343352,72.85696440566056,61.23924356110883,58.86411112382139,77.41446426975511,194.7649075830055,84.67983900739873
72.11605637225863,72.35487449830453,61.140863486258745,58.90810420039003,77.30982172345286,194.86893252692323,84.66328388631595
72.69478013444713,71.88323259043767,61.04955183010771,58.93606493354308,77.21160471284641,194.86084813011237,84.64638699603913
73.2723922511407,71.44300578385472,60.965796380420876,58.94814721132002,77.12101222698611,194.73402370545952,84.62928028560293
73.84738362706341,71.03520981616371,60.89009168158896,58.9445884597655,77.03919216634928,194.48247161350488,84.61208357856512
74.41833112680723,70.66087516424939,60.822995401165244,58.92568791129272,76.96720763610978,194.10092459872536,84.59492701783458
74.98390181500801,70.32099934629981,60.76515152241002,58.891800831545055,76.90601346589246,193.5848652715936,84.5779663529255
75.542843438786,70.01650732934287,60.71725749364763,58.84336475321051,76.85644738926361,192.9305420055202,84.56136108300173
76.09399671227125,69.74820939859467,60.68001970492562,58.78092418578738,76.8192090703536,192.13501023556222,84.54525610229707
76.63632133248126,69.51674519493841,60.65413321672357,58.705119262727116,76.79482226492296,191.19621703344643,84.52981093417483
77.16889245444072,69.32252627295995,60.640269031266946,58.616651674718966,76.7836135714593,190.11310419273897,84.51524518355637
77.69085856436641,69.16570481796057,60.63904242899506,58.51626751228357,76.78573750973474,188.88567826510922,84.50184015882687
78.2014010616228,69.04618198575668,60.65097186612396,58.404771331254096,76.80122531903658,187.51505629239358,84.48990096253955
78.69973265126647,68.96363067851983,60.67645737936504,58.28304207177665,76.83000498706653,186.00351582012726,84.47973528396876
79.18512081336071,68.91750001882097,60.71578135794642,58.152019773257976,76.87188739903755,184.35451129602467,84.4716667564505
79.65689231579842,68.90701195556662,60.76910343673377,58.012677123644316,76.92656676827971,182.57265502096678,84.46603889119763
80.11441037841082,68.9311780249572,60.83643537631132,57.86601290955188,76.99365368739372,180.66371941672148,84.4631796785112
80.55705903076515,68.98882519665759,60.917620521825015,57.713070019651994,77.07269843612714,178.63462339015157,84.46336234400802
80.98425042127234,69.07859871693115,61.01234353865922,57.55494112816076,77.16317473262404,176.4933129887756,84.46681109144237
81.39542921193086,69.19894474316503,61.12015633226523,57.392740980960774,77.26445460775254,174.24855709159007,84.47373983809615
81.79005448845598,69.34811157933633,61.24048641296206,57.227572161377246,77.37581262250151,171.90977368483348,84.48436547207712
82.16758234928372,69.52418813086327,61.37262390225076,57.060522121408,77.49644745430811,169.48698981599088,84.498876245376
82.52748161539336,69.7251458841229,61.51571804759947,56.89268683187392,77.62548286847701,166.99094981070584,84.51740393934591
82.86926899818137,69.94884693307972,61.66880272248173,56.725180074930684,77.76194344085302,164.43326468929004,84.54004121375925
83.1925203801071,70.19303071437132,61.83082917552541,56.559113866588504,77.90474179880242,161.82645234074508,84.56687429972975
83.49685397735436,70.45532239921127,62.00067621970006,56.395583506385115,78.0527034039165,159.1838079375325,84.59797808906099
83.78191981064424,70.73328162317459,62.17714574229365,56.235680324655505,78.20460434236668,156.51915203610776,84.63338022865396
84.04740357796231,71.02446095105459,62.35897460129192,56.08050537005429,78.35918274689561,153.84653800660993,84.67304812388768
84.29301878744938,71.32643763317593,62.5448662976578,55.93115283222009,78.51513129887847,151.17998523753954,84.71691483005672
84.51847537787076,71.6368378136518,62.73351150634902,55.78867944401847,78.67111297005118,148.53326035432005,84.76489713379866
84.72344613188922,71.95338869278022,62.923582027306644,55.65409722603459,78.82580595525428,145.9196845929764,84.81687311977267
84.90756472162639,72.27397115293289,63.113725565862865,55.528387843921266,78.97793294800614,143.35194965026673,84.8726548731729
85.07046199484793,72.59662124727711,63.30259073838134,55.41250062671664,79.12624748080685,140.8419576994313,84.93200610049318
85.21180063666661,72.91948903266244,63.48886700999427,55.30732035821321,79.26950688481885,138.40070977927502,84.99469154394633
85.33127336630884,73.2408102550971,63.67129983839627,55.21363645393037,79.40647371645926,136.03823953027944,85.06049772326762
85.42858413218384,73.55892163317537,63.84867393986578,55.13214393328469,79.53594409489325,133.7635739383947,85.12920566333283
85.50344840953893,73.87229123761053,64.01979887445843,55.06346266947011,79.6567635386898,131.5847395463169,85.20056676810395
85.55560977610908,74.17951874475484,64.18352212187654,55.0081391773574,79.76781052983002,129.50884558835244,85.27432599441951
85.58484335072706,74.47930696226648,64.33875096915351,54.966627942032304,79.86797395655641,127.54220452197343,85.35026224159554
85.59094330217523,74.77044339777517,64.48445276082339,54.93928907765923,79.9561557901501,125.69040711714626,85.42819005928955
85.5737270963112,75.05180629111972,64.61964004647115,54.92642297961845,80.03129204734351,123.95832330241592,85.5079283738887
85.53307037840216,75.3223670425741,64.74337304283033,54.92830940416204,80.0923593529388,122.35005941782332,85.58928942478984
85.46893870936832,75.58116646457945,64.85478537996356,54.94520858059281,80.13836044302671,120.86890587265059,85.67210078143525
85.38138508978248,75.82728293532388,64.95310168634191,54.9773337559029,80.16832890829892,119.51728927669497,85.75621537423069
85.27053360639027,76.05981970266262,65.03762702752849,55.024843721184816,80.1813889543396,118.2967307900949,85.84148190253798
85.13658622483672,76.27790617334693,65.1077311145895,55.08787144196727,80.17683794672642,117.20781168273798,85.927710253489
84.97984583365637,76.48069126006229,65.1628582713492,55.16654645320935,80.1541898763623,116.25015457515177,86.01467791633237
84.8007169734069,76.6673322922284,65.20255535129606,55.2609760174994,80.11318661852685,115.422427324245,86.1021663944743
84.59967767546114,76.83700152628788,65.22648191026724,55.37120989922911,80.05382754381141,114.72236376745342,86.18997326200247
84.3772622558656,76.98890679830473,65.23439249056406,55.497231432147764,79.97640503742713,114.1467967241418,86.27788192446118
84.13407981661823,77.12229777520808,65.22612020567045,55.6389741899513,79.88149257760526,113.69170618503887,86.36563587472448
83.87083533618524,77.23644708154058,65.2015811043116,55.79632640607665,79.7698961571989,113.3522856048216,86.45296017508448
83.58831407019491,77.33062861288514,65.16077882495783,55.969105195071265,79.64264798094507,113.12304401108042,86.53960366125393
83.28734376690319,77.40412674516091,65.10378888331167,56.15702900424687,79.50108902387292,112.99795305282522,86.62534476667972
82.96877404110474,77.45628469995492,65.03074171236779,56.359723740374974,79.34698133688995,112.97058823653467,86.70995914299898
82.63347738381906,77.4865539219227,64.94183619978408,56.576754476800424,79.1825601725428,113.03420883189453,86.79320231437372
82.28234191009156,77.49450419807114,64.83737671031113,56.80763991231405,79.01054274436676,113.18178780800831,86.87483011976595
81.91624405598516,77.4798079609977,64.71779113042975,57.051832661642145,78.83417792211408,113.40602943294729,86.95461525669798
81.536034899098,77.44223715663584,64.58360670128745,57.308697281136894,78.65731902740312,113.69939910565445,87.03232609806149
81.1425773635315,77.3816733163348,64.43540471490347,57.57751713981914,78.48440490654957,114.05417724532067,87.1076986730278
80.73681299888771,77.29810538708462,64.27378997127653,57.857516019399455,78.32031516270025,114.46253097775357,87.1804482872536
80.31979431632051,77.19161940615267,64.09938849042283,58.1478612543875,78.17018225726892,114.91659351757227,87.25030966167432
79.89266499509117,77.06240110252311,63.9128531238008,58.44764954329575,78.03922529422218,115.40853682869646,87.31705075237457
79.45663985457746,76.91074267324173,63.714854484998206,58.755907407900914,77.93260619287798,115.93061258126372,87.38044357294902
79.01302371150915,76.73703865584626,63.50607247645626,59.071614538020356,77.85532197753437,116.47516469349299,87.44024282767501
78.56323927793552,76.5417769246278,63.28721670920252,59.39371868328568,77.81217430548712,117.0346487187034,87.49621924605847
78.10881653943348,76.32552887586817,63.059060734694846,59.721124372972994,77.80779740714037,117.60166735247309,87.54821786216824
77.65134908575193,76.08894647128582,62.822448529824136,60.0526848014243,77.84665937690063,118.16899627518117,87.59617286051548
77.19246147832581,75.83277930973597,62.57827148297082,60.38722456216562,77.93300903225213,118.72959215595418,87.64007159628761
76.73380952150143,75.55789204295222,62.32745790898876,60.72357057791497,78.0708234560077,119.27660555681938,87.67993078882837
76.27709265292668,75.26524885466921,62.070996718792216,61.06055401946065,78.26378636327121,119.80340974230651,87.71582080658737
75.82405137720296,74.95587323603048,61.809962844604875,61.39698748112025,78.51527020841526,120.30362874288086,87.74789350728402
75.37645850484795,74.63081976683186,61.545505468344906,61.73165317392287,78.82829191030812,120.7711610757295,87.77636406602204
74.93612175049458,74.29116966973768,61.27880773910296,62.06331841178182,79.20544563044828,121.2002329080904,87.80147026113283
74.5048759393011,73.93802466656595,61.01105810625833,62.39075489190118,79.64884690556751,121.58549598963069,87.82346157188414
74.08453941832646,73.57248271939262,60.74345013278544,62.71273533279982,80.16010788080776,121.9221160178024,87.84261602596308
73.67685537600741,73.19562321451926,60.47718505737433,63.028017980860135,80.74031985981944,122.20579010256252,87.85923739020012
73.28345465688311,72.80853204137905,60.213450641816245,63.33535148404345,81.39002502741361,122.43270285658606,87.87361846876837
72.90584224500915,72.41234383756621,59.953392920509316,63.63350733154179,82.10920636793664,122.59947333349137,87.88601476366398
72.54537941334866,72.0082509597508,59.698114872055704,63.921307845979506,82.8973145668024,122.7031242681671,87.89666391044678
72.20325192054052,71.5974709557084,59.44869599563329,64.1976223004374,83.75329092779681,122.74106723294706,87.90581925361934
71.88045703059221,71.18121736187466,59.20619270126412,64.46134590016757,84.67554834627558,122.71108224298675,87.9137441157988
71.57783578063093,70.76071686981501,58.971606500388184,64.71139401943894,85.66193606190589,122.61128847824817,87.92067163998261
71.29611815908773,70.33725880958292,58.74585195149676,64.94671620055567,86.70974242688047,122.44012171781075,87.9267856057324
71.03593395655537,69.91221882590808,58.52975440344699,65.166304528034,87.81574977797479,122.19632176564087,87.93224663372409
70.7978012951761,69.4870350620727,58.32406687163889,65.36918387405605,88.97629522369974,121.878914500637,87.93722073220688
70.58213539907165,69.06318093927078,58.129474381321074,65.55440676601367,90.18729449747605,121.48718599672709,87.94186605355365
70.38927339401918,68.64216951298812,57.94658141108203,65.72107460987769,91.4442518225695,121.02067724033387,87.94630122108526
70.21947443898529,68.22556093731194,57.7759076161499,65.86836826196328,92.74230157204042,120.47922423932003,87.95060673234725
70.07288746769338,67.81493742372112,57.617898431823264,65.99555708366287,94.07627409071704,119.8630165909079,87.95485729078898
69.94952823333675,67.41186664533036,57.472925620552125,66.1019915782114,95.44073916941656,119.1726197717062,87.9591337265161
69.84930251756597,67.0178913670357,57.34126774944342,66.18711249250026,96.8300196361812,118.40894836232363,87.96349489407811
69.77205356869818,66.63453601378507,57.2231021985413,66.25048084463427,98.23822359044047,117.57322709382221,87.96795371250884
69.71758330749964,66.26329467596823,57.118541867976795,66.29179407101621,99.65932355480636,116.66697155364243,87.97249942933182
69.68564893699161,65.90559466946799,57.027696245863545,66.31086945723857,101.08723932292213,115.69198034836221,87.97714017425281
69.67597558328082,65.56276354500507,56.950699131863075,66.30762163627413,102.51587203102227,114.65031476555201,87.98190836150135
69.6882800576604,65.23601944420446,56.887685056949586,66.28206385122051,103.939104462909,113.54426881608157,87.98682698948114
69.72226293666988,64.92646882705772,56.838757675322135,66.23432186305381,105.35082484221651,112.3763511501424,87.99189337282483
69.77756073650212,64.63509258901833,56.80398927701336,66.16462952721174,106.7449896623608,111.14927993881791,87.99710895477882
69.85369433969652,64.36274536777582,56.78343652027089,66.0733036956042,108.11567765063579,109.86597459022693,88.00251207159332
69.95005643697155,64.11019927505497,56.77713650161301,65.96072778637158,109.45709993773683,108.52953890682281,88.00816647591444
70.06594512493473,63.87819998565914,56.7850860489372,65.82736105570369,110.76360055928461,107.14324132530318,88.01412665786498
70.20059949170896,63.66747665699147,56.80724021267999,65.67375194063493,112.02969587988855,105.71049677209336,88.02043250624705
70.35319755891102,63.47870719654387,56.8435365005693,65.50052703793399,113.25014027480515,104.23484731901804,88.02713451764805
70.52283473121263,63.31248887276033,56.893906127385335,65.3083634162671,114.41996238445951,102.7199313921698,88.03429974865767
70.70852650130976,63.16933686943057,56.9582528101552,65.0979760443588,115.5344566263964,101.16944233922251,88.04197797139001
70.90924224984643,63.04968433472846,57.0364397270903,64.87012854940244,116.58917660800073,99.58710011711256,88.05017144267849
71.12392965132594,62.9538585300653,57.128327531739096,64.62564027920811,117.57996481138781,97.97665216641525,88.05885112276668
71.35150369438091,62.88205369153911,57.23383587736969,64.36536807688255,118.50298919314847,96.34188194436823,88.0679959222841
71.59083470821736,62.8343445856659,57.352963795526485,64.09017878258935,119.35474537936824,94.6865938636963,88.077598865039
71.84077228917752,62.81074734511185,57.485761684511594,63.80094548608787,120.13203695617496,93.01457921337341,88.08763475937766
72.1001789353859,62.81128101558222,57.63230606516404,63.4985706371756,120.83197816151085,91.32960006109542,88.09804226908382
72.36792812099824,62.83599430350487,57.7926993366504,63.184001495137984,121.45202615555368,89.63540910960519,88.10875112281904
72.64287666693708,62.884982332945675,57.96706241788295,62.85822015428698,121.99000131652404,87.93577226437951,88.11971536132238
72.9238624437378,62.95841598012265,58.15549583024757,62.52223810356441,122.44407090245971,86.23445547656574,88.13090432932856
73.2097442362517,63.05654780384305,58.358029002924205,62.17712063432641,122.81272899906176,84.53518602701179,88.14226596647772
73.49943877230456,63.17966508387788,58.57458964339428,61.82401489709371,123.09480848897084,82.84161938136889,88.15371203358984
73.791915634738,63.32801861186696,58.80499609593243,61.4641434811547,123.28950379217159,81.15731651906422,88.16513413587101
74.08617980654763,63.50177697749349,59.04894841590026,61.09877011524738,123.39636108872887,79.48572095781955,88.17640969755705
74.3812931628439,63.70103814147536,59.30600380640336,60.72917156313618,123.41523890830958,77.83014146355124,88.18737637355572
74.67642245768654,63.92588204783956,59.575550059292915,60.35662503029887,123.34628409583833,76.19375567324998,88.19781248392447
74.97085330529069,64.17640799226349,59.856793348837,59.9823920260112,123.18994527041535,74.57962542919574,88.20746379997038
75.2639564350892,64.45273270671002,60.148756022682285,59.60768930374182,122.94699036709376,72.99069484210108,88.2160925584789
75.55516250757974,64.75497396947978,60.45027457667503,59.23366669777178,122.61848925232303,71.42976209704615,88.2234913451826
75.84398317109628,65.08323133315147,60.760011061189346,58.86141672552703,122.20577433855044,69.89944592419465,88.22945680430009
76.13003813934529,65.437547791428,61.076505939072725,58.4920062968498,121.71042143667633,68.40216976555676,88.2337773323543
76.41303827515844,65.8178527014811,61.39827009524562,58.126491357200265,121.13425897134837,66.94016359416548,88.23626395808743
76.69274192725918,66.22391085359737,61.723867568627675,57.76590106245652,120.47936956380538,65.51546287042129,88.23678259468433
76.96892876260462,66.65528875039124,62.05194293154451,57.41122388415184,119.74806028293278,64.1298935040784,88.23524157249052
77.24139172093997,67.11132466327606,62.38120107887607,57.063422198819545,118.94282571569825,62.78505810594954,88.23155639863141
77.50991751038063,67.59109703038787,62.710388867683626,56.723455220362275,118.06633739350069,61.48234033200079,88.22564285360048
77.77424946495837,68.09341336341616,63.03831041041535,56.392277693944656,117.12145181890155,60.22291932385891,88.21743821255531
78.03406313659073,68.61683984138627,63.363854113210174,56.07082082046041,116.11120077009178,59.007777650790935,88.20690468308507
78.28898312940024,69.15974913414689,63.68599236007605,55.75998376952236,115.03875648991199,57.83770786903189,88.19399862232314
78.53862158651042,69.72034867497035,64.00375788880997,55.460634379170195,113.9074070821017,56.71333529601858,88.17864650264305
78.78258929474745,70.29670313864138,64.31623376330062,55.17359377823886,112.72056346417709,55.63515182903808,88.16076624004052
79.02047276563498,70.88679572897526,64.62256448947329,54.899601678244764,111.48176774957656,54.6035337561628,88.14030906209132
79.2518261081907,71.48861423800429,64.92195668427209,54.63929228150134,110.19466841704302,53.61873177478772,88.11726578278386
79.47620928429538,72.10019506880174,65.21365466878758,54.393211711457056,108.86297738666592,52.68085267679563,88.0916334579853
79.69323660615484,72.71960268116554,65.4969210762517,54.161865958448324,107.4904508060822,51.789863642838014,88.06339862516512
79.9025827373641,73.34488951349864,65.77104953039303,53.945749966487284,106.08090126075683,50.94562774604386,88.03257039200602
80.10395277955193,73.9740843711438,66.03538743337486,53.74533682799764,104.6382038077322,50.147941219209166,87.9992217745928
80.2970667520535,74.60521370146274,66.28933165143367,53.56106492731336,103.16626944578849,49.39654162079997,87.96348551904694
80.48167477572632,75.23632761829661,66.53230566250008,53.39335788760146,101.66901084762786,48.69109931653027,87.92551941840605
80.65756562331367,75.8655158567845,66.76376408444116,53.24265480202234,100.1503358083241,48.03122532378909,87.88549524065316
80.82454233869278,76.49092419588065,66.98323624341769,53.109408198838885,98.61415894913252,47.41649511614334,87.84361765776407
80.98239389232529,77.11076949844497,67.1903602917107,52.99405146910642,97.06439302420189,46.84645864896538,87.80012626201386
81.1309029892664,77.72333819731175,67.38487019528877,52.89697646272589,95.50491167298348,46.32062963147561,87.75525974313531
81.26987906505575,78.32697252282581,67.56656146639487,52.81853996529621,93.93951920197158,45.838481629637926,87.70922488111898
81.39916967652474,78.92006661855795,67.73527788172441,52.75907062469403,92.37195349570446,45.399467030480785,87.66221349948376
81.51863914281942,79.50108976408112,67.89091810020774,52.71884878268023,90.80589795544286,45.00303605745193,87.61444309817347
81.6281518369579,80.06862222211274,68.03343060971977,52.69807595599576,89.24496570490565,44.64862840572365,87.5661625785031
81.7275812425982,80.62136144076892,68.16278850851077,52.69686585439774,87.69266326222463,44.33564728831423,87.51761688380132
81.81681849246044,81.15808819392193,68.27896722058671,52.715254429892816,86.15237041666249,44.063447779914206,87.4690253046468
81.89575623407669,81.67763567030543,68.38193706352037,52.75319814024853,84.62734504330693,43.83134412253849,87.42060585591035
81.96427337337873,82.17889388063024,68.47165753314488,52.81054916840322,83.1207224463479,43.638608323268,87.37260648309629
82.02226428238775,82.66082494100554,68.54806472798455,52.88703472421115,81.63548966269532,43.48444764260168,87.32529400009638
82.06970091390741,83.12245174982154,68.61106034668023,52.98226982612007,80.17445876202001,43.367984692355236,87.27891668799859
82.10666480862987,83.56282975335036,68.66051277922239,53.095792154685235,78.7402716661468,43.28826042424601,87.23369304860327
82.13332460556012,83.98104185167159,68.69626999676552,53.227080137538806,77.33542699765265,43.24424461229293,87.18983403542435
82.14990647588783,84.37622245793546,68.71816942672923,53.37554302378893,75.96228790313616,43.23482907752229,87.14755200338678
82.15670499408755,84.74757608516764,68.72603412327524,53.540509889018324,74.62305907372107,43.25881003733312,87.10703158054152
82.1541172530495,85.09437622162756,68.7196747774017,53.721236748242106,73.31976873640306,43.31489248186231,87.06840155054384
82.14264716005117,85.41596584683474,68.6989219327795,53.91691732003165,72.0542819010109,43.401728816250625,87.03175251364796
82.12287206093144,85.71176994107289,68.66366940640141,54.126677721356316,70.82831999292976,43.517957382531826,86.99718065744031
82.0954178332166,85.98130519518166,68.61388757738509,54.34956542153297,69.6434518295689,43.662206538014026,86.96479951855014
82.06096305357585,86.22417055527599,68.54960216729437,54.58455737888677,68.50106604525459,43.83308196966348,86.93470995832124
82.02023655154956,86.44002671494029,68.47087632216395,54.83058298487183,67.4023656572299,44.029176079807044,86.90698165912922
81.97398205528091,86.62859710843551,68.37782883712136,55.08653210615748,66.34839607150889,44.24909729641413,86.88168038464627
81.92291688048972,86.78969695159898,68.27067336699687,55.35124062114909,65.34006964537672,44.491481570601245,86.85890353298856
81.8677185832032,86.92324979156521,68.14973537705957,55.623481236285436,64.3781566150983,44.75497127672063,86.83877467497031
81.80902738281243,87.02926586199183,68.01544359267456,55.90198230822314,63.4632643911841,45.03818917718675,86.82141267127098
81.74742935291995,87.10781124364986,67.86833342189603,56.1854579101831,62.5958423617956,45.33973636986524,86.80692769897139
81.68341938960981,87.15900495493601,67.70906942597487,56.47261763631777,61.77620699838273,45.65820666411504,86.79544810640034
81.61738199488465,87.18303600248238,67.53845420595351,56.76215840075658,61.00455068691139,45.99218871503008,86.78712738378714
81.54961330875327,87.18016291966556,67.35740826962554,57.05276707014947,60.280923946235994,46.34025033537583,86.78210794903706
81.48035510597265,87.1506832594673,67.16693832836786,57.343139941479244,59.60522275821522,46.70093122398367,86.7804843232105
81.40979928701195,87.09489790090397,66.9681131042473,57.63199427728336,58.977206283402175,47.072764702412016,86.78231009876464
81.33806920791963,87.01309830131792,66.76204437575676,57.918057892961855,58.3965242862143,47.45431209893895,86.78762918840663
81.26521405470561,86.90558503885,66.54985806973279,58.20005690439884,57.86271879159737,47.84417518546608,86.79647774220305
81.19122297812916,86.77270153565249,66.33265985987605,58.47672837727575,57.37520424430486,48.24098182844062,86.80884937886286
81.11603080612494,86.61485502112545,66.11152584532586,58.74685094936667,56.933264583442536,48.64337523975013,86.82467527535843
81.03950277116498,86.43251946291163,65.88752846786011,59.0092592622844,56.536081362945936,49.05002344939527,86.8438522686215
80.96143008432853,86.22623475334582,65.66176022306955,59.26283178868991,56.182758929340764,49.45962835316311,86.86628056899923
80.88156620191076,85.99659790610538,65.4353225929129,59.50648411024245,55.87231529799844,49.87091450786149,86.89185923523343
80.79967512388508,85.7442378081206,65.20930947753227,59.73919425211505,55.6036555936655,50.28261070064355,86.92045362935744
80.71554059274476,85.46979916101392,64.98484053093614,59.96003827254167,55.37556679949622,50.693447254247324,86.95189165871298
80.62893955660861,85.1739703184745,64.76313683359889,60.16819711200335,55.18674123685119,51.10216600580392,86.98600026880212
80.53963528654624,84.85754339914486,64.54556555713867,60.36293546528531,55.035796533136214,51.507520326444336,87.0226297364534
80.44742295303128,84.52145363506605,64.33361768938477,60.543590501635975,54.92126689663073,51.90825690941775,87.06163236012252
80.35219022671545,84.1667735412972,64.12885731456677,60.70959233269165,54.841582089957875,52.30309485268206,87.1028339650905
80.2539326460762,83.79470234896995,63.93287672815662,60.86049208449804,54.79506911236682,52.69072411763587,87.14604529833026
80.15272288193397,83.40658785273833,63.74724889595259,60.99596145878085,54.77998472197266,53.069828178770024,87.19109550441638
80.04868913527702,83.00394825022012,63.573471242704116,61.11576838873755,54.79454721986111,53.43910739964649,87.23783481979297
79.94203108599345,82.58845083837826,63.412928970473985,61.21976724249505,54.83693967985827,53.79728137819183,87.28610030863548
79.83303646852802,82.16186675845307,63.26690696929252,61.30791615452123,54.9053019601684,54.14308225362275,87.3356955243716
79.7220587732787,81.72604404718825,63.13662740195203,61.38028765794103,54.9977450756745,54.4752630067808,87.38641672818791
79.60947531717245,81.28289947195903,63.023256404934806,61.43704566124484,55.1123840564915,54.792618564744885,87.43808970726835
79.49567047747254,80.83439726552648,62.9278635404492,61.478409899088895,55.24735422862831,55.09399885579016,87.49056664137012
79.38104704595776,80.38250361689714,62.85137311248621,61.50465012855906,55.40079909836912,55.378312355798215,87.5436947331638
79.26602550495579,79.92914593632781,62.79454596604365,61.516116962266025,55.57086024300037,55.64453899600988,87.59730866189021
79.15101001049929,79.47620513328953,62.75798567592236,61.5132649984078,55.755696293140424,55.89175681656341,87.65125521984758
79.03634866716924,79.025523843878,62.742135561517564,61.49663298793341,55.9535129079249,56.11916346642896,87.70540234443274
78.92232185061164,78.57889392106291,62.74725555653688,61.46680773798488,56.16256803570749,56.32607408017693,87.7596068159384
78.80915193212853,78.13802598701497,62.773402183338966,61.42442486114385,56.38115421450237,56.51190199833722,87.81368049923614
78.6970023320588,77.70453211264274,62.820437750966555,61.370211548716014,56.607595236308015,56.67615094316306,87.86740235138794
78.58596604667257,77.2799244277887,62.88806817592977,61.305016180560585,56.84027384143605,56.818430020279415,87.92056002435015
78.47608349004975,76.86560432876934,62.97587874371512,61.22978738191706,57.07765932938673,56.9384658799898,87.97296357238066
78.36739684603167,76.4628316772578,63.083343995808626,61.145533310249,57.318303305703296,57.0360895039933,88.02441799857829
78.25998693855502,76.07269415826948,63.20982186878541,61.05330266008312,57.56081948837205,57.1112123151015,88.07470698098432
78.15395749892645,75.69610655450042,63.35454551812162,60.95418040030786,57.803884560079084,57.16381911221691,88.12362529651486
78.04940125851677,75.33384013622917,63.51661342437424,60.849267107630396,58.046261307523714,57.19397899534592,88.17102129526742
77.94639107882223,74.9865446754217,63.694998482770885,60.73964130352139,58.28680849450894,57.20184958206363,88.21679289187823
77.84498830673387,74.65473923676853,63.88860669441661,60.62634282492105,58.524460187287914,57.18765866996069,88.26084876309633
77.74523486383795,74.33879536226036,64.0963631985107,60.51039964377472,58.75820228128773,57.15167547186165,88.30309260006838
77.6471247818323,74.0389450747051,64.31725898176958,60.392862287187405,58.987077608859266,57.0942037326353,88.34344487459563
77.55058781931533,73.75530857964579,64.55033159288915,60.27480113595765,59.21020857440986,57.015627978225304,88.3818550204476
77.45550888543615,73.48791301513955,64.79461683025929,60.157280449524386,59.42680102062586,56.91649745511979,88.41827455331082
77.3617594672475,73.23669972199362,65.04911649469187,60.04135064020474,59.63612440116685,56.797583625451345,88.45262749637048
77.2692004093362,73.00154253537984,65.31279073519585,59.92805798208757,59.837504207658554,56.659882024524045,88.48482018478063
77.17765952504134,72.78227304650575,65.58455160411494,59.818435711509615,60.030345889032475,56.504590058101236,88.51477060032559
77.08692633657661,72.57868244488101,65.86324116550472,59.713466402045476,60.21415880647708,56.33308086698617,88.54240641399247
76.99677785548147,72.39049573265969,66.14760834668014,59.6140485223967,60.38854681029957,56.14686284341716,88.56762818687054
76.9069975801552,72.21734937800328,66.43630848086156,59.520995753868974,60.55318155011076,55.94753080863889,88.59028936892022
76.81735979088934,72.05879217596987,66.72792370025596,59.43505254956492,60.707795688102436,55.73673371448212,88.6102252088742
76.72760816293822,71.91429079162002,67.02097670373044,59.35688981801163,60.852196487485756,55.51616089063398,88.62729401470841
76.63747145274675,71.78321625627413,67.3139247903784,59.28707585229445,60.986265805530266,55.28752177390556,88.64137900786191
76.54670742067691,71.66482259854236,67.60515428064133,59.22604891718617,61.10993281893715,55.052508685869604,88.65235769828598
76.45512458813373,71.55826073931088,67.89299797287126,59.17411048125297,61.22314755282501,54.812763454571204,88.66008538477227
76.36256624870119,71.46265650982386,68.17577026994356,59.13143013730555,61.32588151657301,54.56986617126225,88.66440580693603
76.26890440163339,71.37721338215395,68.4517957526707,59.098042646673974,61.41814095981715,54.325333553900194,88.66515387415595
76.17407786393736,71.3012629340424,68.71941937110685,59.07383997078333,61.49996214224633,54.080603532106366,88.66212781158795
76.07813386604111,71.23424767466655,68.9770057048071,59.058582115105615,61.57139036256109,53.83700727000198,88.65505775063448
75.98122032225751,71.175694758358,69.2229354660581,59.0519292334079,61.632476832407164,53.5957516705578,88.64360401788537
75.88354179826014,71.12522339185749,69.45560502319866,59.053464364189274,61.68330884392517,53.35792166096126,88.62737369621433
75.78532948158258,71.08256191318138,69.67343495787446,59.06269115783791,61.724041079711995,53.12448445437463,88.60592007444387
75.6868443295208,71.04753349467063,69.87489008972173,59.07903326644838,61.754892974856666,52.896279329020196,88.57872132775576
75.58838594007584,71.02002045703536,70.05851488843598,59.10185902922889,61.776125795151216,52.67400169689388,88.54517076375416
75.49027826756094,70.99995379677293,70.22297727159479,59.13051100820155,61.78803614397991,52.458204987041526,88.50459643393361
75.39284951709956,70.98733641012002,70.36709145709523,59.1643094973603,61.79096754874045,52.24932798759239,88.45628605595896
75.29644160168179,70.9822537871764,70.48980616413114,59.20253694718549,61.785308786679046,52.04772308238223,88.39948897095005
75.2014371581264,70.98484373496983,70.59018604906143,59.2444377541691,61.7714676915813,51.85366069253217,88.33340509441841
75.10825946702084,70.99525588131708,70.66741535992527,59.289247445881976,61.749847589979105,51.667322956455095,88.25718886092666
75.01734086027419,71.01363534971708,70.72081253896884,59.336223576293065,61.72084985167072,51.48881616486116,88.16996813622251
74.9291030370683,71.0401176481465,70.74982700406503,59.38464687806806,61.68488646119629,51.31820091940395,88.07085220724969
74.84397126267156,71.07480464959649,70.75401836759748,59.4338016473721,61.64237182415185,51.155509588659655,87.95891941835664
74.76238751247548,71.11772479337809,70.73304245926875,59.48296798483853,61.593696815486254,51.0007384904155,87.83320718611554
74.68478647755411,71.16881409192862,70.68665228537704,59.53143309060726,61.539221572741646,50.853838031755316,87.69272643131939
74.61155427210376,71.22793770018335,70.61469795509917,59.57849613825746,61.47930444486691,50.714721843480405,87.53648858759793
74.54301697873083,71.29491896422111,70.51711634697048,59.623455930582864,61.414334737988604,50.583282760569354,87.36351564449467
74.47946435331814,71.36953484856826,70.39392726940818,59.66561331760324,61.344731514284646,50.45939165577325,87.17283066272672
74.4211641915292,71.45148677425804,70.24525061631559,59.70431339038368,61.27092075457034,50.34288205608395,86.96346019233518
74.36834026856332,71.54038273325142,70.07132481980042,59.73899471828089,61.193330307761734,50.23354797503593,86.73446712086407
74.32113722994963,71.63574366069292,69.87250438722153,59.769198298889314,61.11240578837723,50.13116438929478,86.48498706872182
74.27960410371556,71.73701714891286,69.6492605910397,59.79454026829071,61.02861198078053,50.035504870429214,86.21423573228888
74.2436992259773,71.84357630006542,69.40222478094047,59.81469174017848,60.9424051650872,49.94633330462021,85.92149911767845
74.21329383843626,71.9547049562898,69.1322550817121,59.8293895499226,60.854207921706475,49.86338031832239,85.60614176508797
74.18816002046759,72.06958763811305,68.84046141594871,59.83845410021848,60.76441715618378,49.786333002394045,85.26763609471357
74.16796891031892,72.18730568194258,68.52816733359644,59.84178322982039,60.67342867797469,49.71484967056383,84.9055804994443
74.15233361179608,72.30682661614347,68.19685330199471,59.83933534741384,60.5816389635324,49.64857912222584,84.51969077199331
74.14087487267064,72.42699461038599,67.84812775765964,59.831133823058224,60.489422568875725,49.58716092369089,84.1097943248818
74.13325016158127,72.54655261325385,67.48372235315766,59.81728668178271,60.39712500592968,49.5302171198176,83.67585714634913
74.12913689464153,72.66420026597807,67.10547421598055,59.7979881523122,60.305090036558724,49.477359330066285,83.21802344806704
74.12822090044732,72.77864217478334,66.71528204434766,59.77349296566927,60.21368734105636,49.42820599403269,82.73662308216323
74.13021846624827,72.8885920392742,66.31506640793698,59.74409357456697,60.123305705877684,49.382385262531756,82.23214068245383
74.13489856612988,72.99275941192195,65.90675872844722,59.710130567134705,60.03432925674927,49.33951949472689,81.70518778956793
74.14207189784653,73.089867657028,65.49229847887719,59.6720203038308,59.94713546092053,49.29921291147398,81.15651051551346
74.15156991035445,73.1787065626729,65.07361187873545,59.63025757293106,59.862113218577036,49.26105940590156,80.58701236980222
74.16325094136634,73.25817206794886,64.65259204952739,59.58538972183867,59.77966423656492,49.224659650832,79.99775027474199
74.1770190009665,73.32726099657799,64.23111897565366,59.53799659137521,59.70017459705575,49.18962383773757,79.3899039720618
74.19281513321592,73.38504832887455,63.811105831976555,59.488687127076574,59.62398647266931,49.15556021107966,78.76476023068277
74.21058326960228,73.43069498848807,63.394514978543036,59.43808835482928,59.551398789324445,49.12207538005533,78.12372955511216
74.23024958205689,73.46349657794663,62.9833215675561,59.38681569291818,59.48268435763345,49.08879629799783,77.46835982649834
74.25172975745902,73.48293395000769,62.57946012745851,59.335449806387274,59.41808969633988,49.05538881152669,76.80031369117359
74.27493430734424,73.4886850755376,62.18479728900785,59.28454467502475,59.35781466130575,49.02155301657381,76.12133255471878
74.29974823287408,73.48061168547368,61.801138637811675,59.23464989280579,59.3020075375733,48.9870140935651,75.43322938845115
74.32600884093024,73.45875501934366,61.430244186664034,59.18630951079423,59.25079589186183,48.9515338284667,74.73790488813582
74.3535156694345,73.42332914533553,61.073829857660336,59.14003348662,59.204321699801305,48.91493200773519,74.03734297190711
74.38205876977428,73.37468475497094,60.73355599409987,59.09627343187764,59.16274167596793,48.87708768306945,73.3335720014429
74.41142439412806,73.31325721283119,60.41100709608329,59.05542305530779,59.126203236238794,48.83791675444022,72.62862945505407
74.44137674245212,73.23952668542816,60.10765772462991,59.017828374042075,59.094835385826855,48.79735333446277,71.92456121953914
74.47165356104715,73.15399176515508,59.824832109919875,58.98378206307737,59.06876197642779,48.75535373651356,71.22343307303679
74.50198737440822,73.05714291294738,59.56368962594833,58.95350460246285,59.04810590527114,48.71190705536364,70.52731430413141
74.53211925269619,72.94943027716613,59.325257463323744,58.927142127989,59.03296810936846,48.667026675919914,69.83823770891628
74.56178485868222,72.83123674447343,59.11047951803298,58.90479088097411,59.02340885424587,48.62072567019429,69.15817819884899
74.59070264135413,72.7028803114305,58.920228803035045,58.88651739025376,59.01945901515476,48.573005477832574,68.4890664397996
74.61859501845142,72.56465854072037,58.75527987561714,58.87234776685831,59.02114415075864,48.5238760801391,67.83280155187803
74.64521905038244,72.41690803018902,58.61628451404615,58.86224353334445,59.02848474610254,48.473386881914955,67.19122932614903
74.67036489450962,72.26003602852505,58.50377087279314,58.8561031081276,59.04147240443068,48.421632840094645,66.56610606188997
74.69382566956413,72.09452148805492,58.41814106286265,58.85379712551455,59.060059217329304,48.36873359753483,65.9590881445795
74.71537472357154,71.92091407156747,58.359645938691976,58.85519936180685,59.08417923411623,48.314815836463,65.3717456819863
74.73476860584309,71.73983276392754,58.32835108123123,58.86018157632113,59.113772205249475,48.260015617893956,64.80556102511382
74.75176057021682,71.55194338162502,58.324132664694716,58.8685944338207,59.148776127664085,48.204483031811144,64.26189740405086
74.76609646010635,71.35792514926553,58.34674250192998,58.88027560612773,59.18910340006597,48.1483676504708,63.74197194968151
74.77749090082231,71.15846329484685,58.395923073756435,58.89508154745287,59.23463965652755,48.0917919588423,63.24686508187771
74.78561808380363,70.95427231546223,58.47148330747014,58.91290213081629,59.285267923416875,48.034843495209714,62.77754649459935
74.79013525780607,70.74611022517938,58.573284837469004,58.933646789007824,59.34088066136278,47.97760517277491,62.33487543212766
74.79070599518971,70.53475777034355,58.70118070056229,58.95723185861062,59.40136071687882,47.92020037471975,61.91957463232243
74.7869930915442,70.3209797987907,58.854960576272155,58.983581714195154,59.46655932083821,47.862812155215735,61.53221867426384
74.77864361613301,70.1054958948947,59.034314733025326,59.01262231523492,59.536300804207336,47.805677504759764,61.17325457215283
74.76530183405428,69.88896806003568,59.23880776935362,59.04425406227291,59.610399860626686,47.74909053233127,60.84302201785297
74.7466411416613,69.67199701305199,59.46787002955704,59.07832223184898,59.68865816456091,47.69341860700201,60.54174341318741
74.72237424926165,69.45512942371656,59.720834336785416,59.11461540526229,59.77084070655569,47.63910093897997,60.26950428006528
74.69222929848638,69.2388961672639,59.99700726236745,59.152896042065244,59.856665016134514,47.586620034434276,60.02626162060413
74.65592744121403,69.0238720793458,60.295712379929064,59.19292780635257,59.94581888724722,47.536474873552244,59.811875324367776
74.61319695845374,68.81070635400518,60.61629213841027,59.23447255428044,60.037980514109336,47.48918016219601,59.62612163405029
74.56380964095054,68.60009746636167,60.95814710763132,59.27727927740064,60.13281250858336,47.445278168300426,59.4686734012918
74.5075994564163,68.39274186996289,61.32085421035879,59.32109444985514,60.229943134613194,47.40533281164272,59.339080368190515
74.44446163138254,68.18930373965068,61.70429387909671,59.36567856916828,60.32897093208414,47.369903237037924,59.236781358201505
74.37436128760639,67.9904269338235,62.108725808179535,59.41079861973744,60.429495158349134,47.33953046879473,59.16113198893601
74.29735303030574,67.79676155738588,62.5348184936888,59.45620657745725,60.531133874950136,47.314761227232836,59.11140919051699
74.21358506692471,67.60896646001258,62.98362161442464,59.501645240081615,60.633509831773004,47.29618143708792,59.086790588654374
74.12327577115175,67.42769904587078,63.45646863416209,59.546890345255036,60.7362332121327,47.284415956087564,59.08634689861529
74.02668583278849,67.25362397732722,63.95485455015901,59.5917833448098,60.838912609733,47.28009755458701,59.10906754372271
73.92412420199437,67.08742707949214,64.48039517973994,59.63621881333248,60.94118020126089,47.28384001348415,59.15388975922223
73.81598482160709,66.92980299650492,65.03500478568716,59.68011016964371,61.042694068098875,47.29622493631173,59.21969802576348
73.70276440179093,66.78142580045973,65.62125753254664,59.723378364249065,61.14311342620881,47.31778294197806,59.30530846038505
73.58504302303616,66.64293895794,66.24263045406713,59.765968438861364,61.242082121479555,47.34896278981105,59.409475837523324
73.46346671699158,66.51497236816897,66.90343490714638,59.807857243189346,61.339243833225495,47.39011225747563,59.53092528159967
73.33875298873254,66.39815044021137,67.60860055251062,59.84902872591895,61.434265976506474,47.44149232222183,59.668371111978956
73.21168697072403,66.29306399039798,68.36352140770961,59.88943795912709,61.52683832107371,47.503307240198836,59.820503806433464
73.08308648081551,66.20022828557151,69.17397834992917,59.928999677365404,61.61665261932635,47.57571516085256,59.98597548243599
72.95377028153203,66.1200669976095,70.04608122084059,59.967606415748584,61.703397976524826,47.65881647654024,60.16341686743096
72.8245695479656,66.05292510837215,70.98620237758969,60.00514370662748,61.786780266829325,47.75264321336786,60.35146998624568
72.69636283100708,65.99907616960276,72.00088894265039,60.0414802850883,61.86653442587409,47.85715372545047,60.548796444308124
72.57007979891364,65.95870999544194,73.09676534025385,60.07645610458578,61.94240971384283,47.972220520584855,60.754058097925984
72.44666011730705,65.93193161652857,74.28045547450151,60.10989440121512,62.014152405496496,48.09761874974932,60.96590807469339
72.32700902759488,65.91878738501612,75.55853253000798,60.1416222287732,62.08151675605977,48.23303639859598,61.18301333668093
72.2119886537733,65.9192839877328,76.93745184608332,60.171468171730645,62.14429302736113,48.3781019706679,61.404081094084184
72.1024324014763,65.93337118165098,78.42340626532291,60.1992386429329,62.20231411952465,48.53240043937774,61.62785676429453
71.99913963087263,65.9609063920782,80.02210872719816,60.22470518539897,62.25543322076998,48.695462075527644,61.85310742086693
71.9028430950476,66.00163434759955,81.73858458278221,60.24762052251038,62.303510275019796,48.86673997500141,62.07862702274216
71.81419145696037,66.05519206638303,83.57708716153472,60.26774021683033,62.34643336506641,49.04560702622752,62.303263268297954
71.73377331194875,66.12112292617525,85.54115877904484,60.284820103565764,62.38414706465872,49.23138609368153,62.52592898450419
71.6621466634819,66.19888081943519,87.63369427814371,60.29859834699947,62.41664855522941,49.423388027342185,62.745582938678005
71.59982995799328,66.2878396554405,89.85689432715135,60.308798735997094,62.44395853764835,49.62092130438211,62.96121338123063
71.54726761264541,66.38733909948311,92.21216008784263,60.315166709760824,62.466105237590206,49.82327431719198,63.17185742153508
71.5048058593347,66.49674571270516,94.69999180034698,60.317502737954925,62.483135484021034,50.02970183120679,63.37663778042851
71.47267983147796,66.61547560239951,97.31989733988846,60.315658513385095,62.49512546514052,50.23943045036247,63.57477240372986
71.45099162422716,66.74298399896907,100.07033608799907,60.30951053585089,62.50216514594766,50.451665346691286,63.7655526225596
71.4396807112982,66.87878159789271,102.9487258470381,60.29895157035345,62.50433039334472,50.66558009298971,63.94833226802371
71.43851631040641,67.02248836591527,105.95149318173632,60.28390982719553,62.5016761776607,50.88029702296117,64.12255335893677
71.4471309964186,67.1738636435075,109.07412507773783,60.26436399252442,62.494255781854314,51.094879124925406,64.28777809323577
71.46506790158043,67.33277831392245,112.31120551874987,60.240331812889295,62.48213449853407,51.308341887349656,64.44368726696699
71.49179671361091,67.49917120340261,115.65644729060394,60.21185783671164,62.46537759238008,51.519669805080476,64.59005662925841
71.52669657915669,67.67303135174359,119.10271398518582,60.17903530635488,62.44403670010209,51.72781860769545,64.72675238316576
71.56904735051066,67.85438879443093,122.64202275037405,60.14204815644113,62.41816620985886,51.93170899123415,64.85374879883172
71.61805689713879,68.04328587790012,126.26557229395645,60.10118551522409,62.38785690303707,52.13023676321271,64.97112892888276
71.67289959717107,68.23973846549778,129.9638382390187,60.056814567121165,62.353244732254744,52.322305751603764,65.07905245830354
71.73272691921102,68.4437119495764,133.72667889861108,60.009347030851686,62.31448515971869,52.50685573131159,65.17772592428096
71.7966643003016,68.65511741013303,137.54337388692932,59.95923223113475,62.271731094830784,52.68286359773949,65.26740932370417
71.86384568209077,68.87380688317839,141.40261087912353,59.90696516906903,62.22514434692775,52.849335421401854,65.34844004868636
71.93348575381575,69.09954748489827,145.29248746054765,59.853075487114424,62.174918911839086,53.00531680271752,65.42122956297472
72.00492489182585,69.33198588871808,149.20056431441103,59.79809313412268,62.12127745284366,53.149917437279285,65.48622927533737
72.07761137479969,69.57063562816114,153.11395452336157,59.74252200699715,62.0644430914771,53.28232312560396,65.54390851325915
72.15106146658839,69.81489830794746,157.01941080192938,59.686841562647636,62.004620922158026,53.40178537202116,65.59476885366205
72.2248474426861,70.0640895114459,160.9034110020977,59.63151647924095,61.94200242585475,53.507607336101664,65.6393630422642
72.29860859038409,70.31744085705844,164.7522905786199,59.576986046025226,61.87676982256173,53.59914504602053,65.67828083357747
72.3720452391762,70.57409526640383,168.55242597902358,59.52363856623228,61.809079594048654,53.67581764149726,65.71211642312171
72.44488735855633,70.83312898789697,172.29038974001466,59.471796363785636,61.73903772345161,53.737106767641144,65.74145850330495
72.51687664882868,71.09359164855248,175.95303775626556,59.421715456973594,61.66669601595448,53.78254343921482,65.76690530455754
72.58778581357775,71.35452382219054,179.52759611325587,59.37357953958425,61.592074274614944,53.81170736305964,65.7890666967286
72.65744181474052,71.61494394105982,183.00179317642085,59.32747961880831,61.515178172621034,53.8242550920685,65.80853522165707
72.72571279283552,71.87384175995959,186.36397336553122,59.28340068691397,61.43598948956303,53.81995259765489,65.82585435386576
72.7924704082799,72.13020294151976,189.6031321316599,59.24123722806379,61.35444577793065,53.79867787365754,65.84151677530012
72.85757259962278,72.3830395602589,192.70891644925513,59.200823416985685,61.270444036950735,53.760396091356434,65.85598328451687
72.92088147153936,72.63139160911194,195.6716652079455,59.16194492442817,61.183873029009455,53.70513735539866,65.86968479038481
72.98227961860385,72.87430699760057,198.4825052915963,59.12433136792812,61.0946391671949,53.632997225074085,65.8829992499041
73.04165400519157,73.11083390231434,201.13346758105791,59.08766674265209,61.00265920231574,53.544150596347656,65.89623934245091
73.09887396554583,73.34003407386196,203.617567054457,59.05163889414512,60.90783758448421,53.43885314558182,65.90967381823384
73.1538054315806,73.56099260042612,205.92884079485964,59.01599492459145,60.81006179383286,53.31742736714915,65.92355350989313
73.20634906242981,73.77280743750026,208.0623993503615,58.98055842803128,60.70921785824349,53.18026138910435,65.93810631245208
73.25645222375546,73.97457686029392,210.01450846711955,58.9452172177735,60.60519757652571,53.027831286630665,65.95351425622599
73.30408515398098,74.16540850318934,211.7827003186981,58.909924482193915,60.49788287458427,52.86071580368014,65.96991107116321
73.34922526278478,74.34443817470834,213.36592660614383,58.874720142854585,60.38713034575147,52.679580395605484,65.98740278883966
73.39187514048169,74.51083088282083,214.76467588527942,58.8397355956454,60.27278332573333,52.48515089299536,66.00607553350002
73.43208214446314,74.6637709948569,215.98097989797498,58.80516548060371,60.15470150487408,52.278203580203645,66.02597446643247
73.46992341035427,74.80247283214486,217.0183728827972,58.77123936854673,60.032773043478805,52.05956646675353,66.04708438242206
73.50547249568598,74.92621046712598,217.88184322735646,58.73822442746892,59.90690012225198,51.830109013775726,66.0693438764281
73.53879007736016,75.03432974180099,218.5777084780931,58.70644081382899,59.77698878311103,51.59071524256415,66.09267763279486
73.56994393202082,75.12623117807482,219.1133910922353,58.67625123032248,59.64296817119257,51.3422607755099,66.11700436571262
73.59901914802354,75.20136082217162,219.49716508659907,58.648022490575805,59.504820001792005,51.08561405082836,66.14221366011033
73.62609485320144,75.25923478312745,219.7379540612532,58.622094688781594,59.362582760988865,50.82165302217809,66.1681522667522
73.65121745925636,75.29946817752477,219.84519193574187,58.59878110010442,59.21633257993135,50.55126857028467,66.19464764609636
73.67441394383908,75.3217699852814,219.8286803424541,58.57837828618286,59.06617718236646,50.27534870649364,66.22154080295763
73.69573744891,75.32591024094411,219.69842510752989,58.561154845655764,58.9122776240069,49.99477658952391,66.24868725868164
73.71529089076012,75.3116945700252,219.46453154235385,58.547322012927985,58.75486721517618,49.71046851005937,66.2759345677189
73.73320372152146,75.27896356980867,219.13717540654451,58.5370143902952,58.594239835168366,49.423423696192344,66.30311684541729
73.74960021703394,75.2276013607045,218.72654948999977,58.53029236704707,58.43072395993442,49.13473711986433,66.33007304214463
73.76460121403723,75.15753059711011,218.24273917528316,58.52714765304433,58.264671029280905,48.84557279388497,66.35665435646095
73.77834498966541,75.06869717307683,217.69561755863398,58.527493193797504,58.09645500965206,48.5571306271453,66.38270315710851
73.79098397625185,74.96107209597164,217.0948664188539,58.53114900421567,57.926460354438916,48.27062003285681,66.40803179182892
73.80265543552113,74.83468085753242,216.4500929694432,58.53785007502684,57.75505581589039,47.98723012147803,66.43243150349716
73.81346972621603,74.68962962766635,215.77088959012102,58.547275770409485,57.58257951905849,47.708094907822264,66.45569658296654
73.82353400738084,74.52609893491784,215.06675706447135,58.55907059100248,57.409351109361324,47.434271057606175,66.4776265556612
73.83297194690796,74.34431437431097,214.34695691880196,58.572840245701585,57.23568872715413,47.16674795795293,66.49800391286018
73.8419085283251,74.14452355102254,213.6203586666549,58.5881409691501,57.06190239991454,46.90648197764321,66.51658371856898
73.85045019487524,73.92700111052761,212.8953035841327,58.60448416593596,56.88827290828217,46.65441681258978,66.5331149266282
73.85869742801385,73.69207494453326,212.17952201967745,58.62135327756647,56.715048434005865,46.41147150346158,66.54736528258623
73.86676962716554,73.44013815096213,211.48010867507458,58.63821007166857,56.54246635954248,46.17852243503923,66.55911675240063
73.8748009803667,73.17163080717671,210.80350515692325,58.65447991922574,56.37077110800852,45.95640321643317,66.56814442356165
73.8829106863955,72.88702106682375,210.15548298384982,58.66953541747674,56.20020486173626,45.7459080585061,66.57421629062993
73.89118568490285,72.58681402262295,209.54116009363295,58.68270205441273,56.03098618855019,45.54777750778956,66.57711700864157
73.89968950121946,72.27157205283586,208.9650267338038,58.69328008152547,55.863306405646966,45.36267452500567,66.57665964072258
73.90846817438315,71.94191486168059,208.43094653673208,58.70055518865432,55.69734672900467,45.191174006182315,66.57266626392254
73.91753287422766,71.59850273498354,207.94215758414987,58.70379056135294,55.53328866215249,45.03377069700026,66.56494422197548
73.92684699250788,71.2420290759687,207.50128438736334,58.702225064013525,55.3712990471317,44.89088646525784,66.55329203493316
73.93634762348546,70.87322329874601,207.11032160508117,58.69509357152839,55.21150581575463,44.76286086418972,66.5375280700944
73.94597783223688,70.49284257129291,206.770575950796,58.68164894416868,55.053991123163485,44.649937093802336,66.51750315196236
73.95568667248669,70.10165090093403,206.48261414434882,58.66116114521832,54.8988024893523,44.552269176411016,66.49308370766066
73.96539801198992,69.70041584610124,206.24628449231665,58.63290031415962,54.745957491541404,44.469949099468714,66.4641402637203
73.97499022968745,69.28993912886109,206.06084643045943,58.59613037061975,54.59543217833333,44.40302315161076,66.4305704311551
73.98431565821208,68.87108654621181,205.92515980607888,58.55012856126932,54.447156215398806,44.351492684650765,66.39233051205389
73.99323671384165,68.44477795923073,205.83782642103117,58.49421637333875,54.30103369439657,44.31534549667743,66.34943453286616
74.00163424877822,68.01195507802223,205.79723285068084,58.427774250828364,54.156970868233486,44.29464113695637,66.30192881973746
74.009388199148,67.57357982950418,205.80152397740633,58.35023941432833,54.01488088653336,44.28959052415657,66.24988317633972
74.01636995261198,67.1306753774869,205.8485366175207,58.26110912089579,53.87466967231224,44.30056189265614,66.19340670502714
74.02245688369145,66.68435832767143,205.93571302048727,58.15995300512552,53.73623496107194,44.32802400768586,66.13265336091482
74.02753629400826,66.23582294623307,206.06003386797377,58.04641577355511,53.59949031948703,44.37248170257636,66.0677970503076
74.03148236077455,65.78630504558663,206.2180136798382,57.920205018814436,53.46438690180231,44.43443073584283,65.99900260229055
74.03414018990904,65.33706204141627,206.4057605982229,57.78108898939974,53.330907482051735,44.514321489739054,65.92642584346676
74.03535294151818,64.88936134353646,206.61904356522805,57.62892805414715,53.1990470029105,44.61251810600221,65.85023471883065
74.03500900458374,64.44445890749583,206.8533388807018,57.46372001255725,53.0688092554666,44.729259169918436,65.77061389374057
74.03305523594777,64.00357023639178,207.103929434145,57.285614056449965,52.94021934129688,44.864637807396775,65.68774210100932
74.02946853796655,63.56784304386522,207.36608775558852,57.09488506421942,52.8133249418255,45.01860935940189,65.60177567429757
74.02423262969297,63.1383446455471,207.6352252924423,56.891905487717175,52.68817446347435,45.191009651835095,65.51286397375429
74.01735979987599,62.71607259688766,207.90693676001683,56.67714232852581,52.56479159191176,45.3815619476331,65.42117391363476
74.00893878871479,62.30196897788472,208.17702477492892,56.45116275053557,52.443170950189824,45.589880209747,65.3268885622896
73.99915485569417,61.8969185974564,208.44155689572816,56.21461998464304,52.323292440655486,45.81548579463321,65.23018702308184
73.98827625176192,61.50175456161751,208.69689639217196,55.968226944828814,52.20512880019797,46.05782395092674,65.13124188365788
73.97665888989906,61.11729615173664,208.93967945852506,55.71275417289191,52.08863788011837,46.31625776163067,65.03024133366286
73.96478204143185,60.744386908327535,209.16680407083086,55.449060437301746,51.97376183573433,46.59005174647216,64.92740134893432
73.9532594163116,60.383891382847295,209.3754813172448,55.17811410612369,51.86044619746473,46.878380746048194,64.8229460978126
73.94279553841176,60.03666992317847,209.56329393171674,54.90097382948712,51.748656952696344,47.180372932409675,64.71708237771912
73.93413224199648,59.70357465153902,209.72817517465265,54.61875341327178,51.638373207072824,47.49514992241492,64.61000118761349
73.92803563669102,59.385462225512065,209.86831212599,54.332609237945135,51.52956775077807,47.8218323030142,64.5018966880841
73.9253103118134,59.08318549674213,209.98205721054302,54.04374701784249,51.42220193299905,48.15953499726981,64.39296651508641
73.92679076869601,58.79755749844665,210.0679069577412,53.7534146104452,51.31623583637109,48.50739424775793,64.2833872525618
73.9332941880367,58.52932909270354,210.124525245314,53.46286777311662,51.21163126578899,48.86461477266733,64.17330054572575
73.94556616524345,58.279217571702844,210.1507576564721,53.173331318108914,51.108338803799064,49.23048687090996,64.06283497769974
73.96425353662313,58.047963451643156,210.14563089066874,52.885981149941685,51.00629038263526,49.604360083126025,63.9521375241875
73.98990204598987,57.83635368061518,210.1083640796435,52.60194448101278,50.90541830356988,49.98561417947713,63.84137568720576
74.022948964399,57.64519066163167,210.0383829626434,52.32229417282424,50.80568574973125,50.37366068741854,63.730720370977416
74.06370451422465,57.47525070836173,209.93530442671803,52.04803217115566,50.7070956406919,50.76795549211125,63.62035069400905
74.11235452553636,57.32727398858394,209.79889860007427,51.78009374008958,50.60967673605462,51.16798489060076,63.51048349780048
74.16899524577246,57.20197234717465,209.62905185840094,51.51938891863894,50.51347981455725,51.573224537006034,63.40138533937918
74.23366014743983,57.10002489680284,209.42571829339215,51.26684028931024,50.418596596008065,51.983104243480454,63.29334662816305
74.30631271675803,57.02207952718433,209.18885475210814,51.02337544405454,50.32517287291512,52.396999923043154,63.186650608267435
74.38683834801786,56.96879032782411,208.91839483123564,50.78989190390747,50.233393198322794,52.81423897866821,63.08157482458892
74.47506510823547,56.94085813717817,208.61430106503687,50.56724051114715,50.143454768006414,53.23409445390476,62.97841621908749
74.57078379500531,56.939017992783974,208.2766374767158,50.35624152334605,50.05555878234209,53.65576533853236,62.877498883880534
74.673731100861,56.963974590407254,207.90560415840397,50.15770164545386,49.969917295111834,54.07835999052676,62.77915123548627
74.78355170603145,57.01633192528771,207.5015585127911,49.972399007777554,49.88674981593366,54.50089282746853,62.68368826681908
74.89977726915278,57.09655565712491,207.0650498273445,49.801047795420494,49.80626130796373,54.922284747415304,62.59142979488056
75.02183055623198,57.204972984276694,206.59684737841138,49.644281723009605,49.72862530189339,55.34136768706895,62.50273053996077
75.14903201608485,57.341781996860846,206.097935019917,49.50266893448501,49.65399276295733,55.75693498614953,62.41797865645291
75.28059835951963,57.50705233181283,205.56947217367147,49.376727003613595,49.58251127145493,56.167858359582944,62.33756700044365
75.41565874110208,57.70073710515807,205.01274615721815,49.266911646321496,49.5143251996058,56.573199821100545,62.26187864326494
75.55330476836997,57.92270408836337,204.42912449125248,49.17359870283737,49.44955901965286,56.97223649815993,62.191297930245206
75.69263886813438,58.17274962026232,203.82001103984484,49.09708632049989,49.38831490670175,57.36441114187214,62.12621292888548
75.83278514044834,58.450573749456574,203.186849298153,49.037604437453325,49.330696005799595,57.74927241268377,62.066988721437866
75.97288931395185,58.75575257373243,202.53119107060934,48.99530452607885,49.27682639170467,58.1264358256886,62.013940131345045
76.11214771511206,59.08774885071628,201.85476552950092,48.970233346057874,49.22684154629531,58.49555368387206,61.96733699871728
76.24984285600452,59.44594443493312,201.15949009969927,48.96231953311147,49.18086480844308,58.85627947332191,61.92742823876087
76.38534027237512,59.82964510261224,200.44744544122406,48.97138807746638,49.13900177000633,59.208242074573256,61.89444466402843
76.51805508969875,60.2380482364596,199.72086517533532,48.997182926709755,49.10135457128861,59.55106138840727,61.8685734695866
76.64743533612038,60.67021895469636,198.98216436385405,49.03936855960348,49.06802794635719,59.884402378729526,61.84994054226591
76.77297870072601,61.12511866260851,198.2340097547797,49.09751378562922,49.0391135290949,60.208016014712506,61.83862700419303
76.89424877612153,61.601669103423546,197.47941147950218,49.17109162653431,49.01467511673668,60.52172972833734,61.83469651504693
77.01086035576184,62.09879150949614,196.72177404990725,49.25950949213596,48.99475828329899,60.82540909574552,61.83819419413495
77.1224541908556,62.61540283301038,195.9648486159118,49.36213776774359,48.97941131179791,61.118928236102036,61.849120657497686
77.22869512708782,63.15041224445382,195.21261889965442,49.47830565381786,48.968686960281836,61.402152736965874,61.867422532272776
77.32928420228315,63.70274082476984,194.4692010824583,49.60728030300268,48.96262380863151,61.67491892535662,61.89301789177813
77.42395157988858,64.27133359096322,193.73875993452947,49.74826947213846,48.961238493443446,61.93700503360838,61.92582309342129
77.51243043866944,64.85514448304492,193.0253908834404,49.900460998461284,48.964544445641714,62.18810610278212,61.96574657681878
77.5944537028076,65.45312245379861,192.33296588774115,50.06306648514963,48.97257066607728,62.42783375477294,62.01266678309701
77.66980548435812,66.06421877909517,191.66498511103316,50.23532960085204,48.98535323798953,62.65575113341006,62.06643178936042
77.73839400093547,66.68738898314521,191.02446941619215,50.416506290693505,49.002914071202405,62.87141623574972,62.12687805712763
77.80027736570275,67.32156938924481,190.413895265776,50.60586127745861,49.0252593964921,63.07439764323406,62.19383129595354
77.85563377859812,67.96566795886137,189.8351518088651,50.802697286308785,49.05239861137298,63.26426908909219,62.26707811616761
77.90473939638612,68.61861831772129,189.2895198366576,51.00638186807334,49.084351233595406,63.44061029198009,62.34634296274723
77.94798685550265,69.27946556144283,188.77770583365643,51.21634411818479,49.12112749787614,63.60301345278433,62.43129908502274
77.98589791788817,69.9474019150641,188.29993733112053,51.432060103248546,49.16271067440444,63.75108182057407,62.521592802234814
