HandOpen,HandClose,Wrist Flexion,Wrist Extension,Supination,Pronation,Rest
127.87214187748707,125.74480943924776,282.2452015817556,81.05662367898942,88.2483709357903,111.84964537816649,80.03222610699775
126.62891212856053,124.98130105661903,281.98257403343825,81.29164582771097,88.59954589855964,112.13489224000115,80.0349738678458
125.3807484514125,124.25217094687909,281.7658584807442,81.4613918396464,88.9808982007051,112.39645425631625,80.04938978668557
124.1262950324797,123.5613533346946,281.59508726885457,81.56733097801857,89.39125364640151,112.63341850696902,80.07550384098859
122.86426903017723,122.9126968011382,281.4703347036932,81.6111232692644,89.82936170382423,112.84517651180728,80.11330357230209
121.59346197700654,122.30990240619255,281.39170728690976,81.5945858645504,90.29390052185855,113.03141445680052,80.16275058841278
120.31276925154823,121.75643216520564,281.3594091269255,81.51966581427764,90.78343201917207,113.1920482847383,80.22375297707156
119.02122832806315,121.2554050807838,281.37375217963074,81.38844342374892,91.29634902292108,113.3271691427821,80.29613992074832
117.71802901298423,120.80954072804315,281.43507090104276,81.20314109176631,91.83085203486698,113.43706765023185,80.37968574915075
116.40249942935954,120.42115999813178,281.5436377763222,80.96610404321589,92.38494681167957,113.52233184064447,80.47415704167088
115.07410591266407,120.09217930901767,281.699597350302,80.67976423471139,92.95643422771083,113.58393273347785,80.57932099026843
113.73247794251125,119.82408448229712,281.90289309874953,80.34662620792926,93.54289636753384,113.62322378042013,80.69491076791218
112.37742406965157,119.6180003806906,282.15322569802,79.96928097112273,94.14172073433124,113.64186050613424,80.82060763820382
111.00891620657163,119.4749059319764,282.4500398117221,79.55041092939261,94.75017209153881,113.6416979066403,80.95607297609972
109.62707041108646,119.3958152255452,282.79250258521085,79.09276395943174,95.36545272579403,113.6247369022957,81.1009858187857
108.23216194569676,119.38177593147235,283.1795620086465,78.59912467429078,95.9847089171598,113.59314849523791,81.2550326733941
106.82466325057496,119.43380935277001,283.61017182290954,78.07231612711615,96.6050203801644,113.54930405045012,81.41786639865227
105.40525679303221,119.55296517845542,284.08352698997027,77.5152173859264,97.22341504434168,113.49572728779562,81.58909003805593
103.97481068729454,119.74043716752688,284.5990906371719,76.93075636035944,97.83689658602081,113.43497906208566,81.76827612334785
102.53436866299587,119.99756716488922,285.15642676737394,76.32187726140204,98.4424586181586,113.36953051448955,81.95497564218381
101.08519837708825,120.32570025722151,285.7550045893447,75.69152910062546,99.0370905944797,113.30167165907417,82.14869070424095
99.62885963095574,120.7260221885297,286.3940776562515,75.04269486080715,99.61780608957753,113.23351952879723,82.34884887257682
98.16721885871033,121.19952876042612,287.0726390624291,74.37841541342554,100.1817028812751,113.16714094073792,82.55482299934177
96.7024066366886,121.74712903118414,287.789405849542,73.70176617135509,100.72601072648841,113.1046723366847,82.76597627851962
95.23677969335061,122.3697173699881,288.5427749499063,73.01581072577365,101.2480889745465,113.04831904570123,82.98167485558461
93.77291290420331,123.06810949056405,289.3307328790572,72.32357729869753,101.74540655947405,113.00026532812537,83.2012591408368
92.31358062143909,123.84292223086403,290.15078722765844,71.62805780455538,102.21556035979106,112.96258124050065,83.4240270657631
90.86169721359055,124.69449107279944,291.00002539363373,70.93219280919956,102.65632790187104,112.93715000452497,83.64926237967548
89.42024594606511,125.62284278677578,291.875296546579,70.23883056643247,103.06569657379747,112.92561259236949,83.87627027015517
87.99223879891824,126.62772709442166,292.773349679018,69.55069471672803,103.44184311471804,112.92932958291608,84.10437162990492
86.58070546232727,127.70867533032772,293.6907960647385,68.87039118703184,103.78309675168933,112.94934694766913,84.33287195047636
85.18867315025092,128.86500435077963,294.6239563370042,68.20043234757723,104.08791814871265,112.98637245367343,84.56105965470807
83.81912303478272,130.095728940398,295.5687287216515,67.54323338627098,104.3548902382675,113.04080209217206,84.78824138819711
82.47496036644851,131.39943380547254,296.5205544362665,66.90107727395649,104.58270371593002,113.11280624911332,85.01376231611913
81.15902952935538,132.77418238317867,297.47446669079676,66.27608873839236,104.77013746666753,113.20244637755137,85.2369841664597
79.87414267149302,134.21749124719022,298.42514774450643,65.67024184305761,104.91606795050899,113.3097836939981,85.45726344349303
78.62306843449753,135.72633020838498,299.3669465311403,65.08537569819309,105.01954573652867,113.4349234870906,85.67397446518781
77.40848186573575,137.29711917322584,300.2939074592393,64.5231843665084,105.07991341533013,113.57797082825283,85.88655341213146
76.23292384722114,138.92578227791284,301.19991290567947,63.985192730529775,105.09688558679706,113.73895293403966,86.09450563219937
75.09879244190023,140.60790070434655,302.07896549590845,63.472756224456774,105.07056604012335,113.91776113056922,86.29736816253536
74.0083367760794,142.33886339826333,302.9254805586142,62.98708583640407,105.00145343096861,114.11411920945419,86.49467900748175
72.96362552455413,144.1139036985798,303.734410876098,62.52925885407081,104.89046207565929,114.3276066926802,86.68599080884766
71.96650776533622,145.9280394444441,304.501182855912,62.10019742634249,104.73892675862271,114.55777062932172,86.87090006520056
71.01859970292796,147.77599105211374,305.22157712640654,61.700647885705486,104.54857577535265,114.80428031150356,87.04904220015018
70.1212937001743,149.65212031474036,305.8916450788855,61.3311943616431,104.32149849306509,115.06703476610417,87.22006045571345
69.27575382865163,151.55039339896692,306.5076495360209,60.99228970287651,104.06011478306576,115.3461767162727,87.3836019116557
68.48288469053885,153.46435168817786,307.0660126233173,60.684262577403224,103.76711522868904,115.642031028684,87.53935196876188
67.74330383220976,155.38708421888438,307.5632893032613,60.40729752535204,103.44536680546587,115.95503114245707,87.68705518192544
67.05734788163906,157.31122343147703,307.9961649571252,60.161424556654225,103.09783266571505,116.28569235317161,87.82649110237887
66.42509903948965,159.22900849931395,308.36143845072075,59.94653690022494,102.72755474095459,116.63462449469722,87.95744630316268
65.846396131717,161.1324238812064,308.65598277391655,59.76241015200004,102.33768216529958,117.00253660162521,88.07973076598891
65.32082687385615,163.01334245494945,308.8767413965884,59.60869526681562,101.93147082927733,117.39022720475788,88.1932185202263
64.84773050639267,164.86361495083432,309.0207888708973,59.484904673527915,101.51221745256075,117.79856887992636,88.29785449661046
64.42621831091144,166.67512099096277,309.08537446626974,59.39043148068346,101.08317561376857,118.22845387298499,88.39361832655607
64.05518545436303,168.43980907727732,309.06786969441066,59.32459709496093,100.647506670341,118.68069289928212,88.48049748284369
63.73330225790121,170.14976694498395,308.9656726514768,59.28667753469274,100.20825418804912,119.15593877435629,88.55850533893755
63.45901075715651,171.79738143109427,308.77620446944894,59.27588636331496,99.76830337387499,119.65469772541458,88.62771076606289
63.230551369465786,173.37554648395755,308.497044085183,59.2913496824792,99.33032675817546,120.17740431646273,88.68823148536623
63.04600551902215,174.87778076647487,308.1260776255273,59.33210999346576,98.89675968360343,120.72451664938433,88.74020549136009
62.90331988115195,176.29820012403215,307.6615439738438,59.39714702770393,98.4698414505852,121.2966134597099,88.7837925795868
62.800304839172874,177.63141535937476,307.10200755148145,59.48537952605904,98.05169682206197,121.89443654725098,88.81920837119408
62.734636231984744,178.87244090562245,306.4463121748603,59.59564544685861,97.64439068342867,122.51882209236555,88.84673545318049
62.703886501858314,180.01668223544573,305.69350821847934,59.72669658622255,97.24994800007849,123.17055320934541,88.86668565438062
62.70557066456246,181.060037665223,304.8427560981549,59.87722562515346,96.87038482828166,123.85020638962642,88.8793582788403
62.73716958397698,181.99905902832785,303.89323261566295,60.04589543518125,96.50773375190259,124.5580382834542,88.88504411783106
62.7961246857714,182.83105791746542,302.8440989564008,60.231337699295445,96.1640084297781,125.29392847894562,88.88405957385474
62.87983801495099,183.55409172906528,301.69468969309924,60.43213404403376,95.84112036995906,126.05735642522845,88.87675408618097
62.98569709008857,184.1668514925786,300.44500759338035,60.64681758746814,95.54081318689944,126.84738028965667,88.8634773196297
63.11110057153879,184.66851934415453,299.0962501849633,60.87390042800396,95.26464569944389,127.66263072079995,88.84455416316038
63.25346012512821,185.05864940584888,297.6509928862475,61.111892243352244,95.01399054079792,128.50135205318568,88.8202999994616
63.4101963108254,185.33708910771526,296.11302799447463,61.3592902460383,94.79000362543175,129.36146708372397,88.7910433879847
63.578764406615996,185.50392875582838,294.48712014269825,61.61456875642737,94.59357150649858,130.2406039115731,88.75711281454389
63.75670709582505,185.5594566130054,292.77881372286413,61.876202030458856,94.42528059158484,131.1360680744997,88.7188019283822
63.941688063505524,185.50411644732554,290.9942526687227,62.142706156955974,94.28542682860741,132.04480228405677,88.67636240953873
64.13148243598339,185.33848914874955,289.13997495048966,62.41265611825374,94.17403538711821,132.96340104569535,88.63003146018833
64.32395677728182,185.06330397877798,287.2227261604575,62.684669006628965,94.0908594577259,133.8882240606161,88.58004564821
64.51707745485322,184.6794501457094,285.2493366419515,62.957392284726886,94.03537572508229,134.81555841850613,88.52661412563296
64.70893724258569,184.18796584711097,283.22663827169345,63.229525495618056,94.00680756307649,135.7417153269077,88.46989168740936
64.8977613503523,183.59001644889196,281.1613820956264,63.499851144513485,94.00416504320434,136.6630222772897,88.40999879939326
65.08188512072985,182.88688520619013,279.0601605549044,63.767235927201774,94.02626937347264,137.57577348632464,88.34706866363092
65.25973914321378,182.07997889066223,276.92935725063035,64.0306097275011,94.07176091517199,138.47619327521662,88.28126174864538
65.42987110760491,181.17082479889086,274.7751246704938,64.28896323891365,94.1391187989954,139.3604106562009,88.21273858685741
65.59098323950809,180.16104388795182,272.6033569957719,64.54137176855508,94.22669962445302,140.22444503577995,88.14164623760942
65.74194092840982,179.05231755076443,270.41962343500956,64.78700676842992,94.33276618662757,141.0642385113713,88.06815147865923
65.88174958363265,177.84637749146637,268.22907461204807,65.02511407138223,94.45548957711671,141.8757522799424,87.99247847729072
66.00953890086232,176.54502717171394,266.0363715433277,65.25499061614408,94.59295513292118,142.65509214299024,87.91489983011752
66.12457055644995,175.15017096008359,263.8456694630768,65.4759943100408,94.74319621621768,143.39861302298635,87.83570155922013
66.22623960216303,173.66386069713906,261.66064857038134,65.68757084080332,94.90422288903035,144.10296580223613,87.75518132685889
66.31404811740141,172.08847413631824,259.48455621466735,65.8892557383621,95.07401136284007,144.76508012909326,87.67368350678794
66.38757542601275,170.4270670599083,257.32022537272496,66.08064679385205,95.25047542117055,145.3821113848006,87.59161247193843
66.44647928502157,168.6836766662332,255.1700541545904,66.26138306130248,95.43146156471722,145.95137741249331,87.5093955724426
66.49052077504925,166.8633780578547,253.03596250892386,66.43115110757583,95.61477689597085,146.47029559497412,87.42744006230546
66.51957293605217,164.97222541971598,250.919372960367,66.58969372992934,95.7982176399134,146.9363345308963,87.34613337441267
66.53360112449138,163.01725530403274,248.82123641912057,66.73679315009826,95.97956719191765,147.34698996745988,87.26587172923348
66.53265074114618,161.0064765102421,246.74206622019142,66.87224448806835,96.15657987093152,147.69977500138623,87.1870625972148
66.51687170121147,158.94873345198093,244.68195855151473,66.99585656984371,96.32699972224304,147.99220749078327,87.11008951002013
66.48655609055594,156.8534972469994,242.64062472656778,67.10747989986909,96.4886267782037,148.2217923293498,87.03528915395216
66.44214216201006,154.73066453350341,240.61743526857944,67.20702053509785,96.63937757895329,148.38601505214,86.96297371656227
66.38417803567323,152.59036358271382,238.61143642066764,67.2944188789163,96.77730104310385,148.4823665122524,86.89346094003147
66.31328470746129,150.4427528084398,236.62132638665895,67.36962483958106,96.90058030128874,148.5083960120542,86.82706415382762
66.23014856726464,148.29782287757467,234.64543165378663,67.43260674330034,97.00755167450683,148.4617617584868,86.7640622707908
66.13552694126918,146.16522701291566,232.68175168749303,67.48338261299241,97.09672016170823,148.34025255281588,86.70470759209907
66.03023293164249,144.05415829424092,230.72809072104158,67.52203051468999,97.16674462361142,148.14178657940158,86.64927421678716
65.91509948856876,141.9732653251445,228.7821884318847,67.54866601255188,97.21640964284484,147.8644056184022,86.59808426315716
65.79095325566827,139.93057630862486,226.84175967813164,67.56342062913608,97.24462700999258,147.5062720069685,86.55147754513183
65.65861132310867,137.93341719079626,224.9044689077082,67.56644951643021,97.25047170074211,147.0656830720242,86.5097683696224
65.51887925586404,135.98833540193453,222.9679122408838,67.55795170286405,97.2332029982424,146.54114150650457,86.47324255546484
65.37253164174088,134.10104105178317,221.02962310279983,67.53816919619243,97.19223858257588,145.9314853200227,86.44218179259603
65.22029172673673,132.27636610442966,219.08707685214767,67.50736825892182,97.12711669872449,145.2359989706993,86.41686127236615
65.06283506545502,130.51824009235887,217.13769522936246,67.46583865558074,97.03750034315145,144.45444001276866,86.39750943634324
64.9008065044522,128.82968772513078,215.1788734933634,67.41391769818036,96.92322015768701,143.5870416185955,86.38428021070955
64.73481878655926,127.2128653977355,213.20802086162308,67.35200087518032,96.78429843926526,142.63461656005126,86.37727511431073
64.56543173035077,125.66914881746857,211.22257816154337,67.28051677102627,96.62093017905366,141.59876231975062,86.37658297542954
64.3931479127708,124.1992420230529,209.22000474838148,67.19989558380622,96.4334677694073,140.48199958848056,86.38228241755826
64.21844345877489,122.80325030830659,207.19776518412644,67.11056640355567,96.22244358878406,139.28776498505394,86.3944112162628
64.04180081162644,121.48069929467069,205.15334802464213,67.01297393793293,95.98859432409094,138.02041565108257,86.41295577151543
63.86370582407765,120.2305327925728,203.08431259972178,66.9075792412915,95.73284542751688,136.68534946619727,86.43787618383355
63.68462144874967,119.05112610705558,200.9883248162454,66.794837872546,95.45627269935547,135.2890768182205,86.46911976044076
63.50497719104721,117.94033847481688,198.863159679628,66.67518749597001,95.16008237794904,133.83908941410127,86.506591961621
63.325184355416624,116.8956072482153,196.70669244735555,66.54906480112669,94.84561083898528,132.34362509352295,86.5501222878195
63.145647975669846,115.91405196248144,194.51690774165135,66.41692586311645,94.51430506029762,130.81151760505915,86.59947438113464
62.9667519940718,114.99255808143477,192.29192449979678,66.27923777822188,94.1676724145671,129.25216476576276,86.65438695881126
62.788833983993804,114.12784258699577,190.03001305862867,66.13645429216176,93.8072465512943,127.67547597591972,86.7145891255505
62.61217944247115,113.31650141462734,187.729597735566,65.9890148058438,93.43460740403624,126.09169809154122,86.77977557390449
62.4370347711189,112.55502548709863,185.38926572801077,65.83737167800179,93.05142079971121,124.51122800060942,86.84959096291156
62.263609725457044,111.8398112288526,183.00779513082867,65.68200544702604,92.65943702119172,122.94463499600954,86.92366057117454
62.09205785913976,111.16723833692399,180.58418344056076,65.52340483326898,92.26044450518224,121.40291523867155,87.0016336931808
61.92245985689795,110.53382620009117,178.11765493321656,65.36204296761495,91.85622541177815,119.89767598249217,87.08318466531477
61.75483166257413,109.93637177518865,175.607654545843,65.19838575067244,91.44854255530883,118.44100863194475,87.16797792975117
61.58914220696105,109.37203782821332,173.05385340578843,65.03291747138866,91.03914466571864,117.0451549463508,87.25565705405748
61.42531271684659,108.83851108308167,170.4561742530254,64.86614224678013,90.62977143014406,115.72216293383534,87.34588060006625
61.263197273735656,108.33426383276404,167.81481601710428,64.69855470079361,90.22216320416945,114.48360149322164,87.43835334337696
61.10256975278255,107.85874741772236,165.13025478257896,64.53061529534465,89.818076037364,113.34033650818556,87.53281032766863
60.94313335549898,107.4123843464452,162.4032231446218,64.36275482383793,89.41927386872784,112.30236637797358,87.62899125287437
60.78453888915011,106.99641094749877,159.63468623078336,64.19538747646712,89.02747886609171,111.3787020278264,87.7266584646181
60.626388408301736,106.612665138465,156.82583140795887,64.02890373225388,88.64430485157061,110.57726110228195,87.82563732247698
60.468228407184405,106.26337401427682,153.97807502931857,63.863658836807396,88.27121904520729,109.90475950831495,87.9258175997399
60.30955891622402,105.95100221932266,151.09306846650665,63.69999526123514,87.90955151874962,109.36661128566176,88.02711392428931
60.14986306478689,105.67818581708067,148.1726847386959,63.538291667795455,87.56052075878345,108.96685227256097,88.12944410330924
59.98862943883255,105.44768074958117,145.21899019673418,63.37898627458458,87.2252380043321,108.70809313459498,88.2327478748934
59.825350579077586,105.26225225070657,142.23422549224247,63.22255432334417,86.90472063560918,108.59150520488178,88.33699768502139
59.65951775579781,105.12452251140185,139.22085604549977,63.069479700807115,86.59996566798445,108.61683913283778,88.44216605088344
59.49063488531191,105.03683562676495,136.18178434059988,62.920260432853475,86.3120434513694,108.78247132089932,88.5481881348585
59.3182406513085,105.00117011339162,133.12069537010672,62.77543247458304,86.04211967258362,109.08548330265167,88.6549741827147
59.14191240965409,105.01908547618551,130.0423084274743,62.63556759924598,85.79139540973122,109.52177358088937,88.76245826065531
58.96125107678012,105.09166919359146,126.95236791992367,62.50123807605996,85.56104517118287,110.08616541753415,88.8706173759983
58.77587675338334,105.2194773216607,123.85745057715762,62.372987607860985,85.35221486567409,110.7724770002034,88.9794374821995
58.585457140100914,105.40250140240892,120.76473567506554,62.25133659621602,85.16606217818074,111.57356905858212,89.08887748328509
58.38974768077692,105.64019997724823,117.68179628602327,62.13679786127165,85.0038015001415,112.48140239181578,89.19887897910527
58.18860351881109,105.9315974390109,114.61641595797843,62.029866889716885,84.8667596072877,113.48711332724625,89.30939721002912
57.981962045699426,106.27539646757614,111.57644009906399,61.930997285116696,84.75643848431723,114.5810942074279,89.42039865282385
57.76983321655905,106.67003858156886,108.56969041362659,61.84060128334171,84.67453126427013,115.75306918356962,89.5318271060146
57.55231375895883,107.11370641870298,105.6039447092025,61.759078040029145,84.62287467543715,116.9921746077557,89.6435927481562
57.329597246207,107.6043054164355,102.686921089535,61.68682724601312,84.60339506575113,118.2870696021493,89.75560183434419
57.101955869996154,108.13945428092856,99.82621048033413,61.62422546125511,84.61808094032747,119.62609256994091,89.86777612292802
56.86971112795785,108.71650010604364,97.02916838197024,61.57159424596191,84.66895199996286,120.99745319736923,89.98002444545018
56.633222997523035,109.33255466674804,94.30280334636544,61.52919320571605,84.75800069254521,122.38944895148224,90.09220269116948
56.39289568800638,109.9845225203304,91.65368606759338,61.49722839873205,84.8871209646387,123.79068748790436,90.20411682592294
56.14917212120323,110.66909545761068,89.08789114967321,61.4758433952137,85.058044632672,125.19025153394547,90.31556157785016
55.90250802191951,111.38271833108914,86.61096775822999,61.46508895489133,85.27228275796746,126.57775357127403,90.42633706920502
55.653352949720535,112.12155407484416,84.2279174545326,61.46490553759977,85.53105634210787,127.9433077342406,90.53622211844161
55.402164393714486,112.88147271242643,81.94316114805335,61.475142026992046,85.83521668528219,129.27748246506857,90.64495154466326
55.14943881935275,113.65806658726619,79.760502066463,61.49558508928681,86.18517979834357,130.57127222538384,90.75223943488731
54.89572086973044,114.44667489306788,77.68310512614153,61.52596129194607,86.58090340570713,131.81609320777662,90.8578192320044
54.64158786585423,115.24240283826352,75.71349595980864,61.56592095249821,87.02190433370977,133.0037841752795,90.9614451166555
54.387646578954076,116.04013710084838,73.85356190058882,61.61504468139514,87.50727572541413,134.12659543556288,91.06285825139625
54.13455517173787,116.83456670295472,72.1045476417397,61.672878157142925,88.03567843311323,135.17717435883657,91.1617734415843
53.88303528323586,117.62020906764296,70.4670703446428,61.73895444465397,88.60533014028337,136.14857047329744,91.25790480111044
53.6338484101499,118.39143296869243,68.9411874644567,61.81278222478385,89.21401867784158,137.0342670579091,91.3509831440418
53.38775838854486,119.14247720009958,67.52650743531403,61.89383190613175,89.8591267288914,137.82821620079352,91.44073084871216
53.14551578912854,119.86747936763453,66.22228232255182,61.981554153505854,90.53764359027568,138.52485096887963,91.52682929609604
52.90786722115143,120.56053906928547,65.02743921887348,62.075414016798135,91.24617049706472,139.11907901112068,91.60892975713033
52.675558641032694,121.21581671447544,63.940571961606175,62.174898468356105,91.98094836191031,139.60628377894315,91.68669701779622
52.449313101691224,121.82762548241087,62.95993506945701,62.279495873478766,92.73791264854735,139.98234266367177,91.7598266926218
52.22980278882705,122.39048257154347,62.083447951219625,62.388689216249446,93.51274350768281,140.243641415876,91.82801651334721
52.01764290746471,122.89913962104653,61.30869372389852,62.50198018471593,94.30089076157306,140.38706871734007,91.89094227996061
51.81340177988402,123.34861847246395,60.63291080251602,62.61890835997954,95.09759825656295,140.41000826958174,91.94828356689334
51.61759910856558,123.73424032333484,60.05299459591859,62.73903464005781,95.89796125644855,140.31035410494164,91.9997698190181
51.4306857061261,124.05163670640172,59.56551814330795,62.86190862949467,96.69700648430336,140.08654135275532,92.0451869957832
51.25302909033304,124.29676929691061,59.166757304257644,62.987059429278155,97.48974970610537,139.73755817761946,92.08434454629607
51.084922059210925,124.46598187667392,58.852704608130345,63.11401547358205,98.27121632059541,139.2629258354594,92.11705945573239
50.92659747451375,124.55605438699031,58.619079163954765,63.24231890313727,99.03646178822859,138.66267128185092,92.143181176132
50.77822407367668,124.56421520333906,58.46135430900767,63.37151113486185,99.78062058355388,137.9373185039088,92.16261290262294
50.63988842212637,124.48811540307801,58.37480613752587,63.50111523911431,100.49896022224236,137.08789251277142,92.17529370420046
50.51159546572288,124.32580453187748,58.354557986433655,63.63065247688218,101.18690402272111,136.11590995144695,92.18117701819406
50.39330260322936,124.07573413438257,58.39560125215279,63.75968223906988,101.84002921513695,135.02334882884023,92.180252300992
50.28495699209235,123.73677598954686,58.492804953352454,63.88781784061398,102.4540784481971,133.81261344748756,92.1725871216774
50.18650139488755,123.3082224367255,58.64094169532583,64.01470441982346,103.0249987018812,132.48650517014048,92.15833095621213
50.09786318032322,122.78976265080088,58.834736451036136,64.13999755926247,103.54897910889505,131.04819408544313,92.13767836559693
50.01896849462212,122.18146196758924,59.068912211463854,64.26337171315157,104.02246020631267,129.50118469660444,92.11084714681029
49.949783071130426,121.48376199428932,59.338209583428444,64.3845364232406,104.44212761019566,127.84927867732775,92.07809464422667
49.89033406218069,120.69748418553097,59.637392805155244,64.50322690379822,104.80492075480954,126.09655160281196,92.0397281780131
49.84069006253295,119.82381292454532,59.96127154428267,64.61917860450254,105.10805894296868,124.24735991613704,91.9960742846936
49.80093195179175,118.86426545649411,60.30474494416511,64.7321243605265,105.34905736209133,122.30636443649136,91.94743869353482
49.771147873565745,117.82067630738075,60.66284229264791,64.84182019215997,105.52571875476514,120.27853304350712,91.89410644303672
49.75143931849656,116.69520034186482,61.03073833449221,64.94806030437584,105.63612415070946,118.1691109447785,91.83637422228857
49.74190784489001,115.49030731289655,61.4037590246579,65.05065779948907,105.67865152028953,115.98358715773858,91.77456062679882
49.7426267684397,114.20875130921524,61.77741229437925,65.14942251771356,105.65200976802205,113.72767754645446,91.70897448905365
49.753636170363166,112.85353343155045,62.147444887654544,65.24417822713107,105.5552485091085,111.40730661143236,91.639886248273
49.77497626691936,111.427881873498,62.509884041122845,65.33480971136636,105.38773693651964,109.02856906924713,91.56754349397575
49.80671939173054,109.93524473939661,62.86103789356183,65.42128678583397,105.14914667539351,106.597686053296,91.49220429140239
49.848961242638424,108.3792716613614,63.19747830820279,65.50364230181937,104.83945959050116,104.12098130060885,91.41413486091452
49.90178915786705,106.76377829208602,63.516041595966826,65.58194230208342,104.458977257015,101.60487426425244,91.33357291662854
49.96526848837182,105.09271462195933,63.81384680216675,65.65628952223207,104.008303968234,99.05586420362715,91.2507084665282
50.039450085590126,103.37015281775557,64.08830075363372,65.72684628164407,103.48831518865703,96.48049940916538,91.16570307440803
50.12436768630933,101.60028146492718,64.33707835322473,65.79383400524294,102.90014540953833,93.88535374963944,91.0787070275315
50.2200133057741,99.78738591797688,64.55810559233477,65.85750657462465,102.24519840524641,91.27701716618607,90.98984255405882
50.326318852809955,97.93582295897794,64.74956643947922,65.91813483589928,101.52514577295536,88.66207820344339,90.89918633012111
50.44317001210542,96.05001904498822,64.90991401516807,65.97601372584427,100.74189707903139,86.04709073748079,90.80679359115413
50.57043434300518,94.13449313935959,65.03785887028843,66.0314604855812,99.89757116960608,83.43855360273363,90.71274021468759
50.707965300553084,92.19386399552525,65.1323414308443,66.08478556817445,98.99449939494407,80.84292727155547,90.61712860720958
50.85558073088586,90.23281780246842,65.19251701057694,66.13626398234344,98.0352445105441,78.26666153569346,90.52005972094615
51.01305263476372,88.2560626178819,65.21776118980787,66.18614056154254,97.02259678707608,75.71618657818324,90.42162462814748
51.180124498628,86.26830388821953,65.20767257862502,66.23465634865009,95.95954774185617,73.19785889189768,90.32193237917042
51.3565266169,84.27423715237506,65.16205384049351,66.28205315789346,94.84927879158778,70.71789343682649,90.22112688050842
51.54196190860077,82.27852913027516,65.08088406229108,66.32854751554468,93.69517361099767,68.2823146092649,90.1193594120395
51.73607945424154,80.2857789480182,64.96431010989953,66.37431272114526,92.50081611539773,65.89693215516618,90.01675290291239
51.93847158168197,78.30048280921407,64.81265915143817,66.41949591525882,91.26994960446204,63.567319003493985,89.91341009445225
52.14869597893732,76.3270204340428,64.62644273189571,66.46424420901573,90.00642412895178,61.298771010215255,89.80945494888745
52.36628905399027,74.36965036594069,64.40633459808916,66.5087011889388,88.71417147855229,59.09626081544138,89.70504749222945
52.59075936254308,72.43249236881276,64.15314356299044,66.55298052788187,87.39720522072372,56.964412314431165,89.6003532514024
52.82159241008552,70.5195011897542,63.8678076911371,66.5971560669067,86.05960642225081,54.907497816083605,89.4955197584233
53.058280254372846,68.63445580044372,63.55140136191514,66.64127827970846,84.70547930320694,52.92943184799245,89.39070378468355
53.3003406391597,66.78096877802663,63.20512655530886,66.68538262363683,83.33891138624485,51.03374598798257,89.28611604666588
53.54729718308462,64.96249029641979,62.83028286002059,66.7294679928609,81.9639721236545,49.22356321803452,89.1820224483899
53.7986404746894,63.18228870082122,62.42824041414126,66.77347326633009,80.58473102006067,47.50159926089765,89.07870299522229
54.05380885763977,61.44342466850661,62.00043293511755,66.81728757672114,79.20524934096733,45.87018738932528,88.97642709176834
54.31219965046206,59.74874840965377,61.54835795341648,66.86078309820853,77.82954009803686,44.331292820518236,88.8754736463083
54.573183278728195,58.100920663296286,61.07356534540056,66.90382720605626,76.4615377981506,42.88650073458684,88.77615351503147
54.8360934647436,56.50242558225649,60.57764169667784,66.94626473901621,75.105101380802,41.537003292642716,88.67878995625328
55.10020475896251,54.95555597097674,60.06221148252241,66.98791357193582,73.7640208104487,40.28361114615369,88.58368246823343
55.36473029106721,53.46239091606526,59.52895090445902,67.02860188876487,72.44199313680916,39.12677718276843,88.49110916100904
55.62884807356473,52.02479221147869,58.97958719148294,67.06821024870193,71.14258211970227,38.06660522417631,88.40136446230338
55.89172611447137,50.64441413294417,58.41587361843116,67.10667303636326,69.86919965663277,37.10284374970164,88.31477297090812
56.15251895091896,49.322701302790406,57.83956252612127,67.14395724291553,68.62511115405363,36.23489044237804,88.23165539584055
56.410346664122784,48.06086765855796,57.25240149403912,67.18006681186633,67.41342853091005,35.46181854271483,88.15229565488421
56.6642894271432,46.85987745397195,56.65614719393134,67.21507246197861,66.23707567101506,34.78240338528761,88.0769585308061
56.91341101948895,45.72045091292171,56.052567085349885,67.24912026966516,65.09875900279857,34.19512779981881,88.0059333814429
57.15678734647386,44.6430894098365,55.44341632473837,67.28239817844613,64.0009749614936,33.698176709516694,87.93954062171339
57.39351176234915,43.62809274931037,54.830409289269944,67.31509430734174,62.946035728260355,33.289447708972375,87.87809344780473
57.62268586166036,42.67556023645835,54.21520519501413,67.34738626018677,61.93606983227035,32.966584166696094,87.82187271329184
57.843424600593316,41.78539734391634,53.599402625172516,67.37945444042204,60.97299228949389,32.72700707056436,87.77114846835572
58.05487765128818,40.95733687181281,52.98452762233798,67.41147992151747,60.05848098954184,32.56792323249981,87.72620737730469
58.25624007401597,40.190952891110655,52.372015946468096,67.44361485859453,59.19398135944609,32.486318543761044,87.68733811606474
58.446741081144275,39.48565488545868,51.76320703439592,67.4759600171137,58.38071752481856,32.47896531671824,87.65479598890171
58.62563610959373,38.84068223931183,51.159357542344786,67.50857725967342,57.61968111334211,32.542458899298325,87.62880132291501
58.79222895175298,38.25511998650278,50.561656446035585,67.54151386213762,56.911605979524246,32.67326386062311,87.60957116134973
58.945910150291795,37.72792461118456,49.971221127501636,67.57480005767204,56.25696404939644,32.86774141075783,87.59732787531921
59.08617204594339,37.25793376989373,49.38908115596986,67.60842452682219,55.65599575323632,33.122166645823626,87.59225993788957
59.212591429589914,36.84385703325468,48.81617808041225,67.64232513343582,55.108744920910915,33.43276513034477,87.59447999018077
59.324811317061766,36.48426972990034,48.25339485092998,67.67640423774293,54.61506519141205,33.79576179151864,87.60402835639839
59.42254164424485,36.17762326817204,47.701589955241104,67.71053635843559,54.17460973224736,34.207404721179486,87.62090418068667
59.50556045180544,35.922258728116454,47.16160390844712,67.74454905485817,53.786837358496314,34.66395436487199,87.64506945346317
59.573695500243616,35.716406382639626,46.63424276806604,67.77820537090575,53.451033608213585,35.161665751689945,87.67641829466088
59.6267981988675,35.55817566484643,46.120267958534534,67.81122259977751,53.16631797309978,35.69678796799328,87.71476182491396
59.66473852423428,35.44555583387921,45.620401718460805,67.84331391456244,52.93163568721888,36.265577174303615,87.75985576368845
59.68742798228132,35.37643623396126,45.13532855104189,67.87420678002167,52.74576514164565,36.864303919534,87.81143065616584
59.69484281361587,35.348629891299325,44.66567795834943,67.9036259773461,52.60735015893911,37.48925078459324,87.86918218543501
59.68702134063805,35.3598806071549,44.21200116897738,67.93127812152267,52.514924530351394,38.13672043985332,87.93274361857229
59.66404751261683,35.4078572758223,43.77476400627452,67.95686437246323,52.466905989897036,38.803064896298025,88.00169121512089
59.62604956382462,35.49015630639133,43.354358530666495,67.98009943210941,52.46158473763797,39.48471361027378,88.07558219641092
59.5732145041005,35.6043221388545,42.951113466238354,68.00070582378721,52.497145797850344,40.17817692370973,88.15397234930225
59.50579057396647,35.74787105978031,42.56528887241048,68.01839379579664,52.57172090880046,40.880037759554014,88.23639099753304
59.42406555762362,35.918299666226886,42.19706785097201,68.03286263824185,52.68342226646888,41.586962500963885,88.32232025604856
59.3283455030896,36.11308346553105,41.8465672944949,68.04382854442896,52.83033453332961,42.29573319496728,88.41122410641027
59.21895917459096,36.329686647293535,41.51386348989822,68.05104263294574,53.01050076477272,43.00326992288625,88.50259923476942
59.09627622054258,36.56558739619475,41.199003558035784,68.05427690649871,53.22194324833327,43.70662577694743,88.59598571521316
58.96070786897197,36.818299130828905,40.901990392496835,68.05330594530699,53.46270495815194,44.40297431024621,88.69093414804587
58.81268693882274,37.0853718491298,40.622762250368815,68.04791888925905,53.73086408190453,45.089613938797626,88.78698604622566
58.652659046017966,37.36438254923163,40.36119006189326,68.03794833614502,54.02451090559587,45.7639897374682,88.8836950544637
58.48110743955335,37.652938222913015,40.117088095225164,68.02327404775927,54.341727471187724,46.42371559454634,88.98064795172587
58.29858772346852,37.94870251514569,39.89021724780442,68.00379435040915,54.68060201221617,47.06658089306917,89.0774473197433
58.105732568323006,38.24942757621979,39.68027730994179,67.97940388959933,55.03925654261242,47.69054395388206,89.17368422211536
57.903227818914644,38.55296466800742,39.48690762453155,67.95000527001193,55.415848843100775,48.293724590886576,89.268946564879
57.69179809246825,38.85725586931501,39.309706835216275,67.91553189422322,55.808556252536,48.87439396604722,89.36284954163035
57.4722187188162,39.16033296165843,39.14825477476502,67.87594607139334,56.215581895905736,49.43095382458867,89.45503860499636
57.245326815318506,39.460334631649076,39.00211651210182,67.83122236788458,56.635186723576666,49.96191658807914,89.54516291223459
57.01200455914485,39.755523385586955,38.87083625617001,67.7813606204341,57.06570400390975,50.465912590660785,89.63286942598891
56.77314919459146,40.04428494769954,38.75394613052447,67.72643399062919,57.505515670493516,50.94172862152458,89.71783510795392
56.52966207493151,40.32512414082201,38.6509922226252,67.66661986537709,57.95302802415619,51.38834144330172,89.79978886033565
56.2824585366827,40.59667983379048,38.56154975394244,67.60218089286829,58.40669028492719,51.80491371005626,89.87848879746558
56.032468827791654,40.85774967982398,38.4852103962699,67.53342979428906,58.86504183258103,52.190765086468,89.95369404509817
55.78061542391195,41.107294400852716,38.421561828791205,67.4607226485604,59.326732698602775,52.545351277922826,90.02518104653501
55.52779054019179,41.34441556771424,38.37018841193197,67.38447411753027,59.790498921518726,52.86826210894598,90.0927835683262
55.274856941214445,41.56833275354916,38.33069098572127,67.30515435406947,60.25513314278134,53.15922262373358,90.15639767435025
55.02265623903363,41.77837971968671,38.3026963255443,67.22325713532469,60.71948337274358,53.41807946873847,90.21594740672366
54.771997559376736,41.97400745233363,38.28584280719967,67.13927468501089,61.182460408774126,53.64477744033901,90.27136542014908
54.52363431819566,42.15477518130728,38.27976382846718,67.05370586401656,61.64302292594239,53.83934729880451,90.32261282594362
54.27826232968003,42.320339514745854,38.2840920423673,66.96707354848508,62.10015205657885,54.001912940595474,90.36969464591017
54.036547295256085,42.470464211003204,38.298475496212845,66.879913277718,62.55285238582068,54.13269940323284,90.41263427709664
53.79914802712356,42.60504245610748,38.322579364105415,66.79274025104128,63.00018018936354,54.232021414759004,90.45144188583755
53.56670691974444,42.72410039459055,38.35606951893979,66.70603444217423,63.44125670201899,54.30025970675068,90.48613148883216
53.339824410599455,42.82777338812829,38.39860134756226,66.62025337068981,63.87524427217224,54.337851526255626,90.51677298495224
53.119054687955746,42.91627914617173,38.449827005078355,66.5358379823896,64.30131553195577,54.34530489404658,90.54351134295692
52.904928038266384,42.98991116678588,38.5094043325465,66.45318897989462,64.71865034451815,54.323213364865275,90.56653243486664
52.6979651567581,43.049046482936284,38.57698870201678,66.37263884867266,65.12645063605302,54.27224836814568,90.58602974863243
52.4986612100266,43.094141836839746,38.65221961525996,66.29445734204178,65.52393803937265,54.19313844416894,90.60221097673636
52.30746404622783,43.12570955689687,38.73473171108505,66.21888571398875,65.91032918563246,54.08665920322645,90.61531128804621
52.12477944789885,43.14429537037072,38.824190918502936,66.14615510376987,66.28482411082385,53.95364054369492,90.62557117454803
51.95099567113708,43.15047993551612,38.92031769641127,66.07647027198217,66.64663283992977,53.79497516184014,90.6331997183685
51.78649092795971,43.14489287972748,39.02287395305674,66.0099929844961,66.9950140007238,53.61161217529689,90.63837375143173
51.631613674384475,43.128211137605824,39.13163662847425,65.94685197356884,67.32928478627683,53.4045447212024,90.6412713559158
51.486665841013995,43.101139968726805,39.24638914448873,65.88715589313739,67.64880895871106,53.17481457808688,90.64208499985361
51.35191085783407,43.06440557460347,39.36692853343901,65.83097994252392,67.95300205652413,52.92353186730413,90.64099072834526
51.227587307482274,43.018772965236316,39.493062619415795,65.77834115706412,68.24135769878853,52.65188061120114,90.6381183365797
51.11390040720808,42.96506265286151,39.62458856920852,65.72919838751235,68.51345633679406,52.361099946346314,90.63356705042797
51.0109980090464,42.904139469475474,39.761275051286646,65.68347830897117,68.76893983653757,52.052469394999285,90.62744293057564
50.918963682283426,42.836886878518996,39.902868270309064,65.64109002581137,69.00748783324582,51.72732212332311,90.61986215865737
50.837839617699586,42.76419665657451,40.04910847458693,65.60191036914428,69.22883397482528,51.387067157776706,90.61091680056897
50.767651562249696,42.686974778140765,40.199729417339476,65.56577441107783,69.4328058595828,51.03318711243926,90.60065687997037
50.70840600563037,42.606137492025944,40.354441497695106,65.53250699877029,69.6193384359266,50.66721299633614,90.58911834056734
50.66007223098872,42.522587913311675,40.51292587939781,65.50197245396973,69.78844713224078,50.29070610553557,90.57635697053972
50.62258255289528,42.43719687619721,40.674850167888685,65.47408984044112,69.9402003410295,49.90525824545842,90.56243999956907
50.59585094514484,42.350809804379466,40.83988274576397,65.44880667123542,70.07472647199668,49.512489080786295,90.54741263291545
50.57977887949954,42.264265070288275,41.00768438250171,65.42607636416665,70.1922387413925,49.11402377049465,90.53129470210726
50.574238858308604,42.17839335375096,41.177887157626664,65.40587204280558,70.29303573104964,48.71146540394317,90.51411402398216
50.579064162195635,42.09399755496028,41.35008551937829,65.3882137521283,70.37747395121644,48.30638774068213,90.49592295124448
50.59406392635955,42.01184264092291,41.52384490959198,65.37316723092202,70.44595006301206,47.90034799811085,90.4767693465379
50.619040909606106,41.93266772745538,41.69870810616979,65.36081510997786,70.49890830796012,47.494891492328755,90.45666689496666
50.653784079512775,41.857196727439586,41.8741839347139,65.35123736858681,70.53684232806621,47.09153352272061,90.43561904465369
50.698047294663056,41.78612501779028,42.04972957178641,65.34451309448794,70.56026944044041,46.69174084483809,90.41367681179972
50.75154968558554,41.720093137943536,42.224749810365,65.3407155011116,70.56970357045482,46.29693640669778,90.3909599161829
50.814006093028794,41.65967639561494,42.398618520556184,65.33988258768747,70.56566073030777,45.90851416719447,90.36762222305606
50.88515185283456,41.60539905189961,42.57069976158325,65.34198811460324,70.54868485144388,45.52783395994873,90.3438179282601
50.96473150873986,41.55774938817601,42.74034742653302,65.34694631848389,70.51935168498639,45.15619486131833,90.31970955501673
51.05246938631539,41.517172361739455,42.90689256160481,65.35464292319121,70.47824182856438,44.79481505156129,90.29548514127153
51.14805813581062,41.484048190339614,43.06964446359193,65.36494999991615,70.42592299707437,44.44483441922209,90.27133954257935
51.251168818469694,41.45868316970028,43.22791374986021,65.37770858701161,70.36297033567922,44.10732298301234,90.247437873643
51.361455279748874,41.44132179946057,43.381035785319405,65.39271418287707,70.28999572891077,43.78327173423689,90.22391351240832
51.47853919421277,41.43215988873891,43.528373682587066,65.40973603069055,70.20764271896013,43.473570010843886,90.20090276269569
51.60199752072326,41.43133809832367,43.66931351382101,65.4285483727508,70.11655434531046,43.17899508991302,90.17856101962063
51.73137508622003,41.43892699317537,43.80327843269932,65.44893369215718,70.0173568027425,42.90022352058449,90.15703347628614
51.86620707655396,41.454932031868026,43.92975796058544,65.47066073637521,69.9106714584312,42.637842197459584,90.13642391711277
52.006019863532174,41.479321836757066,44.04832105640231,65.4934744596341,69.79712203336763,42.392338512036844,90.11680829861375
52.150312813041715,41.51204940643626,44.15860117351739,65.51710876671214,69.67731359474168,42.16407774656356,90.09827234166812
52.29855513133314,41.55304405564197,44.26027735584377,65.54129221252242,69.5518070615571,41.95329019709914,90.08091632322498
52.450209438399185,41.602189111215296,44.35307542117722,65.56572851577025,69.42112207330491,41.76007904597626,90.06481973231763
52.604751308881895,41.65931645289928,44.43678128571874,65.59007829782391,69.2857594598497,41.58443675556787,90.05002038942867
52.76165716101648,41.72422727165896,44.511241844778596,65.6139748307811,69.14620722806298,41.42625144698595,90.03654300623505
52.92037521908997,41.79671439366149,44.57635102849093,65.63706188518809,69.00292635539398,41.28530861709683,90.02443767444105
53.080317213202676,41.8765611296219,44.6320437315266,65.65901063072386,68.85635488661174,41.16130794175512,90.01377416588824
53.240883321167686,41.963527364625456,44.678307204558884,65.67950288325346,68.70694544103605,41.053890691159246,90.00460566562022
53.40148919209522,42.05734811959172,44.715189656432244,65.69821575305977,68.55519489424827,40.96265263924975,89.99695763097422
53.56156427913592,42.157742213793874,44.74278755076809,65.71483642593803,68.40163174521301,40.887142115676056,89.99085064608245
53.720537898662734,42.264409279248056,44.76122219324532,65.72908597609498,68.24678631410004,40.82687282493944,89.98630838167506
53.877849521600616,42.377015865380095,44.77063017352609,65.74071571940321,68.09118669194937,40.78135895055343,89.98332564348554
54.032980966595964,42.49519838249797,44.771173119322,65.74948282944975,67.93537792172546,40.75013966622528,89.98183883837679
54.185471484208534,42.61859263365149,44.76304541135761,65.75514629104629,67.77992496491677,40.732769637882704,89.98174705838369
54.33490097209107,42.7468592121806,44.74646165173996,65.75749387841762,67.62538623154042,40.728793304881634,89.98296371064981
54.48087574951469,42.8796762227688,44.721632550383916,65.75636051302074,67.47229197157479,40.73773442480529,89.98543460740126
54.62304901277892,43.01671290478083,44.68875196446787,65.75161011567504,67.32115477464937,40.75910844528129,89.98910531871735
54.76115565143506,43.15761929730724,44.6480057413845,65.74310922317812,67.1724884815558,40.79243489275471,89.99388845274223
54.89501774615378,43.30204288332723,44.5995877799011,65.73073253261722,67.02679840451748,40.83722803906897,89.99967062034837
55.02451756650079,43.44964557969931,44.54370246229658,65.7143923672719,66.88455086919167,40.892975307564676,90.00633179503977
55.149576011882296,43.600095255107895,44.480558884465005,65.69404906493935,66.74616299529025,40.95913073975827,90.01373357836121
55.27015668941328,43.75304379511774,44.41037973670896,65.66969067582039,66.61202355539237,41.03513039532352,90.02169139896081
55.38627117137015,43.90812073758319,44.33342385387911,65.64132287377059,66.48250851177511,41.12040551300227,90.0299812606634
55.497958679613994,44.064944910775345,44.24999537556656,65.60900120036199,66.35796350332043,41.214374952752635,90.03838219215133
55.605253091287864,44.22312933089333,44.16042903440119,65.57287528835529,66.23867593605519,41.31643335128736,90.04669780492775
55.70816930142003,44.38226727071196,44.06507472841553,65.53319417737579,66.1248754133165,41.42596053637508,90.0547295390353
55.806713230620666,44.54191895461908,43.96430476753801,65.49027479332317,66.01675990415092,41.54234653081437,90.06224711676859
55.900887411444394,44.70162125649455,43.85853376942949,65.4444779342352,65.91450713988426,41.66500136137626,90.06900615452143
55.990675686376235,44.86091211389094,43.74822179444711,65.39620821108765,65.81825684414041,41.79333740278749,90.07479245974092
56.0760276747577,45.01934095005886,43.63385447712806,65.34590816422435,65.72809928987066,41.926746565588466,90.07943314349366
56.15686773703151,45.176458159759,43.51592472956858,65.29402547892309,65.64409620375206,42.06459795987142,90.08276498826753
56.233117305788575,45.331808969070345,43.394932948446154,65.24097857862826,65.56630754623943,42.20625276494871,90.08461330223588
56.3046987691991,45.48494832544756,43.27139105645758,65.18715550148221,65.49478713787474,42.351071791469764,90.0848155981143
56.371516659211196,45.63545739645065,43.145810348888936,65.1329371314861,65.42955334911254,42.49840709048183,90.08325421211819
56.43344640334591,45.78293766115756,43.018680926896465,65.07870265706504,65.37057370473505,42.6475971086243,90.07984862306685
56.49034789976764,45.9269918294285,42.890471166889355,65.02480458011233,65.31778418081772,42.797981378076706,90.07452216270929
56.54208086010861,46.06721995554429,42.76165668037663,64.97155033680271,65.2711183589828,42.9489215693561,90.06719864163213
56.588496426830886,46.203236299813724,42.632748965634434,64.9192201326779,65.23050945118324,43.0998057043866,90.05783617243719
56.62941785923279,46.334681572311,42.50429385880119,64.86809602307255,65.19587069011524,43.25003679048527,90.04644292522337
56.66464273736552,46.461213448407825,42.37685193792755,64.81846146355014,65.16709078704078,43.39902952853115,90.033044102238
56.69397044101318,46.58249360122743,42.25099103863044,64.7705777045629,65.14404937254298,43.54622450941524,90.01764162646188
56.71722175317833,46.69819785496704,42.127292542669814,64.72467840592485,65.12661829479944,43.69110004535318,90.00021573854842
56.734229071000705,46.80804326433894,42.006347095037206,64.68099249730929,65.11463634215475,43.833162757798156,89.98075429234086
56.744818914627174,46.91179952496497,41.88873036569995,64.63975759241151,65.10789065640994,43.971926272055974,89.95925823748777
56.748817584497765,47.00927327314466,41.7749797369627,64.6011980926955,65.10613147769213,44.10690307479738,89.9357167324297
56.74607507714542,47.1002920384994,41.66559140156362,64.56549274173247,65.10909735788859,44.23761797711058,89.91010043696944
56.73647476184203,47.18471417745348,41.5610274221778,64.53276749194015,65.1165138351829,44.36362300506388,89.88239333212067
56.719917703530086,47.262452766559626,41.461709828794056,64.50310974764777,65.12807212437212,44.484492337565264,89.85261708958576
56.696310525922385,47.333479952270295,41.368002373505234,64.4765704627957,65.14342698616231,44.59980457199882,89.82081139194462
56.66558358884552,47.39780628341376,41.28020383635653,64.4531441466596,65.16222224690362,44.70913975513537,89.78700422349938
56.62772245736179,47.45546473229511,41.198562841939484,64.43275752079299,65.18410650498814,44.812102883303226,89.75122216599205
56.582774810985335,47.50651653862003,41.12329321892456,64.41529041872703,65.20871483974312,44.9083503003058,89.71352706306804
56.530828460208916,47.551058079940525,41.054568842855474,64.40060507897842,65.23564316859527,44.99759114913247,89.6740220700106
56.47199496808792,47.589205816760604,40.99250538145141,64.38854754078515,65.26445163952533,45.079572055222094,89.63281483495848
56.406422882095455,47.62106860493986,40.9371535264551,64.3789311457325,65.29469035908328,45.154073957471155,89.58999088312981
56.33432009404113,47.64673484138529,40.88851640182728,64.37154556750025,65.32591002408107,45.22092538239352,89.54563683666163
56.25595231719105,47.66628523340461,40.84657452235838,64.36619791021657,65.35765126424086,45.280007879294494,89.49987897378423
56.17162352028074,47.679810827787534,40.811291986556064,64.36273942907988,65.38945554250323,45.33124219165054,89.4528806422816
56.081670361418546,47.687411582380875,40.78260590584787,64.36104913448249,65.42092215784176,45.374576113480074,89.40480663918981
55.9864737834774,47.68918178405097,40.76042402693338,64.3610065725232,65.4517670063974,45.40999381307853,89.35581121030556
55.88645822162192,47.685209364803974,40.7446364220057,64.3624963281631,65.4818281382854,45.43753326879318,89.30606354528209
55.78206955618804,47.675594969762855,40.73512033101739,64.36543589382478,65.5110288880743,45.45728613435562,89.25576156529857
55.67376314785791,47.660465265239914,40.73172783967619,64.36978335920381,65.53935108016412,45.46938131715469,89.20510419973002
55.562023972069774,47.6399617879397,40.734275367675366,64.37551315866837,65.56683649907103,45.473976634835964,89.15426425159966
55.44739331192574,47.61422152317555,40.74255354333979,64.38259811340849,65.59358507352542,45.47126773762305,89.1034124649562
55.33046504792975,47.58337720867117,40.75634517699211,64.39102562734362,65.61972530633945,45.46149467274435,89.05276953273048
55.211856852332666,47.54757711519026,40.77542557699017,64.40082114147758,65.64537852490959,45.44492875837309,89.00261804834354
55.09219507285132,47.506995305423466,40.79954548852832,64.4120394186644,65.67065121988497,45.42185224829481,88.95326022594561
54.97212888758698,47.461817800469284,40.82842333808864,64.42473118849284,65.69565045433016,45.39255492831098,88.90497770552244
54.852343403650586,47.412226913488944,40.86176027811871,64.4389271020295,65.72048506341764,45.35734849898488,88.85803602062006
54.733542218529166,47.35840846063117,40.89925829994959,64.45465560939685,65.74524142735089,45.3165751487015,88.81270567569491
54.616415070660324,47.300571410277534,40.94061874239582,64.47196329261904,65.76996791807228,45.27059535242725,88.769251039709
54.5016266430439,47.238951039563624,40.98552984850176,64.49090487142144,65.79469448907372,45.21977054666705,88.72789574463089
54.389829864122696,47.1737935319911,41.033668913685766,64.5115175627443,65.81946314797314,45.16446669021614,88.68881612757896
54.28167038372568,47.105350591304536,41.08472092625218,64.53381671658484,65.84432966080644,45.1050766799965,88.65217233409729
54.17776574434889,47.033896656613024,41.13838786526154,64.55781229770858,65.86934173308883,45.04203144760454,88.61812575024726
54.07868688274428,46.959742288872825,41.19437544715755,64.58351082113903,65.8945334494153,44.975786131968064,88.58681071387528
53.984967468818226,46.88321910232863,41.25237741640675,64.61089428815893,65.91994486791693,44.906804660917025,88.55829963234198
53.89712186452753,46.80465132247754,41.31207911836948,64.63991270205294,65.9456303799377,44.835564397428975,88.5326160601648
53.81563784679222,46.72434861020657,41.37317175595316,64.67051260269699,65.97163391382152,44.76256661918779,88.50978469553536
53.740946572462526,46.642628417391045,41.43535359385366,64.70266984927741,65.99796000811101,44.68832810818231,88.4898533459203
53.673403787908775,46.5598371118858,41.49831548768773,64.73638613127535,66.0245803811151,44.613359334266406,88.47286330810263
53.613298887225596,46.47634138435236,41.56173325851532,64.77165916309082,66.05146951904192,44.53815535711705,88.4588206891714
53.56086845131856,46.39249958282222,41.62528070855954,64.80847065307765,66.07862364353265,44.46320349188204,88.44771465837707
53.51628766278622,46.308643571582024,41.688646403986255,64.84680498066886,66.10604423123465,44.388983119354435,88.4395533801189
53.479649562077014,46.22508549066663,41.751534549012376,64.88666281566762,66.13371983191708,44.315945814352965,88.43436443831135
53.45096082347175,46.14213186293549,41.81366246742692,64.92804233038805,66.16163648006157,44.24449818966921,88.43217004232842
53.43015659086218,46.060080832946085,41.87477796011802,64.97091082068883,66.18979717822772,44.17501125167967,88.4329929914527
53.417107261486315,45.97920866454028,41.93468631884893,65.01520383018592,66.21821579545339,44.107844880831,88.43689885759001
53.41160511537584,45.89977222479918,41.993255307742075,65.06084771706648,66.2468922163289,44.04335443183892,88.44401480050918
53.413358244666725,45.82202975466198,42.0503933519505,65.10776644364857,66.27580621901528,43.981871108264535,88.45449425205638
53.42201934119709,45.746250592626126,42.10602868357571,65.15585926960185,66.3049374611201,43.92368241479044,88.46847362323317
53.43723070406797,45.67269822432469,42.16011033432895,65.20498477624525,66.33427541688248,43.86903241314655,88.48607661707872
53.45864271323017,45.60160770047863,42.21261879691846,65.25498057644437,66.3638002183533,43.818128153354564,88.50745257771018
53.485897732304444,45.533181623897434,42.263560395842816,65.30569517037813,66.393471645458,43.77113143368527,88.5327859865713
53.518611826747446,45.46759922113245,42.31294370278561,65.35699015327526,66.42326572412091,43.728141485608916,88.56225688514176
53.55637807880057,45.40501550749588,42.36076310893659,65.40871506925554,66.45323189786683,43.68919309517767,88.59600310592037
53.59877762519155,45.34554563490709,42.407004250915605,65.46069763659501,66.48350916198608,43.65427933102164,88.63412814232791
53.6453734121011,45.28925858169486,42.45165419056015,65.51276851317748,66.51429085446493,43.623377337081344,88.67672760628622
53.69569067382533,45.236201226115455,42.49469620800208,65.56478700574779,66.54578547097707,43.596452220590656,88.72388138438689
53.74921270522874,45.18643502229034,42.53610053085463,65.61663349526405,66.57820834540124,43.57344639073663,88.77561497995076
53.805401708048635,45.1400484400042,42.575835074457956,65.66818497208276,66.61178619810727,43.554282956198364,88.83188694667905
53.86371878812289,45.097141245677086,42.613890020952304,65.71931121008028,66.64674027492153,43.538887050529056,88.89262782172636
53.92361910240776,45.057809753878935,42.650286020379404,65.76989138389267,66.68325177595466,43.52719636128163,88.95778129574329
53.98453388339945,45.02214734424624,42.68505707147839,65.81981607058066,66.72144326845152,43.5191469457547,89.02729596750014
54.04586960504806,44.99024375274616,42.71823130644116,65.8689636131755,66.76138639479315,43.514659980633986,89.10109207602517
54.1070314898794,44.96216902740878,42.749830855303124,65.91718632644735,66.80310821426039,43.51365524379732,89.17906109331825
54.16744360899825,44.93795502092382,42.7798828226028,65.96433519922017,66.84657552168609,43.5160769641906,89.26109717876018
54.226540671067106,44.91759622334956,42.80841815074642,66.01029662407322,66.8916769756433,43.52189827637858,89.34710561152566
54.283743233674954,44.90106734716528,42.83545642018059,66.05499574772738,66.93823349233821,43.53109889931054,89.43697048461665
54.33844924708518,44.88833087101248,42.86100260464129,66.09836856003567,66.98602889186782,43.54364233790077,89.53052996166431
54.39005713148619,44.87932273229158,42.88507016824119,66.14034605260204,67.03482205560576,43.55947288364059,89.62759474826412
54.43799795582278,44.87393874818382,42.90770655380819,66.18086949922272,67.08432892836684,43.578523297798334,89.72797608473319
54.48174467897104,44.872045471417536,42.92899251384119,66.21990621616317,67.13420696139028,43.60071213895649,89.83147539917474
54.52080194528193,44.87350419216619,42.94902264105443,66.25743711756495,67.18406613403307,43.625932029210844,89.93784991806291
54.55470535970946,44.87817749823489,42.96789633452455,66.29343852035498,67.2334861065438,43.65405107016175,90.04680887113781
54.58303472657751,44.88591201294969,42.98572920972797,66.32789775750996,67.28201159323066,43.68493121936794,90.1580499511882
54.605416492464336,44.896521923167484,43.00266336802112,66.3608520247883,67.32913619814607,43.71843880147298,90.27128319007616
54.62150701960515,44.90979257447186,43.018856620299054,66.3924002243356,67.37430657757955,43.75443203455708,90.3862084038347
54.6309829724733,44.925492701444284,43.03446337012624,66.42267354058357,67.41695050047277,43.79274262648826,90.502483467419
54.633560144932694,44.943373344882176,43.049628928774624,66.451806261433,67.45649647725457,43.83317523096611,90.61972972543528
54.62902145915099,44.96315446593799,43.06449164968104,66.47994209992385,67.49236371530333,43.87552220050304,90.7375573789421
54.61722089040632,44.9845207559506,43.07917340767464,66.50725703767827,67.52394107490287,43.91956959912047,90.85556343567623
54.59806503821397,45.0071350925682,43.09375994171907,66.53395621696107,67.55058483318496,43.96508624546801,90.9733032824811
54.57150489135295,45.03065089707445,43.10829294281059,66.5602422286492,67.57163542376269,44.01181645848619,91.09028123876023
54.537551175750956,45.054706750730034,43.12278355544129,66.5862964915394,67.5864259965688,44.05949196268709,91.20597308921069
54.49628735895707,45.07891464925731,43.13722798436577,66.61229629761613,67.59427309423666,44.1078473276572,91.31983903781591
54.44785539118049,45.10286470840366,43.151603306573406,66.63843507035342,67.59447637238213,44.15661704327649,91.43130050536716
54.39242832422082,45.12614852894211,43.1658493950375,66.66491115337041,67.58634836170437,44.20552038120968,91.53971633565065
54.33020665068565,45.1483778933007,43.179861535303196,66.69190531885087,67.56925171712169,44.25426081834183,91.64440479391968
54.26144945861465,45.169180904442065,43.19350427130258,66.71958873646827,67.54260777734021,44.30254915778193,91.74469625096708
54.18650466809364,45.188187501272964,43.20662883079274,66.74815606162281,67.50588044445112,44.35012554352234,91.83995638010285
54.10580253924226,45.20502891353008,43.21907314903856,66.77783643235169,67.4585755233288,44.39675538686524,91.92956064144596
54.019827341022044,45.219354201524666,43.2306485274223,66.80886453792357,67.40027229474953,44.44220893387341,92.01287091304143
53.92910479144883,45.230840947001106,43.24113366644629,66.8414497920467,67.33065356221509,44.4862545204764,92.08926333617596
53.834207535834146,45.23918472258056,43.25028529227103,66.87577931602974,67.24950065994406,44.52867504139358,92.1581831182874
53.73574972747492,45.24408266425516,43.2578510702767,66.91203669757597,67.15667001886975,44.56928329885856,92.219163453769
53.6343650295938,45.2452359567361,43.263567527894274,66.95039700766829,67.05208914430527,44.6079127230206,92.27180081218877
53.53069661206408,45.242371101467256,43.26715027480054,66.9909996929585,66.93577276988493,44.64439369875504,92.31573954879131
53.425408853452275,45.235254324264055,43.26830048287847,67.03393993639635,66.80782491456687,44.67854538498893,92.35068913555615
53.319191183211544,45.22368412416988,43.266732261913255,67.07929477543296,66.6684144180206,44.710194420968044,92.37643313551666
53.212734271160514,45.20747827727116,43.26219534316194,67.12714707979987,66.51775532662839,44.7391977764308,92.39279967908702
53.106699074401696,45.18647778874447,43.25447279106348,67.17757201441691,66.35612050312828,44.76544364258217,92.39962795833752
53.00170944636652,45.16056364038592,43.24336823389375,67.23060450723112,66.18386958011325,44.78883666148001,92.39677890672992
52.89836872054214,45.12966185166737,43.228710204191785,67.28622784664475,66.00145133202624,44.80929390867034,92.38417753455198
52.79726929727014,45.093728855523175,43.210373456932345,67.34438492616869,65.80937879347178,44.82675878242133,92.36182748803942
52.69897603198341,45.05273985944425,43.188289351871525,67.40497830869543,65.6082128173944,44.84121041706724,92.32977891658643
52.604003978378486,45.006702708714386,43.16243272171678,67.4678476812985,65.3985676335252,44.85265056111057,92.28810059380511
52.51281902534217,44.9556848316477,43.13280585096173,67.53275668271854,65.18111063023832,44.861079995773636,92.23689876382994
52.425854934029815,44.89982147980374,43.09943849397512,67.59941369554657,64.95653866843674,44.86648606682432,92.17635140462863
52.343515042209596,44.83930279381153,43.06239391417434,67.6675023214802,64.72555754108112,44.86884345351534,92.10670253797691
52.26615007117668,44.77436811902486,43.02176101376229,67.73668514285964,64.48889478548307,44.868113427780294,92.02822247555665
52.19404191079038,44.70531656275314,42.977633061283086,67.80659106922907,64.2473286002854,44.86423447133191,91.94118940471266
52.12741875582759,44.632509153537626,42.9300935911614,67.87682868342523,64.00168991084796,44.85711768075274,91.8459098185342
52.066483551239756,44.55634859842478,42.87922154833907,67.94702912669446,63.75283102637614,44.84666054556073,91.74273152890348
52.0114201814642,44.47725838794621,42.82510162739733,68.01687061883025,63.50159799504477,44.83276683022185,91.63201569181116
51.96237584686641,44.39568674405366,42.767820927186726,68.08605760185031,63.24883405675221,44.81535010049409,91.51410144770543
51.91944871794023,44.312126256275896,42.707457744019116,68.15428825573683,62.995395654322365,44.79432532454747,91.38931201734545
51.882693292466115,44.227116796955485,42.644085003354874,68.22125400591322,62.74214559963921,44.7696160725059,91.25799195239323
51.8521237672045,44.1412226192844,42.577792752022454,68.28666489591204,62.4899242937206,44.74118446023451,91.12052010917789
51.827698039461175,44.05500959331321,42.5087056107678,68.35025784152718,62.239535486107464,44.70905525249588,90.97728114567428
51.80929667347958,43.9690426987462,42.43697532123146,68.41177248031616,61.99176310655475,44.6733096587126,90.82864386568754
51.796728270168074,43.88388964751348,42.36276119045155,68.47092809376672,61.74738890711082,44.63406094275608,90.67498736623159
51.789766924449545,43.80010857253695,42.28622711985427,68.52743136257607,61.507180231797705,44.591441039458644,90.51674525845651
51.78818599915631,43.71822644145528,42.207561412746344,68.58099766694798,61.27186470846474,44.54560665607184,90.35441043775464
51.7917586499383,43.63873439237496,42.12699352863965,68.63135057929213,61.04212870440456,44.496744349311,90.18850153674367
51.80024556105819,43.562105369241586,42.04478565809168,68.67820114150372,60.818637783185146,44.44505690684964,90.0195496911451
51.81340632087213,43.48880757174749,41.961212247725314,68.72124380258074,60.602043064323766,44.390744574798006,89.8481291515563
51.83102894104411,43.41929176301484,41.87655710528868,68.7601832469828,60.392964848999455,44.33400934697613,89.67487987522976
51.85294005697759,43.353964103420175,41.79113137577478,68.79475806995323,60.19198817157413,44.275083534146226,89.50048192279544
51.87898817817609,43.29317584387105,41.70528341256207,68.82473084337471,59.99968698065602,44.21424916534691,89.32562312724122
51.90903703259078,43.237245680884996,41.61938285279248,68.84986418703521,59.81664280294984,44.151825671666025,89.15101148668482
51.94299256021649,43.18649240716055,41.53379837261132,68.86991902506172,59.643426451040334,44.08814295454365,88.97740685543067
51.980834362639314,43.14124233182441,41.4488936791421,68.88467221151014,59.48056220057797,44.0235270797884,88.80561398821072
52.02261169891878,43.10181121446317,41.36503560279039,68.89391918847438,59.3285158188776,43.9583015310733,88.63644097498283
52.0684097283177,43.068491436016046,41.28259024284363,68.89745057209736,59.18771245834086,43.89278529229813,88.47067994831609
52.11832600702529,43.041555998453255,41.20190332814808,68.8950333506349,59.05854802693765,43.827276323886515,88.30912618784522
52.17247483747593,43.02125832433281,41.12328849464216,68.88642451299577,58.941370946362056,43.76203506929659,88.15258540257166
52.23099299123504,43.00781388672635,41.04703930750185,68.87139955258537,58.83645891636167,43.69728983328264,88.00183545532471
52.294018941487536,43.00138090637019,40.973446914970644,68.84975807788422,58.744020095490015,43.633258446654324,87.85758028868725
52.361658016783714,43.002061529889374,40.90279747019882,68.82130710988173,58.6642061221245,43.57015671054384,87.72045047136325
52.43396825908525,43.00991582666982,40.83535484063088,68.78585869013412,58.59710632269683,43.50818317084894,87.59104141849151
52.51097565878719,43.02496275341278,40.77135761987681,68.74325207459465,58.542725375935724,43.44750232193511,87.4699268579206
52.59268821460312,43.047162386517336,40.7110396529462,68.69336633793502,58.50097800994992,43.38824472672526,87.35762342599156
52.67908348870921,43.076401793687445,40.65464812070262,68.6361013438945,58.47171443370615,43.330514067399264,87.25455598410933
52.77008615916964,43.11250221132791,40.60243626924939,68.57135367033136,58.45474623044792,43.274382154945535,87.16106969980895
52.86556724294516,43.1552355685897,40.554643409340215,68.49902337798984,58.44984161514016,43.21987423525134,87.07746348818921
52.9653648673014,43.204327151607494,40.51148843965708,68.4190433956208,58.45670421869741,43.16696604602476,87.00399118205927
53.06929522213306,43.259445345433036,40.47317872712208,68.33139053097628,58.47497353526975,43.11559990887118,86.94083353702008
53.17713949722424,43.320202608797146,40.43991159850723,68.23606636127553,58.50425177746772,43.06569904925592,86.88809410638899
53.28863248253696,43.38617676941891,40.41185678236942,68.13308256120132,58.54412031109211,43.01716223563844,86.84583179320222
53.40347796454463,43.45693070404161,40.38913947781473,68.02247569009147,58.59412445095695,42.96984993075563,86.81407798400787
53.521375739209546,43.5320100762071,40.37184891180203,67.90432826853,58.65375306713256,42.923585333948786,86.7928057609555
53.64202650336808,43.6109282536291,40.360064594034824,67.77876397133757,58.72244295885795,42.87817437089253,86.78188945204141
53.765110902713936,43.693161797990705,40.353867308017094,67.64592945572032,58.799596262234516,42.833423892726074,86.78110518091256
53.89027307802105,43.77816243900794,40.35332431094411,67.50600172064787,58.88457968105548,42.78914090421771,86.79016456727412
54.01712867010443,43.86536663378861,40.35847649967803,67.35922181383515,58.97670476555296,42.745123100556825,86.80872947247278
54.14527861078728,43.95418759516093,40.36935057807311,67.20591132201862,59.07522104868781,42.70116402052838,86.8363883383545
54.27430211147353,44.04400119488008,40.38597882834579,67.04645005498357,59.17933884223436,42.65707627194945,86.87263689503422
54.403736636166286,44.13414586893335,40.40839710856055,66.88124864602972,59.28825654348725,42.61270944668269,86.916904043243
54.53307447980345,44.22393632187043,40.43662659730279,66.71075548093418,59.40116342958937,42.56794331399168,86.96859730639602
54.66178128693215,44.31267219558065,40.470670089906754,66.53548631221867,59.51723286285512,42.52266634976476,87.02711272219467
54.789309862348524,44.39963223591202,40.5105293181921,66.35603115347834,59.635641814669505,42.47676663834175,87.09181002358956
54.91509355457674,44.48406775050064,40.55621515344733,66.17302589315454,59.755611811917504,42.430146032679794,87.16200737612633
55.03853937949117,44.56521556683327,40.60773285512544,65.98712438321508,59.87642871183379,42.38273692124389,87.2370144347638
55.1590445268405,44.64232902093997,40.665060758754855,65.7989972226355,59.99742802018106,42.33449832236307,87.31615591212346
55.27602559808361,44.71470051486317,40.7281471644037,65.60933660022079,60.11798481223945,42.28539894278611,87.39874990577827
55.3889299670681,44.78165891342127,40.7969218932083,65.41883873874372,60.23754222031203,42.23540884384956,87.48407585617771
55.49722395031348,44.84255741273285,40.87129810461338,65.22817497696305,60.355654583360604,42.18450004215515,87.57138517563415
55.60038609340175,44.89677781385503,40.95115654285847,65.0379840110828,60.47199552625233,42.132639232491336,87.65994656636005
55.6979245257922,44.943754196049404,41.03633688026835,64.84888750513898,60.58633066137514,42.07976908030631,87.74906740877174
55.78939861204743,44.98299152817849,41.12665955191812,64.6614956522651,60.698509868318936,42.025795443170516,87.83806869774693
55.8744176999719,45.01405986754163,41.22196100288886,64.47638398478527,60.80850902880854,41.97059473017059,87.9262604367248
55.952625770859534,45.03657722235256,41.32210498720968,64.29406501955829,60.916476440326036,41.91403083331167,88.01296147152253
56.02370407849822,45.05020929308883,41.42696529517623,64.11498615695444,61.02272746849307,41.85595969037916,88.09753833166096
56.087396246286175,45.054690673961616,41.53640861154344,63.939549091128285,61.12769875384558,41.79622193007883,88.17941054048028
56.14352262748867,45.04984079359567,41.65029255206742,63.76811884438737,61.23191556171833,41.734647875310365,88.25802857192144
56.19196473127039,45.035554082980354,41.76846381830389,63.60102405773882,61.33598683589463,41.67108406364472,88.33287968110466
56.23264710122759,45.01177882844233,41.89074174658255,63.438598747931714,61.44059075270489,41.60541748269598,88.40353192118174
56.26555110259706,44.978515273747945,42.01689758021414,63.28127511755889,61.54642953516494,41.53757486265343,88.4696594634717
56.29074943265613,44.93583969829201,42.14665369483525,63.12965043609802,61.65418457367683,41.467507273035416,88.53101366727483
56.30841784054449,44.883925626344485,42.279707573914195,62.984469216661,61.76450535185042,41.395188426005014,88.58737861912795
56.31881073358219,44.823035270776785,42.41575257770244,62.84655764092051,61.87801763633627,41.32063513405326,88.63856580190959
56.32223445968194,44.75349066460919,42.55447191671374,62.716776099625434,61.99531258876431,41.24392526266505,88.68444253087875
56.3190467190852,44.67565451543953,42.69552090754247,62.59600488406189,62.11691172090535,41.16519104885856,88.72493960315767
56.309665871880945,44.58993308953036,42.83852696444642,62.485130051542626,62.24324273339776,41.08460387756882,88.76001850645343
56.29455937986771,44.49678166671176,42.98310857526158,62.38500716955556,62.37464925076,41.002380327022756,88.78964665904078
56.2742156315259,44.396691354910175,43.12888644356311,62.29642917102451,62.511409844162785,40.9188049943835,88.81382417518262
56.24913082674289,44.29016683197639,43.27547235161205,62.22013281674501,62.65373281239185,40.834237415695384,88.83263158669375
56.21981905214283,44.177721009323804,43.422455906067356,62.15682641339364,62.801740138371784,40.74909306094818,88.8462359235301
56.186816698039365,44.059890475172736,43.56941474002599,62.10719877055347,62.955479665669785,40.66382549728707,88.85485056117565
56.15066291557011,43.937246050269806,43.71594031899693,62.07194216845696,63.11496191706031,40.578928982589396,88.8587045668556
56.111880340751924,43.81037894022839,43.86164759506148,62.05187520709136,63.28017511393817,40.49494245749458,88.85805348445568
56.07098412630696,43.6798748945975,44.006159388717194,62.04813756515696,63.45105969167458,40.41243044213978,88.85319649827538
56.02850388132964,43.546301496327125,44.14909222926623,62.06229589290723,63.62747856216044,40.331947679250874,88.84445742664583
55.984981333451614,43.41021370162367,44.290065997015475,62.09628105690595,63.809222426415005,40.25401414625495,88.83214773970043
55.94094020220726,43.27215792351247,44.42872308343797,62.15223779029665,63.996039752492315,40.179115640751256,88.81656091858936
55.89686276638991,43.13265900657561,44.564729385492036,62.232386164245995,64.18764809218084,40.10771630520054,88.79799886157579
55.85319548523358,42.99220281754313,44.69775828431708,62.338929249225565,64.38371458099238,40.04025630802069,88.7767796876882
55.810362546916814,42.85124320486187,44.82748512744774,62.47399516565442,64.5838405390185,39.97713231619566,88.753204747529
55.768756414219524,42.71023928900213,44.95360284716909,62.63958912899031,64.78757495700333,39.91868704333414,88.72752868090221
55.72871263102761,42.56968919246317,45.07583518706789,62.837564285821905,64.99443365524512,39.865222267822,88.69998018298608
55.69050395806654,42.43012919614749,45.19392728315604,63.069640410561725,65.20389233091133,39.81701441954977,88.67081228891452
55.654365060057174,42.29211166921971,45.30762807813777,63.33744322641693,65.41536376904317,39.774308850242406,88.6403182805978
55.62051694002521,42.15619201807892,45.41669130197659,63.642494886510995,65.62819511916577,39.737302787856564,88.60879916759484
55.58916136133519,42.022927396576016,45.520894841913375,63.986140161655825,65.84169062801182,39.706144443116926,88.57653566288053
55.56046009457647,41.892868091131106,45.62005120612504,64.3694788553669,66.05512625577762,39.68095117486927,88.54380210264067
55.534538326961325,41.76653589284873,45.71399385835614,64.79343057546025,66.26773771043538,39.66182097857666,88.51089132839195
55.51151736780774,41.64440754140507,45.80255614422489,65.25899334117688,66.47870806497137,39.64882249692109,88.47810445294726
55.491536424017845,41.526918602489886,45.8855635129849,65.7675427692145,66.68718445193144,39.64198259704542,88.44571836029495
55.474738914398394,41.41447598687621,45.962836073930454,66.32093661686572,66.8923113605668,39.641294557487385,88.41398097640447
55.46124984088052,41.3074561922557,46.03418507797559,66.9213894626137,67.09324376572148,39.64673754334466,88.38313823915502
55.45117348627658,41.206190586608614,46.0993995224411,67.57128023745706,67.2891331708068,39.65828045600879,88.35344177665162
55.44459936497804,41.11096206859717,46.158239053673334,68.27308215235938,67.47912121499463,39.67586728682024,88.3251145674391
55.44159153272328,41.02202166454874,46.21044720834013,69.02948661347523,67.6623653357475,39.69940742733523,88.2983192271421
55.44216845882473,40.93960243613315,46.25577211426667,69.84357747994916,67.83807133718717,39.72878363524134,88.27317278439067
55.446302946659394,40.8639102401754,46.29397072076867,70.71884841152644,68.00549756378916,39.76386170685632,88.24978360496894
55.45394577202664,40.79510227932542,46.32479979056021,71.6590354385341,68.16394338842223,39.80448257593985,88.22825443231854
55.465040392177436,40.73327980383723,46.34802049439918,72.66787247880004,68.31276028854796,39.85044417077605,88.20864838699974
55.47950818628643,40.67850107095244,46.36342404882369,73.74886451400845,68.45138262016356,39.901501820664784,88.19097289905118
55.4972255062093,40.63079304591086,46.37085252460752,74.90517243299482,68.57933663145965,39.957398461119276,88.1752123226065
55.51802063280727,40.590144704991125,46.37019309991623,76.13969871408649,68.69621375553614,40.01789535096131,88.1613680407323
55.54168532978218,40.55649265727596,46.361358153502636,77.45531171064648,68.80164253073204,40.08277178085178,88.14945480926845
55.5679750057196,40.52972165594615,46.344280401283235,78.85498542121358,68.89529115606203,40.15180380095279,88.13946847870393
55.596593672772926,40.50968434461461,46.318931615868124,80.3417189807703,68.97688685835294,40.22475586152778,88.1313781964225
55.62718984768244,40.496218649673544,46.285340862159444,81.9183570693325,69.04621529106176,40.30139710082414,88.12514971731582
55.65937709532525,40.4891446849911,46.24358840134748,83.58767332247888,69.10309589080109,40.381518369418316,88.12075226813097
55.6927552812655,40.48825259621027,46.1937853457595,85.35307080744741,69.14736835745795,40.4649257104154,88.1181264212637
55.726906066329114,40.493303704884426,46.136066788322196,87.21965585069374,69.17891064554667,40.55142082472501,88.11715487213671
55.761368721298155,40.504045228723136,46.07060306264045,89.19485753053779,69.19766120382694,40.64079861824252,88.11767894905064
55.7956239371278,40.520217565299774,45.997605794389486,91.28819960735494,69.20361188004306,40.73286903127091,88.11953771252402
55.82910714231557,40.54154280434604,45.917312627173786,93.51062150295695,69.19678387091243,40.827476216232014,88.12257444403065
55.861241943657745,40.56770749743187,45.82996318108674,95.87383523364825,69.17722651915146,40.92449135189723,88.12660517632762
55.89145883654692,40.598356531493444,45.73579156332683,98.39001656776163,69.14504449607618,41.023790950761054,88.13139935281471
55.91918763657564,40.633097179993534,45.635042807671965,101.0719827925181,69.10041403558441,41.12525065051389,88.13670192264316
55.943853263940376,40.67150020917394,45.52799011907817,103.93356205115778,69.04356333767225,41.22876217774493,88.14226181838481
55.96489507939117,40.71309361104704,45.41492995948685,106.98957867561315,68.97474351989406,41.33424792076187,88.1478229088325
55.981787641356384,40.757361732406615,45.29616587408948,110.25532861549257,68.89422727151256,41.44165214286399,88.15309276857144
55.99403679155563,40.80376174886054,45.17200722499706,113.74595464944207,68.80232970471006,41.550925720493375,88.15773754323486
56.00116149005645,40.85174619713479,45.04278361506234,117.4760458731778,68.6994135970434,41.66203036233837,88.16140746591806
56.00269196990484,40.90076990626547,44.908850031877755,121.4593749788207,68.58586685596765,41.77495308725608,88.16374784554282
55.99819140443596,40.950282875709114,44.770572647754975,125.70855645194604,68.46208272564192,41.889702391643766,88.16437488241652
55.98727375497616,40.99973309185878,44.628320991355686,130.23467198323726,68.32846598791208,42.00628383511854,88.1628558879906
55.96959527290707,41.04858906827237,44.48249129186966,135.04713322783925,68.1854452175865,42.12468011682556,88.15873304969877
55.94483396956605,41.09636129139432,44.333541935279904,140.15382340698147,68.03346292274811,42.244851306383495,88.1515671908379
55.912687920317886,41.14260219549671,44.182001263557794,145.5612194989349,67.8729541515885,42.366742610275374,88.1409492822647
55.87289925000449,41.186895358758925,44.028443903698566,151.2744068760452,67.70434381540257,42.490279623609915,88.12648041160377
55.82527614267086,41.228857061103355,43.87346843101348,157.29725261659897,67.52806109115417,42.61535483357719,88.10777510628022
55.76968815090344,41.26814842415013,43.71769596124103,163.63271244236574,67.34454001038196,42.74182824614962,88.08450801773073
55.70605111458046,41.30447536236882,43.56177347821446,170.28286214807633,67.15419480842705,42.869546063206,88.0564509740352
55.63433834238587,41.33756948721318,43.40636128460147,177.24862416055907,66.95739854766875,42.998351847633444,88.02345769467544
55.55461837716972,41.36716977013164,43.252112958001426,184.5297736455144,66.75450448730176,43.128073772401216,87.98543143634572
55.46707631392231,41.3930241097501,43.099670238044894,192.12553347952968,66.5459077774279,43.258506007712064,87.94232810442578
55.37199614161905,41.41490427444741,42.949671661480785,200.03517648903886,66.33209137799842,43.389409662708914,87.89418142765534
55.269736384704174,41.43261185185204,42.80275030838718,208.25806876493778,66.11361823494659,43.52052944302731,87.84109822892066
55.16073351032408,41.445969693979436,42.65951104108826,216.7934571407309,65.89109885104355,43.651599582993484,87.78322117807424
55.04551862611463,41.45481615025758,42.520508746221296,225.64041556117635,65.66517501724246,43.78233079251245,87.7207116557399
54.92471238650442,41.459010740727535,42.38624906469552,234.79779725879854,65.43651507000916,43.912400528940246,87.65377340245581
54.7989977556916,41.45843673267115,42.257202073814724,244.26402096147592,65.20579625275568,44.04146339780921,87.58266944958211
54.6691005416564,41.45298854060818,42.133804381260965,254.03677387694816,64.97368116649535,44.169166869960804,87.50769353458506
54.535787914847425,41.44255562841588,42.01645011497848,264.11266986012896,64.74081972073392,44.29515185982654,87.42912745059954
54.39986206344896,41.42702605814173,41.90549564108353,274.48697411294194,64.507876579405,44.41904732566821,87.34723898615414
54.262132735376426,41.40631373067604,41.8012829977712,285.1536066486445,64.27554341009598,44.540482180458916,87.2623181723348
54.12338586351542,41.38038306174698,41.70415448855658,296.10541488186414,64.04451530788096,44.65911045402719,87.17469442937086
53.98437418672717,41.34924724894993,41.61444028791052,307.33448419511194,63.81546192544717,44.774621359194725,87.0847090700399
53.845826399222496,41.31295011257559,41.532435881199,318.8322380022075,63.58902836621974,44.88672330121028,86.99269028105664
53.70844661710627,41.27156013701811,41.45839450864566,330.589292449784,63.36585493081634,44.99512369056729,86.89897713572599
53.572894040045405,41.22518808225624,41.39253377789796,342.5953386125675,63.14657776034507,45.09953169818335,86.80396529034861
53.439767005393,41.17400749153874,41.33503411839956,354.83929751756494,62.93180505687474,45.19968159015058,86.7081123560752
53.309613285109606,41.11825262144787,41.286021295637035,367.3096150677395,62.72210560974659,45.295346841746536,86.61189745890826
53.18295135468568,41.05820048303831,41.24555225317662,379.9943021779399,62.518032080811224,45.38633033711673,86.51579120105224
53.06027222309219,40.99416400489266,41.213619828021095,392.88054693167464,62.320150701337546,45.47245402366697,86.42026874592064
52.94202537357646,40.926500298946955,41.190164184702844,405.9541446062762,62.129038671335934,45.553576583803796,86.32582981371444
52.828623819884655,40.85561046722509,41.175070768158356,419.1991047386939,61.94525750860249,45.62962928656294,86.23298249143407
52.72047632568166,40.781919723944,41.16815748814693,432.5977030369348,61.769341887294416,45.70063157543673,86.14221198606523
52.61800816597042,40.70585747041435,41.16917210186281,446.13101595064154,61.60181106135239,45.766674585896595,86.05398529695934
52.521645189467506,40.62785769980611,41.17780725136406,459.7795760832264,61.44316872381785,45.82790659050902,85.96878714037028
52.431790393567255,40.548370141351924,41.19371576447155,473.5236960448226,61.29387352640271,45.88454903930544,85.88712993078495
52.34883027313021,40.467856923106055,41.21650916626678,487.3434604951764,61.15431098055301,45.936921352381255,85.80951637167286
52.273159795822316,40.386772573173936,41.2457452821843,501.21891987638395,61.0248088691308,45.98543736843824,85.73640139095849
52.20518568617454,40.30555445978316,41.280924290973246,515.1307739891421,60.90569008955979,46.03057982599677,85.66819959724775
52.14529905600071,40.224641680885966,41.32150116390492,529.0609246547499,60.79730715749983,46.07288732943375,85.60531812918792
52.093850848104665,40.144501511561174,41.366900357991504,542.9922769417109,60.700028312049966,46.1129588266145,85.54815859571463
52.05115616176396,40.065630765832495,41.416516304147265,556.9081609317655,60.614210861662215,46.1514474361618,85.49707953366435
52.01750977035286,39.988534307435145,41.4697066831027,570.7921377552676,60.54020004483007,46.189032209645255,85.45237120337586
51.99317977206787,39.91371166055835,41.52580084589962,584.6283137374066,60.47833667431057,46.22639534854938,85.41427561186634
51.97838054554914,39.84166385225401,41.584127129779574,598.4016130722645,60.428939309701484,46.26422996435352,85.38301550824568
51.97325885372465,39.77289847873166,41.64403496190484,612.0977468077871,60.39227029936233,46.30325904392798,85.35878430350144
51.97790993574106,39.707914657431516,41.70489296080845,625.7031820575538,60.3685262613787,46.34422836766447,85.3417106670407
51.992396710581865,39.6471826496317,41.7660745296054,639.205182153239,60.35786037125812,46.38787269290228,85.33184741589372
52.01674210062858,39.59114224718268,41.82695612615786,652.5917103238131,60.3603957206275,46.434888455610036,85.32919146626068
52.050907580779835,39.540215563032376,41.88693554161381,665.8512429582102,60.376203692664475,46.48593015860842,85.33369161056477
52.09479003521825,39.494807656968206,41.94544966709542,678.9727282346956,60.40527520363173,46.541610604658814,85.34522285751518
52.148236655951024,39.455286799791544,42.00197147387967,691.9459010237388,60.447521098042024,46.60248208422769,85.3635648914451
52.211048769929384,39.42196649959547,42.05599656722862,704.7618709898672,60.502792889469944,46.669006056826376,85.38842499389897
52.282964570655906,39.395107603729194,42.107044210793,717.413407006671,60.57088636242016,46.74153748217561,85.4194839272411
52.363647083048,39.37492853098866,42.15467352058204,729.8945122256863,60.65151914013438,46.82033448024474,85.45640887747952
52.45270039158553,39.361600873180116,42.19849074474413,742.1996529249161,60.7443157895503,46.90557450201213,85.49882658742006
52.54969680415758,39.35522762879257,42.23814017339634,754.3231918179196,60.848827064790115,46.99735326775605,85.54631042743881
52.654180421333216,39.3558201764989,42.273306462378905,766.2591096948352,60.96456200002267,47.095670557571076,85.5984136574006
52.765646020516634,39.36329029751557,42.30374744769931,778.000822762965,61.09099342515491,47.20042918126928,85.65470923037579
52.883530460924256,39.377460957585384,42.3293296596835,789.5410265955721,61.22753958470024,47.31145687361329,85.71478697550725
53.00724079989251,39.39808445404239,42.35003063920383,800.871552944403,61.37356902752385,47.42852709856474,85.77822525256121
53.13619228707734,39.424855367059465,42.3659150857685,811.9831565848278,61.52845235035872,47.551356999369915,85.84459049606843
53.26981679696732,39.45741897450023,42.37711894899071,822.8653136806071,61.691617284947945,47.679597093526915,85.91347038153877
53.40754807184001,39.4953803448932,42.38385428199431,833.5061881045272,61.8625563436427,47.81283791670353,85.98449051165541
53.54881904944064,39.538309140519104,42.3864125870476,843.8926431768281,62.04080232422275,47.950628157051064,86.057287551829
53.69307629536403,39.58573222649135,42.38514484769171,854.0101819618232,62.22591927710271,48.092479435107144,86.13147668507428
53.83978242454598,39.63712031832266,42.38042904529033,863.8430518692958,62.41751259163142,48.23785677682938,86.20665782597246
53.988397313970374,39.691889172008736,42.3726541264584,873.3746405109794,62.61522239196246,48.38618269462145,86.2824452627772
54.138370118103566,39.74942664295697,42.36223092006946,882.5878422852941,62.81869122508703,48.53686887958166,86.35847054365424
54.28916436800193,39.809126344732235,42.34960721307854,891.4651598787668,63.02754343880078,48.6893503981251,86.43435143061369
54.440288506285405,39.870399847425176,42.33526098613496,899.9887999871156,63.2414025179957,48.843090995354444,86.50967463061393
54.59129360040411,39.932670336212205,42.31967941551784,908.1410976118459,63.45991716952113,48.997564175027385,86.58402153209553
54.74174415210002,39.99537332726168,42.303350293260614,915.905117298392,63.682754403979835,49.1522415284718,86.65700152581277
54.891200508288385,40.057970718519414,42.286768991967236,923.2649560180686,63.90956756269614,49.3066012897586,86.7282466441482
55.03922840455563,40.119957597278315,42.270437251613316,930.2056394809755,64.13997915188544,49.46013606886223,86.7973809518296
55.18540856610572,40.18084851909631,42.25484202319112,936.7130201231727,64.37358694504466,49.61234002259476,86.8640156584133
55.32932141932003,40.240157434743594,42.240432085476,942.7739272587528,64.60996247914586,49.762685862099545,86.9277786040819
55.47052248326364,40.29739474504593,42.227610612979625,948.3763041589754,64.84862690738565,49.91061636267864,86.98833093059028
55.60854204916533,40.352084502481944,42.216736596032256,953.5091136439859,65.08903284264245,50.055557124172566,87.0453445542417
55.74291488606868,40.40377934326972,42.20811765682955,958.1621639734993,65.33057939651816,50.19693038318161,87.09848135934044
55.873206590789124,40.45205664148207,42.20199845332475,962.325974683834,65.57264031497438,50.33415119615442,87.14742265075915
55.99900626080042,40.49650941875547,42.19857335862278,965.9916747945617,65.81456621322955,50.46661800555785,87.19192689919139
56.119896687732044,40.53675533741855,42.19803324508546,969.1509601383923,66.0556613601802,50.59372550353744,87.2318480134199
56.23543912236085,40.57246136178497,42.20061109345122,971.7960464278941,66.29517484513015,50.71490077041955,87.26709661559883
56.34519569638921,40.6033566316021,42.206592058687626,973.9195189502016,66.53232958541547,50.82962851265897,87.29759875996425
56.44877149737353,40.629221761218766,42.21629535903474,975.5141459390948,66.76636172278273,50.93744336472118,87.32329742140936
56.54583697681137,40.649877592957594,42.230064571808605,976.5728527586713,66.99652774657125,51.037909770811304,87.34417287491253
56.63612518984873,40.66519587030642,42.2483083596681,977.0890845655114,67.22207894179182,51.13062037289309,87.36023396529869
56.71942933626808,40.67511916615972,42.27158692664356,977.0575339755325,67.4422436492895,51.21521195763579,87.37148575398567
56.79560297523446,40.67966153963394,42.30067082196017,976.4747557661728,67.65624254090942,51.291370920582814,87.3779217903678
56.86454436347529,40.67888837209171,42.336525765422756,975.3392751385934,67.86331287763309,51.358816780491885,87.37955111434346
56.926168624093556,40.67290361201018,42.38026039076538,973.6513337777644,68.0627105830701,51.41728646958652,87.37641276708773
56.980394975862396,40.66186003390462,42.4330757217528,971.412629730264,68.25371233024475,51.46654024716745,87.3685495003749
57.027162051495814,40.64597111647963,42.49621126349486,968.6263304403985,68.43566511862004,51.50637675213825,87.35597803418192
57.06644784667658,40.6254991874951,42.570884058603035,965.297401857585,68.60806905994177,51.53663274888378,87.33870105210887
57.09826462982802,40.60072692619046,42.658239172773456,961.4329625254453,68.77062255501524,51.55716981921207,87.31674412458835
57.12263713396686,40.57193891214185,42.75932314419589,957.0424665345947,68.92320869564091,51.56787363670342,87.29016302022232
57.13959645453794,40.53942428070001,42.87506682563917,952.1378133281269,69.06587801264607,51.568675146182464,87.2590100438442
57.14919417941219,40.503483817028055,43.006259226414834,946.7334172212672,69.198860716525,51.55957011250869,87.22330734425567
57.151507446018165,40.46442211493061,43.1535171673303,940.8461532759707,69.32257090952238,51.540614049348584,87.18306337519414
57.14662118536684,40.422531465224296,43.31727779951041,934.4951163955759,69.43756443577828,51.51190534444142,87.13830453085285
57.13461236631331,40.37809189128263,43.49782740650747,927.7011725951925,69.54446381855418,51.473588381922006,87.08907418424971
57.115559310953245,40.33139329521227,43.69533710409254,920.4863940627745,69.64388210061941,51.425878829918815,87.03540566868963
57.089560473450526,40.28275384020514,43.90986776629471,912.8735263509217,69.73636475288465,51.36907683704636,86.97731861867207
57.05673243073916,40.23251201337612,44.14135297088547,904.8856275221244,69.82238830720192,51.3035494527363,86.91485029010668
57.01718795014229,40.181003139014265,44.38959882405897,896.5460716603,69.902485883951,51.229707386382245,86.8480745089991
56.971024998430345,40.128547166750515,44.654307984208366,887.8789319163128,69.9774864917138,51.14800403294234,86.77707806769976
56.91834235393542,40.07545860622265,44.93509672218927,878.9093689043614,70.04870496344317,51.058945586563055,86.70193204379747
56.859258509380254,40.0220618950747,45.23149228696178,869.6636940234623,70.11795061284386,50.96308220011439,86.62270782715153
56.79390623528408,39.96868924369387,45.542935738581406,860.1691343844999,70.18739922129323,50.86097849291958,86.53952378883771
56.722411966276375,39.915662843602604,45.86880364495296,850.4534210470115,70.25943773132359,50.75319260657667,86.45256205566967
56.64488916732615,39.86328466506929,46.208426595830296,840.5442877950139,70.3365394800516,50.64027979000128,86.36203682794931
56.561448790998604,39.81184536221876,46.56108550135793,830.4689707078927,70.42117966410055,50.52280049026894,86.26816076983307
56.47220129999351,39.76163588602251,46.92599707934822,820.2537932777932,70.51577043012884,50.40131056453704,86.17114588800939
56.37723715556402,39.71294240644176,47.30230739052063,809.9239373731295,70.62259105219857,50.276343966545525,86.07121453122822
56.27660526887159,39.66603270586923,47.68909162404916,799.5034061370368,70.74372027555334,50.148413293366964,85.96858216125226
56.17031661994084,39.62115535489269,48.085345701076946,789.015002288509,70.88099627076913,50.01802760646444,85.86342416931917
56.058371236537866,39.57854947729423,48.48996579575463,778.4802016473001,71.0360015076544,49.88569910798639,85.75587186174691
55.94077656119779,39.53844321842287,48.901729890300324,767.9190577225085,71.21004191536299,49.751923661336726,85.64604251554984
55.81754262094548,39.501036121740476,49.31930342892568,757.3502726980752,71.40411482296314,49.61715452978364,85.5340559678272
55.688681905300434,39.46648684958305,49.74127202238556,746.7913172718381,71.61891043000259,49.48179652815815,85.42001067864469
55.55423609625585,39.43492244017206,50.16617196327634,736.2584461562747,71.8548869206682,49.346221440374734,85.30395411145072
55.414304706955555,39.406455794912354,50.59249713766301,725.7666558575398,72.11237949512471,49.21077874275279,85.1858904820097
55.26904153792291,39.381188596463836,51.01870317514568,715.3297382615922,72.39165454857411,49.075784583920594,85.06581363130033
55.11862541528651,39.35920229112296,51.44323563628529,704.9605183618202,72.6928913614939,48.941504613334175,84.94371705251227
54.96323899715296,39.34056008201257,51.86456912970618,694.6711994230949,73.01616986700468,48.80815718243646,84.8195700753622
54.803072809097905,39.32532397545684,52.28122409153166,684.4736154770991,73.3615183615574,48.67593680827949,84.69330221896966
54.63833773535875,39.31356268547787,52.691757202467194,674.379259446417,73.7289689723404,48.54502872676069,84.56482526371755
54.469264802722236,39.30533730605831,53.09475431411747,664.3991576409621,74.11854683349478,48.41559831957704,84.43406420925797
54.2961204185333,39.30068575051869,53.48884493964059,654.5437640189859,74.53019723371658,48.28777810778591,84.30095444889433
54.119304808052895,39.2996293591239,53.87272137598203,644.8229641836567,74.96369981182126,48.1616825274279,84.16541412833567
53.93952342840337,39.30219194173827,54.24513960196128,635.2461715051305,75.41859624567883,48.037444308773956,84.02733832821059
53.7579037494959,39.30840330819246,54.60491394409839,625.8225173677015,75.89413824574139,47.91523612879044,83.88662662035286
53.57597306016345,39.31828248714903,54.95093138175656,616.5612214633852,76.38928046761917,47.795261124300396,83.7432008193307
53.395548605447225,39.33182538905799,55.28217631980052,607.4720568428795,76.90276186091407,47.67773558041192,83.5969858377704
53.21862137506702,39.34901582964502,55.59773349348775,598.5655555540998,77.43326259044508,47.562887038856495,83.44789204589118
53.04727090369892,39.369845547289096,55.89676344506535,589.8528450116254,77.97953124733668,47.45095714853028,83.29584453691064
52.88361876739042,39.39431668977238,56.178478089022256,581.3453641279561,78.54040468380542,47.34218922301962,83.14083578047152
52.72980974824686,39.42242939498158,56.44213992625317,573.0545490421739,79.11476795968716,47.23680975460879,82.98293962922874
52.58800266005056,39.45418057429388,56.68707623034597,564.9914116163216,79.70153812636029,47.13502888544411,82.8222765276963
52.460351508093964,39.48957835558146,56.91268067202597,557.1660776476317,80.29968128919491,47.037057292049155,82.65898251342963
52.34896073115378,39.52864696718063,57.11839556579659,549.5874459940953,80.90822807612615,46.9431102952773,82.49321920440718
52.25582343777715,39.57141261376017,57.30369904878652,542.2631051538639,81.52628302027331,46.853388732586424,82.32519739236473
52.182774514328784,39.61790102214729,57.46811559888117,535.199503492038,82.1530536551915,46.768062195530476,82.15516915994023
52.131473443120406,39.66817242831633,57.61123294334492,528.4021763431875,82.78790522880118,46.687279967065514,81.98339534810651
52.10339513428462,39.72236735485201,57.73269961698637,521.875890371177,83.43039606227468,46.611197608827354,81.81013448489234
52.09980566179383,39.78071655139306,57.83220863574006,515.6247142895173,84.08024227258153,46.5399855043715,81.63566444084525
52.12173358729523,39.84351070580825,57.90949271966378,509.65197850417917,84.73722112920379,46.473813698975924,81.46029422989815
52.16995856778169,39.91106540106187,57.96433618576913,503.9600803319698,85.40106053282368,46.41284418595115,81.28433881704755
52.245011924958725,39.983705787607946,57.996582335008526,498.5502204904585,86.07134548848558,46.357248081884805,81.10809083698832
52.34716757500107,40.06175933603247,58.00612291465607,493.42220720389065,86.74745438909476,46.30722193584289,80.93183267574076
52.47641996303224,40.145534992748765,57.99288543087393,488.57441658393867,87.42852698834784,46.26297565714929,80.75587450114743
52.63248077570059,40.235291485446915,57.95684097892389,484.0039066399979,88.11345113059555,46.22470572901632,80.58056509603615
52.814848724576116,40.33121836557899,57.89802756301292,479.7065901844896,88.80085642495575,46.192588705093264,80.40626292068652
53.02295349168247,40.43344003155225,57.81656040410616,475.6774073408228,89.4891136446202,46.16680248062784,80.23331392464377
53.256276327802574,40.542022794865545,57.712618244082144,471.9105112496396,90.17633754849888,46.14754384307767,80.06206977490456
53.51436910583881,40.656964058577486,57.586427844899994,468.3994361115468,90.86039565985465,46.135016784763934,79.89291610880541
53.796841243838124,40.778171904850915,57.438268498201374,465.1372194345953,91.53893173167445,46.12940878513497,79.7262644150171
54.10346619417401,40.90545979076588,57.26848718043085,462.11648886631554,92.20940383953081,46.130886265335626,79.56251785200011
54.43442356293963,41.03856473981687,57.07749931156526,459.3295050552968,92.86914920642845,46.13960699741365,79.40206255625104
54.790481921068924,41.17716822882792,56.86577212747914,456.7682684170675,93.51550985227931,46.15572013607768,79.24529601071585
55.1729693612373,41.32089596151109,56.63381562350955,454.4247965965866,94.14601979663868,46.1793451849413,79.09264437108313
55.583613850053624,41.469312131625784,56.38219765076716,452.2913622930165,94.75858338065244,46.2105558294363,78.94453685101969
56.02442150274819,41.62197027729802,56.111564705462655,450.3604517865374,95.35155835511358,46.24938864584586,78.80137176036565
56.497650912524804,41.77855610814698,55.822641850038515,448.6245329028021,95.92372834141341,46.29585966929155,78.66352264381362
57.00580920579169,41.93904743811512,55.51621685641885,447.0758280410951,96.47421407441385,46.34995975310028,78.53137378819193
57.55158048609452,42.10377820487997,55.19313386625767,445.70616668107266,97.0023665632259,46.41162907467764,78.40532989109957
58.13769098611698,42.27340667620874,54.85430039397729,444.5068976713648,97.50767306998843,46.48073814682895,78.28578209460989
58.766810072844514,42.448883060633165,54.50068564016046,443.4688295216764,97.98972602499681,46.55709134033248,78.17307542562708
59.441611992178174,42.63145595255406,54.13329987164861,442.5822032155359,98.44827801827452,46.640437826495784,78.06751630344021
60.16498616560492,42.822660960078906,53.75317569891846,441.8367689115969,98.88332609460696,46.7304692262365,77.96939571247627
60.94018462232582,43.02424601674958,53.361375405405234,441.22212974118383,99.29518041953924,46.8268105872725,77.87898318894793
61.77075043718911,43.238058641481835,52.95901554230723,440.7283466856035,99.68455135138618,46.92902578991003,77.79650049001883
62.66030626442587,43.465991275320505,52.547275427076805,440.34643083468717,100.0526439421622,47.036635117479626,77.72212304585501
63.612371226925944,43.71015822440849,52.12737857044805,440.06843998272745,100.40120219755113,47.14912206520246,77.65601532540379
64.63030850686084,43.97332893673842,51.700572282424844,439.88733211643154,100.73256838631279,47.265924808714786,77.59835019667261
65.71738185737672,44.25929186069728,51.26812543820813,439.79681118309037,101.04982424538596,47.38643554639132,77.54928345467312
66.87679404503638,44.57285667620532,50.831330877308076,439.7911716874944,101.3568686868556,47.51002164639329,77.5089194350756
68.11163257588889,44.919590599573574,50.3914926482719,439.86505168706856,101.65829463366181,47.636048557626424,77.47731590009488
69.42477248000202,45.30550550167266,49.949906193770644,440.01310541764656,101.95916071403335,47.7638802253792,77.45451957004956
70.81877901766606,45.73678026454636,49.50785406442856,440.22969857048287,102.26478989782147,47.8928650966414,77.44057797734604
72.2957873484418,46.21954010313923,49.06661664020877,440.5086938594194,102.58059390361964,48.02233448411723,77.43550782086821
73.85735696876675,46.75969896813579,48.62747319540964,440.8433208875745,102.91188668701653,48.15162043066817,77.43926550605292
75.50435268778843,47.36283455013042,48.19168323391555,441.2261603475504,103.26369767354514,48.280071868502745,77.4517628290578
77.23691220219455,48.03406096624902,47.760469620248735,441.64931525139673,103.64061125432532,48.40705124092059,77.47290356141973
79.0545158396374,48.77789790423834,47.33502471175727,442.10469151813777,104.04666121141604,48.531925136609985,77.50258744196499
80.9560971432489,49.598157111754766,46.91652741075389,442.5841912571425,104.48532128490247,48.65407066824899,77.54068181898846
82.94010755291852,50.49787353714474,46.50614170872948,443.0797557319153,104.95958279475909,48.77288945804944,77.58701359252801
85.00450930131278,51.4793032447448,46.104994023120696,443.58332781581055,105.47202147920936,48.88780551978371,77.64140064871259
87.14672044967412,52.54396735945198,45.714158254565575,444.08680283301845,106.0247983467505,48.998247200818746,77.70367503760197
89.3635617728784,53.69267946587647,45.33466433365921,444.5820091184042,106.61967385997221,49.10363785138147,77.77366027371528
91.65130173231401,54.92552640769833,44.9675085866988,445.06071375975426,107.25808951101129,49.20341046548508,77.85113557727013
94.00583092872344,56.241834076788265,44.613641291842846,445.51461458794967,107.94122508078415,49.2970301329392,77.93583793231102
96.42285366106854,57.64015121525129,44.27393923009626,445.9352870494319,108.66996038494544,49.38399849749256,78.0274946122091
98.8980487711568,59.11825787514431,43.949189527712065,446.31408561735265,109.44482743072017,49.463842490972134,78.12583398081726
101.42726168451773,60.673211928001656,43.64009361388903,446.64205102739845,110.26605081163129,49.53611236345542,78.23055780591925
104.00665544593072,62.30143991982034,43.347272685833794,446.9099066188163,111.13362840512974,49.60039586062201,78.34132019356707
106.6326893178061,63.99882808506905,43.07125716643881,447.1081718487495,112.04734884232407,49.65632649190434,78.45775012777216
109.30197836017147,65.7607614174456,42.81246985138457,447.2273041660485,113.00674238711004,49.70356988261323,78.57948756956002
112.01117110515291,67.58211603102991,42.5712271708613,447.25776836874365,114.01102654836842,49.74180262644941,78.70618192237849
114.75687622608537,69.45725002242767,42.34776355531993,447.19004900296125,115.05906591520889,49.77070990652313,78.83745873495708
117.5355967086793,71.38003993994442,42.14225316692506,447.0146847532438,116.14933228543225,49.79000565919008,78.9729066006933
120.34365777778787,73.34399274250119,41.954805584577564,446.7223779877702,117.27985986916792,49.799449779332164,79.1121016715604
123.17713462038616,75.34241975561278,41.78544496719788,446.3041665450276,118.44820270332112,49.7988429442192,79.25462658719222
126.03178777560278,77.36860712432977,41.63410122884856,445.75156388549107,119.65140716803184,49.7880152845662,79.40004946137034
128.90306520971953,79.41591525548823,41.500625884494916,445.05659776924307,120.88600219269702,49.766837289827954,79.54789220764538
131.7862208825173,81.4778345401586,41.384813067535966,444.2117785929608,122.1480068141603,49.73524930447632,79.6976375002894
134.67646195003323,83.54811346200194,41.28639967926059,443.21007713577734,123.4329821224249,49.69327649640339,79.84876977148534
137.56898903772526,85.62098862794075,41.20504897461485,442.04501628020904,124.73614367275452,49.641014018927756,80.0007962981898
140.45892642013223,87.69138807558176,41.140345913703236,440.7109044937801,126.05247915687565,49.57860387990936,80.15322648420027
143.34124175175532,89.75498700966176,41.09181555259837,439.20306334179946,127.37683933416565,49.50622977254036,80.3055547762107
146.21071001748103,91.80811994996559,41.05894170514032,437.51791138147837,128.70410736977317,49.42412715103846,80.45728898198784
149.061890454554,93.84761746769162,41.04116334900291,435.6529286935522,130.0294999127201,49.332583714686066,80.60799455941392
151.88909386647933,95.87062765011405,41.03785963006276,433.60657299184163,131.3488119853818,49.23192360261665,80.75729776948974
154.68638262441686,97.87453543868156,41.04834973548464,431.3781685047402,132.65845089331245,49.122501000841254,80.90484879470964
157.44762565375567,99.85724072015014,41.07191148318249,428.9677918641088,133.95538561926813,49.004721397070874,81.05030021427608
160.16656871679808,101.81789131789208,41.107796238025266,426.3762532835311,135.23716450189588,48.879068837461034,81.19332818752244
162.83690350034436,103.75760578980318,41.15522613217575,423.6052271235253,136.50194731635844,48.74610703421342,81.33365859009302
165.45234906952254,105.67963285424709,41.213390486723746,420.6573838992303,137.74844873355065,48.60645792488312,81.47105594161343
168.00671611323662,107.58897829939535,41.281464445495416,417.5363585363484,138.97581318507264,48.46079041808917,81.6052929685686
170.4939295483744,109.49186366664809,41.35864165033233,414.2466329361778,140.183496763338,48.30983408804546,81.73614741500654
172.90805807628027,111.39528399920029,41.444148827724625,410.7935329791089,141.37116968341707,48.154393936106594,81.8634258883791
175.243386257584,113.30692121038248,41.537231807615065,407.1833532383808,142.53860608985397,47.995338437079894,81.9869677658557
177.49448337942414,115.23555053090395,41.63714041358824,403.42340485447016,143.6855612492743,47.83356914411162,82.10661053879357
179.65621837850964,117.19157044334042,41.74313898280211,399.52189037393293,144.8116861969057,47.67000184054918,82.22215924777944
181.72371961805004,119.18707837511575,41.85453085281109,395.4877978382547,145.9165370304748,47.50556552021466,82.33340546478057
183.69230258156387,121.23541516617168,41.97066455187223,391.33097887116736,146.99966574209543,47.34119571411239,82.44017623905664
185.5573947051702,123.35060044430733,42.09091463599985,387.06225658371943,148.06068084342303,47.17781109621555,82.54235217439276
187.3145033873173,125.54706452928907,42.21466031459514,382.69334393737614,149.09919777084315,47.01629633441967,82.63984234648271
188.9593100093767,127.83968620268364,42.34127878243841,378.23662833031835,150.11473858021327,46.857512540005224,82.73256679198995
190.48792430835326,130.24378066435264,42.4701444746467,373.7050235958976,151.10669169588724,46.70231839508321,82.82047296079027
191.8971552924961,132.7748247951155,42.60061912254642,369.11192216593963,152.07435163440852,46.55156898692707,82.9035472147899
193.18462983645912,135.4481057720678,42.73203533667718,364.4711030312641,153.0169573832117,46.406089262475916,82.98178861068465
194.34883189845803,138.2784939926553,42.86369272488046,359.7965301355039,153.9336879644321,46.26664659966951,83.05517713790572
195.38923326026108,141.28030227313414,42.994876421610094,355.1021443366416,154.82366779406024,46.13393630795263,83.12368594154856
196.30646149241966,144.46712540930668,43.12488035451874,350.40173018383746,155.68599657130522,46.00857094885693,83.18732692715791
197.10231917895294,147.8516842586269,43.25301178306162,345.7088334121076,156.5197439256916,45.8910627418762,83.24616928223028
197.77962463950618,151.4458805293042,43.37858076120472,341.03670325142093,157.3238901978941,45.78180695584044,83.30030694442162
198.34198206592862,155.26112300133485,43.500898766123925,336.3982389778569,158.09727052480443,45.681088842290166,83.34982015903886
198.7935683310513,159.30853152339773,43.619297583865155,331.80589535300857,158.83857335529757,45.58911841820413,83.39477772067117
199.138970904952,163.5986687032162,43.733150588367224,327.2715482910798,159.546373780131,45.5060607506163,83.43526345359335
199.38306401857335,168.1409737024606,43.84187554365109,322.80639689554937,160.21914562580005,45.43203431483828,83.47137826198181
199.53088142614885,172.9432407304368,43.94492726599813,318.4209741582334,160.85523929778773,45.367099339674176,83.50321474542402
199.58747349365882,178.0112655939997,44.041799860751325,314.12523673728975,161.45285925344865,45.311283313727266,83.53084954936166
199.5577992615371,183.34859776006948,44.13203306081609,309.9286070648855,162.010058234411,45.26464815359179,83.55436807214494
199.4467482942908,188.95630760379143,44.21520390823519,305.8399361050347,162.52473068590487,45.22734219313911,83.57387776526117
199.25930342803227,194.8328174381151,44.29090782760823,301.8675723075762,162.9946102722321,45.199594479431155,83.58947856732131
199.00067832509853,200.97403027888038,44.35875574979937,298.01963948295736,163.4173257750109,45.181677819476946,83.60122150372965
198.67628106269245,207.37386346457365,44.41839900684439,294.3042744676791,163.79053040767374,45.173882249160684,83.60910553159893
198.29155037333672,214.0248447300247,44.469556384497814,290.72957668314103,164.11201844081535,45.17649879920203,83.61311261322753
197.85177570532804,220.91837511617197,44.51201545807868,287.303357453194,164.379766415483,45.18979312317672,83.6132295238541
197.36194616436327,228.04476596102577,44.54562070848419,284.03288567976455,164.5919693868496,45.21397133852252,83.60942893617644
196.82663796586564,235.39332225695114,44.57027808311016,280.92470662739953,164.7471414924811,45.249164269885526,83.60164768249803
196.24995852550649,242.95239201958492,44.585973376768294,277.98452091781434,164.8442103731968,45.295440867120824,83.58980402454142
195.63556509345005,250.70921683940756,44.59277576181959,275.2170826497842,164.88252154084216,45.35282453737943,83.57383401742484
194.9867297764367,258.6496677213493,44.59081700261984,272.62609253499306,164.86179965015305,45.42128412746537,83.55369703963015
194.30639080460946,266.75801591798984,44.58026913580718,270.2141012762796,164.78214030817963,45.50070917459022,83.52934697490394
193.5972027468264,275.0168121736884,44.56134588792236,267.9824504713302,164.64400438472185,45.59090817511895,83.50071704172231
192.86166855034878,283.4069272722156,44.53432257532551,265.93126164616683,164.4481571110742,45.691651064203626,83.46774624264141
192.10234077507124,291.9077260982096,44.499543719191244,264.05947287500425,164.19557481340615,45.80272593350806,83.43041344703614
191.32196533505476,300.4972291552278,44.457405796000224,262.36490937764705,163.88740329265988,45.92396341894974,83.38873563340954
190.5235046232436,309.152158589335,44.40833861768209,260.84435699339696,163.52499964264504,46.055224066632384,83.34274824644548
189.71007821795934,317.8479110653084,44.352806586064396,259.4936198340606,163.10997699638526,46.19638004185754,83.29252299385864
188.88486146956035,326.5585415287764,44.29131661447871,258.3076007192173,162.6441701503855,46.34730782982464,83.23822422089587
188.0509612419002,335.25680602737447,44.224407597956635,257.2805025579292,162.12955225575294,46.50787757904171,83.18013879446103
187.21128793279684,343.9143313643094,44.15262388046575,256.4061585628682,161.56817811967466,46.677929617579686,83.11864606043831
186.36844595709954,352.5019903193222,44.07650467377061,255.67831180784526,160.96216796958063,46.85725530563628,83.05417451432115
185.52465666946034,360.9904129463067,43.99661143550322,255.0907306256346,160.3136870485089,47.045595227489216,82.98719597998371
184.68170854167107,369.35040642781047,43.91356984459042,254.637252369661,159.62490068715385,47.24264012247956,82.91824028226002
183.84093373289178,377.55315222135465,43.8280837190622,254.31181442397158,158.89795261319696,47.44801961598955,82.84788135900797
183.00323143453892,385.57024786246046,43.740916332190054,254.10844938736412,158.135001959338,47.66129697614604,82.77669307356199
182.16914158553308,393.3737510411779,43.65286850709325,254.0212910829369,157.33826451645754,47.88200875699319,82.70522384408403
181.3389373492735,400.93643093912937,43.56476522895101,254.04463480573835,156.50999878466516,48.109749325593235,82.63401415768276
180.51271621746355,408.2322946364436,43.47743558243019,254.17297277194314,155.6524917723437,48.344237378407,82.5636173481521
179.69048650329233,415.23712244620066,43.39168106826057,254.40091009822464,154.7681544927088,48.58531594363676,82.49458120923619
178.87222221245992,421.92871109361545,43.308259906739494,254.72299296203806,153.85971516728898,48.83291150337946,82.42740973835359
178.0578650345025,428.2868215188522,43.22792054656956,255.13356236175284,152.93035354296143,49.086996535788764,82.36255458649362
177.24728819230435,434.2929935725171,43.15146914350177,255.62669244785468,151.98367014413486,49.347561154039134,82.300439600845
176.44023680532382,439.93036284108456,43.079810786736516,256.19619865838763,151.02354702777166,49.61459387473117,82.24147025387751
175.63626777976225,445.18353512093256,43.01393362092396,256.83573943280794,150.0539986496689,49.888110509396135,82.18600445040082
174.83474747044698,450.03848615599543,42.9548607270575,257.53902802277895,149.07904045733756,50.1682551892736,82.13432635178646
174.03494562108148,454.4824557609386,42.90360327202847,258.3000190840981,148.1025658991422,50.45541306081011,82.0866684043396
173.23620765644475,458.5038820887991,42.86112524789871,259.11294079439904,147.12823682684768,50.750254651912236,82.04325881344077
172.43814942987106,462.09242066984945,42.82831424993419,259.97222257175184,146.15940206741325,51.05370667460417,82.00433356115637
171.64077729266006,465.23900413579105,42.805963298630445,260.87240385296053,145.19905107664204,51.366907381050765,81.97010192881218
170.84446354697462,467.9358662863538,42.79478777809542,261.80805296955043,144.24979069344192,51.69121722124539,81.94071802808163
170.04981987806323,470.17651329633065,42.79547929359984,262.7737407042712,143.3138271267259,52.0283255371059,81.91629731858781
169.25755733524795,471.95568282811524,42.80875144809774,263.7641069276942,142.39295680610337,52.380424567839086,81.89694899799491
168.46839416135796,473.26938231487225,42.835338340428954,264.7739973794291,141.48857298550547,52.75036620609785,81.88277487731284
167.68303934356715,474.11512874981753,42.875955663244255,265.7986193229236,140.60166867927404,53.14172570741195,81.87384309384292
166.9022140006327,474.49238215411253,42.931256188996066,266.83367844486264,139.73282625394353,53.558746456802034,81.87018578149201
166.1266382476969,474.40297008160354,43.00180952599187,267.87547810019015,138.8822330107705,54.00620300863567,81.87182665168285
165.3569752077807,473.85130301177855,43.08813836897937,268.9209483002716,138.04976169213944,54.48925741027715,81.87879039668232
164.59377533900897,472.84431520286677,43.19083322770475,269.9675653881948,137.23508011486445,55.013339964525834,81.89107164091772
163.83746610799673,471.39120501543965,43.31072277027054,271.0131802184753,136.43771135947517,55.58402810199627,81.90860490324441
163.08847261469012,469.5031475865622,43.44901333117945,272.05581655284817,135.65702034888093,56.20691286581442,81.93127699984284
162.34748752136912,467.1930786134769,43.60730875046652,273.0935024274297,134.89216732256398,56.88747404403726,81.95896023885659
161.61569193406285,464.4754986450905,43.78751299282325,274.1241924652456,134.14207410039225,57.630992601759594,81.99151598418982
160.8947425902755,461.36623795373885,43.99171408972335,275.14579575830373,133.40542916996287,58.44252930930459,82.02876817160784
160.18659165290228,457.88219354038256,44.2221706015084,276.1562837195845,132.68073373778938,59.32695841312809,82.07049776230852
159.49328656188436,454.04108470885717,44.48144053171293,277.1539156666535,131.96635898597438,60.28899993387685,82.11647771268967
158.81680926646587,449.86126011517126,44.772571563624105,278.13760933222125,131.2605776766013,61.333220923905074,82.16650086941937
158.15897348180818,445.36154124286134,45.09923404864833,279.10724765753264,130.56157970975696,62.464003016169826,82.22036408270057
157.52139141137604,440.56109464650484,45.46571127255435,280.063669968652,129.8675290123174,63.68545389824447,82.27784476172481
156.90548395397153,435.47940560943624,45.87673327680173,281.008423752254,129.1766746094023,65.00127630581851,82.33871651111161
156.31249345682224,430.13638818893156,46.33724090304612,281.9435455860235,128.48744459860885,66.41468031614835,82.40278285140938
155.7435126512253,424.5524904201731,46.85221265477886,282.8715264485347,127.7984815717827,67.92838851144586,82.46987620234557
155.1995639898083,418.7486405268063,47.42664172727261,283.7954126033577,127.10865352398257,69.54466750319207,82.53982363989353
154.68167903267994,412.74608962165235,48.06561905145059,284.7188647105834,126.41704936641338,71.26530980552091,82.6124338097031
154.19089055607935,406.5662894041258,48.77437684630264,285.6461493938641,125.72293427804546,73.09160051700198,82.68752559193995
153.7281399833929,400.2307956860605,49.55822752076076,286.5821752488813,125.02567929178082,75.02432568258101,82.76495092783914
153.29416831966955,393.7611180213408,50.422468511656014,287.53248447886256,124.3247077182769,77.06379586701212,82.84457359588836
152.88943176778992,387.17853745055334,51.372374304406165,288.5030687862609,123.61947262454441,79.20987063901907,82.9262378614512
152.51404091293676,380.50395656741216,52.41336149332576,289.5000981329209,122.90944043200811,81.4620253227701,83.00977695972867
152.16771626918154,373.7577748758085,53.551230531899144,290.5296454780574,122.19406439018097,83.8194316339337,83.0950465030648
151.8497898067369,366.9597645759683,54.792244178533586,291.59739557613943,121.47277264317738,86.28096727190953,83.18192712172261
151.5592909678823,360.12898875301653,56.14295940577532,292.7083766470605,120.74498931977725,88.84515534260592,83.27028839454017
151.29507430660902,353.2838140961159,57.60997969391133,293.8667685608289,120.01015826999418,91.51010578360028,83.35996692877461
151.05589523453295,346.4419760129558,59.199842630419944,295.07578754243247,119.26773809014917,94.27349892107412,83.45079107059372
150.84040903904815,339.62059443533343,60.919085264121506,296.33766066541483,118.51719994310122,97.13261272992472,83.54261467841603
150.6471291158338,332.836105716415,62.77433017005269,297.65379400097487,117.7580917267213,100.08437600712644,83.63531042560474
150.47438617593278,326.10417643149435,64.772305009952,299.0251853327622,116.99016354968951,103.12540252259865,83.72873668091351
150.32035204290815,319.439674340287,66.91997947610108,300.4528639467247,116.2134730839599,106.25199118641927,83.82273217005812
150.18314871676046,312.8566984758172,69.22497887115439,301.93806333101855,115.42842745126406,109.46015481861924,83.91714723535894
150.06094694052186,306.3686294982066,71.6960173920416,303.4820989864069,114.63579299945725,112.74570992153512,84.01186040269562
149.95197580060463,299.98818985195794,74.34294068121162,305.08614079042184,113.83669355995309,116.10434808712373,84.10675055921467
149.8544841898449,293.7274998201738,77.17640035419927,306.75102273077096,113.03257195883009,119.53161939601723,84.20166413952046
