HandOpen,HandClose,Wrist Flexion,Wrist Extension,Supination,Pronation,Rest
97.5042667268426,112.83014710717727,233.8151615477645,59.071938613820855,74.4758801591719,153.05847034781465,99.05604671868207
97.1524462800574,111.28709579527394,234.70125039432443,59.14535425833916,75.10228622874993,152.48569083262748,99.0834936176618
96.83967377478758,109.81819508505691,235.5495954003275,59.229488426999524,75.73561113695754,151.8808504299554,99.11867285085461
96.5660861020588,108.42494358138805,236.36112358051432,59.323933962203796,76.37370506420551,151.24661029297837,99.1613284369411
96.33155441189284,107.1089253912641,237.1369412185453,59.42823238298347,77.01442620331431,150.5855577354986,99.21118835016988
96.13571735693698,105.87187892164619,237.87828050668853,59.541870327161035,77.65567554416593,149.90017432365457,99.26798282115055
95.97804432008114,104.71561593780957,238.58639582146827,59.66429597796398,78.29538836860299,149.19285353716543,99.3314103218047
95.85789196470921,103.64190235697787,239.26249042720764,59.7949246290653,78.93153718393307,148.46593461748816,99.4011065867337
95.77450896305204,102.65242085071426,239.90766246711163,59.93312072603245,79.56216117484814,147.72168822221005,99.47666466218264
95.72699969407006,101.74881611628349,240.52281918488723,60.07818520628273,80.18538118445113,146.96226233000615,99.55767409581654
95.71431659503978,100.93271411122605,241.1085588597538,60.22937888530035,80.79938258447238,146.1896503391597,99.64371929577094
95.73534415580842,100.20564486292102,241.66506840093075,60.38596719076557,81.4024010953466,145.4056994692166,99.73434259230316
95.78903813127788,99.56891367089693,242.19207408583353,60.547240928745595,81.99273363085385,144.61211490949896,99.8290339043755
95.87450315540546,99.02348610441356,242.68883779020834,60.71250046920021,82.56874732430997,143.81042911865904,99.92726701091503
95.9909538410189,98.5698976977887,243.15418084121833,60.88103826389262,83.12886052353326,143.00195664145974,100.02852694837146
96.13761739278075,98.20819258210011,243.5865258191195,61.05214485264267,83.67151495207385,142.18777249470443,100.13228826722639
96.31366319754362,97.93794360973271,243.98392776043204,61.2251193422472,84.19517749354067,141.36875154533905,100.23798690886713
96.51818920628227,97.75837331952589,244.34407868085475,61.39926103521366,84.69837117890572,140.5456670140022,100.34504077370367
96.75022563198846,97.66847022023101,244.6643178572628,61.573860203730646,85.17969332801711,139.71927381191574,100.45289521205274
97.0087117997974,97.66699368297972,244.94167004528447,61.74822234264988,85.63780420242813,138.8903291277542,100.56103009830993
97.29245095900248,97.75239228335512,245.17289441509692,61.92171579625943,86.07142009473249,138.05960877090797,100.66892959435116
97.60006381404116,97.92272046700472,245.35455739379904,62.09379343437136,86.4793300721221,137.22796652660858,100.77607711402183
97.929960232719,98.17561481779009,245.48315022766667,62.26397009021131,86.86040640515083,136.39638626650577,100.8819938376936
98.28037706659401,98.50833992278511,245.55520546451348,62.43179268247721,87.21358933488956,135.56599548090884,100.98626305459476
98.64950873336254,98.91785696883333,245.56740153403126,62.59684089318861,87.5378804031851,134.73808368358775,101.08850049700226
99.03565453234157,99.40089652073227,245.51670853576536,62.758747201559316,87.8323790250077,133.91412976519973,101.18831062692328
99.43727335796018,99.95406485907333,245.4005260302898,62.917196851622414,88.09633536867646,133.09578498555567,101.28528682320868
99.85293128555645,100.57395989929597,245.2167090508908,63.07190084843429,88.32916431959974,132.2848055938258,101.3790472847141
100.2812164849457,101.25723784961379,244.96351384864658,63.22257881934315,88.53041241706053,131.4829866402867,101.4692452856869
100.72070848165446,102.00062292817638,244.6395683995012,63.368975142619284,88.69972047863662,130.69212286446145,101.55553082404225
101.17002919434547,102.80088669653335,244.24389718724044,63.51088039875477,88.83681755952452,129.9139705085528,101.63751527757985
101.62790402297898,103.65481492342552,243.7759635005594,63.64812182190885,88.94153647080627,129.15018914999402,101.71479023946976
102.093156478472,104.55915737427746,243.23568357094436,63.78053387750284,89.01381431823226,128.40228224612468,101.7869749736677
102.56466986278019,105.51055104981612,242.6233906437382,63.907948075186674,89.05366732427916,127.67155525873805,101.85372775543073
103.04138891046631,106.50543867777291,241.93977371725538,64.0302084210706,89.06117388632121,126.95908172494123,101.91471628083335
103.52234694368163,107.54002764056094,241.1858303205496,64.1471785475346,89.03649533734715,126.26567418914338,101.96960813731665
104.0066647086132,108.61030455828583,240.36283492560636,64.25872066453715,88.97990983553726,125.59187868128538,102.0181072033142
104.49355164050904,109.71206848562068,239.47230454740446,64.36467085818519,88.89181333666137,124.93799675234482,102.05998299591552
104.9823704602482,110.84094563892381,238.51597998436293,64.46484112956287,88.77268788261813,124.30412984182394,102.09505090985044
105.47271708010398,111.99238590260384,237.49585859395756,64.5590387907778,88.62308186755294,123.6902673863705,102.12314464349944
105.96441874028086,113.1616477537589,236.4142650915586,64.64707046026699,88.44362472231947,123.09643132713816,102.14413687459832
106.45744788020313,114.34378822376156,235.27391310481784,64.72872856195885,88.23504415289025,122.52281916871212,102.15798536672166
106.95182535169005,115.53371875644436,234.07792657116624,64.8037933256534,87.99815350080979,121.96985710373055,102.16473881636465
107.44756927609558,116.72635805437551,232.82981240618832,64.87206069157216,87.73382959635936,121.43814777494059,102.1645012542285
107.94468396828461,117.91679465650039,231.53339985954042,64.93336161229516,87.4430171371243,120.92838175537905,102.15742275746044
108.44313710988811,119.10035709973702,230.19277088966194,64.98754797597452,87.12674925838549,120.44128150630033,102.14374084286862
108.94280424191207,120.27261464963509,228.81218675118987,65.0344672359676,86.78614576909544,119.9775811541008,102.12380768742317
109.4434235677367,121.42939478279379,227.39601097776855,65.07395753458125,86.42239482881355,119.53799465411933,102.09805602618684
109.94459493408671,122.56682719079818,225.94864204502147,65.10586006815417,86.0367745206082,119.12315080083705,102.06695477136095
110.44580287240373,123.68134865860972,224.47445846443512,65.13002040602062,85.6307264774012,118.73353894893262,102.03101924353967
110.94643803219655,124.76963922087296,222.97775551554892,65.14626914249644,85.20590654186142,118.36951383165128,101.9908501458339
111.44582489665068,125.82853848101121,221.4626628275996,65.154406908081,84.76415660058511,118.03133753044952,101.9471292598019
111.94326843772211,126.85500665598856,219.93306950168108,65.15421937801918,84.3074362855409,117.71919639516061,101.90056841893356
112.43809202229671,127.84614003619849,218.3925894696695,65.14550907661125,83.83777330230201,117.43319740733185,101.8518773817097
112.92962189753064,128.7991875376423,216.84455357166703,65.12810661001487,83.35723565668984,117.17342449464701,101.80177704803604
113.41712068281838,129.7115212747881,215.29198491767582,65.10185379597785,82.86789614224428,116.94007481613052,101.75100649214878
113.8997103384188,130.58058247701314,213.73755464258087,65.06659299549162,82.37178132296177,116.73356957161229,101.70028322319193
114.37631304613839,131.4038659905739,212.18356862241185,65.02218810226718,81.87083379367623,116.5545651228364,101.65025265349362
114.84562767880347,132.17896532740463,210.63200977789742,64.96855514000472,81.36691479713271,116.40395668261635,101.60148359019041
115.30616027632202,132.90362168102186,209.0845887048994,64.90566653589782,80.86182863871886,116.28296147337129,101.55450291139134
115.75629684077315,133.57571761823468,207.54276278814908,64.83353500080612,80.35732531996948,116.19318060420395,101.50980761306467
116.19436598349937,134.1932255872277,206.00775342186301,64.75221336725912,79.85507721484139,116.13653677719206,101.46782813891643
116.61865143608989,134.75415368262125,204.4806130057931,64.66181647926686,79.35666639653284,116.11516004332837,101.42889259914125
117.02736451100787,135.25653166439886,202.9623567870961,64.56253043334124,78.86359512282935,116.13131204710537,101.39324551094568
117.41862664383767,135.69848987200967,201.45412180275,64.4545908151185,78.37728919895459,116.18733600101933,101.3610989948783
117.79052793791772,136.0784206514036,199.95729167342202,64.33825830240912,77.89907329064064,116.28559706885858,101.33264905781324
118.1412668304254,136.3951029235563,198.47355708894142,64.2138232490654,77.43013954337073,116.42841326478946,101.3080453702962
118.46926962718983,136.64770396310306,197.004926214841,64.08162689237646,76.97154252304043,116.61799939978981,101.28737308212393
118.77320209418467,136.83570239429392,195.55369696939937,63.942062518788404,76.52421947944687,116.85643038103245,101.27067611743097
119.05190326080691,136.95881853349573,194.1223889078979,63.79555193008551,76.08900324361613,117.14559378919309,101.25797495976099
119.3043136663377,137.01702635272056,192.71366330160757,63.64253285715015,75.66661095213809,117.48711177823631,101.24923904156924
119.5294244168188,137.0106734166122,191.33027966405027,63.48347878006756,75.25762754854217,117.8822568622244,101.24435012000333
119.72624280428455,136.94061356169175,189.9751070443912,63.31892285228416,74.86250478569127,118.33190553642126,101.24311387124715
119.8937748208479,136.8082264356404,188.6511597707699,63.149450144522845,74.48156895296358,118.83654264662144,101.24530976399434
120.03103551531106,136.61532319278268,187.3616010161431,62.97566951193399,74.11501945763372,119.39629216850946,101.25071324342976
120.13709493294894,136.3640189534276,186.10971375016075,62.798203126778375,73.7629291581282,120.01099206819651,101.25906502275872
120.21113440091129,136.0566252695907,184.89889955876913,62.617698425303985,73.42528332833218,120.68034411502316,101.27004193817315
120.25246253792525,135.69558549031828,183.73269990357292,62.43482870626124,73.10205480259188,121.4040652833253,101.28328328286678
120.26047759070096,135.28344907099483,182.61476633910334,62.25026531996881,72.79325491107551,122.1819522606703,101.29844493816078
120.23461584305836,134.82284221067528,181.54876885676265,62.06464880679301,72.49892213429221,123.01387037178351,101.31521281278307
120.17432574093948,134.3164170541645,180.5382875171198,61.878590158184885,72.21907484936067,123.89969971969938,101.33326995715285
120.07907136023391,133.76683807944625,179.58670028790675,61.692690956982425,71.95366744406846,124.83925788976453,101.35228062195485
119.94834449947928,133.17684526363416,178.6970668675791,61.50754484423991,71.7025649221117,125.83224447783397,101.37192026975941
119.78167211062544,132.54932093200202,177.87203857365648,61.323713148556614,71.46553152717202,126.87825040811062,101.39189977600645
119.57861912755439,131.88727532324378,177.11381185379517,61.141710875475596,71.24221907951726,127.97684737973748,101.41194152270394
119.33878032407931,131.19378587238123,176.42409220222504,60.96202863375496,71.03215623162129,129.1277187402704,101.43174928489458
119.0617602720095,130.4719900452913,175.8040423320469,60.78516427475862,70.83476561217635,130.33073461483642,101.45102830588458
118.74717647113084,129.72514482451754,175.25423693875734,60.61162395881578,70.64941437632058,131.58594014912612,101.469531628347
118.39472927299192,128.95665655879083,174.77467079217325,60.44189794996581,70.47545463924409,132.89352357149545,101.48706566277909
118.0043149785766,128.17001798791387,174.36488671024068,60.2764512718424,70.31222247836283,134.25379481047295,101.50344962172507
117.57609452307268,127.36870872848858,174.0242235926292,60.11574114375615,70.15902592010868,135.6671523444921,101.51848811161983
117.11047406046872,126.55615490994558,173.75202739456975,59.96022711172382,70.01516264354198,137.13402302168248,101.53198408008946
116.6080400046195,125.73577237061285,173.5476910433004,59.81035078333996,69.87995718000774,138.65478731185704,101.54374928367363
116.06950159983717,124.91103462745768,173.41058725748735,59.66651223464205,69.75278600209953,140.22973001178784,101.55357695047049
115.49565068767805,124.08550223347206,173.3400063994068,59.52907636152837,69.63309386175641,141.85900927718956,101.56121091741436
114.88733153611788,123.26279074484269,173.3351063919468,59.398395448193384,69.5204230676133,143.5425768403934,101.56635988509646
114.24543668239069,122.44648719150929,173.3948392777151,59.27480963659709,69.41444673925021,145.28004595516182,101.5687382694518
113.5709464783293,121.64005202781499,173.51785675253393,59.15862203967998,69.31497303258404,147.07059805996423,101.56807470387568
112.86498140667119,120.84673643512829,173.70244173782507,59.05008489872189,69.22191570818578,148.91297598199543,101.56408397494697
112.12881307637255,120.06955054062058,173.94651958180685,58.949416289774405,69.13526890980809,150.8055022369517,101.55646027435952
111.3638244557323,119.31138498973772,174.24772716821246,58.856818876394684,69.05510833940973,152.74607751547705,101.5449142608936
110.57145387405858,118.57530497001122,174.60344544596086,58.77246940879625,68.9815905716562,154.7321825030776,101.52920067258879
109.7531598476518,117.86479197281122,175.01075478337663,58.696496330966305,68.9149217976941,156.76087400094937,101.5090970932357
108.91042891309326,117.18373177351643,175.4663678271643,58.62898615938405,68.85531159221271,158.8287564679353,101.4843774733525
108.04481427578216,116.53622399088867,175.96660122628978,58.57001799572732,68.80295330625063,160.93197375966713,101.45483735464886
107.15795953286901,115.92637789227172,176.5074108721597,58.51968166352908,68.7580460322726,163.06624617114082,101.42034728209661
106.25159894014615,115.35817095692381,177.0845045916346,58.47805763507604,68.72081745657019,165.22690611646644,101.38086497442407
105.3275831671245,114.835401611166,177.69352211980313,58.44519144993499,68.69150704978509,167.40890790601344,101.3363989139893
104.38793655315767,114.36171640782005,178.330223104842,58.42110094202432,68.67033354296896,169.60683632981997,101.28698798215488
103.4348793479036,113.94061473730495,178.99061197582256,58.405805392885924,68.65749402411127,171.81491272460397,101.23272862815006
102.47078264105627,113.57536498295157,179.67097209895604,58.39933400967947,68.65318831961493,174.02698018271334,101.17379723159097
101.49809801529962,113.26889222612475,180.36785503635346,58.40170423158127,68.65762037582051,176.23649638876014,101.11042176076963
100.51930108355184,113.02376217425514,181.0780820537172,58.41290531679461,68.67096039166913,178.43656994149634,101.04284295606028
99.53684359327445,112.84228987559544,181.7987267296826,58.4329083485938,68.69330432423051,180.62001393872708,100.97132556971648
98.55309855972892,112.72663757526232,182.52703303455533,58.461677467072164,68.72466778333347,182.77936936178406,100.89620141497365
97.57030583277204,112.67877975231931,183.2603300679648,58.49915429166275,68.7650041196858,184.90689593265776,100.81787606323178
96.59054246639236,112.700377529517,183.99601884700078,58.54522997303872,68.81420829359455,186.99456177889786,100.73678996072529
95.61572423799537,112.79265389456644,184.73159528608198,58.59974140892563,68.8721018257702,189.03406118224737,100.65339821570618
94.64760991498174,112.95629658235127,185.4646434268702,58.66249556189778,68.93843460552107,191.01686579105143,100.56819991998543
93.68778193106016,113.19138918185166,186.19280195399313,58.73328449938129,69.01291349771098,192.9342847554507,100.4817611399948
92.73761329261696,113.49738824923229,186.91372634757943,58.81186784401693,69.09521933213199,194.77750935050696,100.39468269495977
91.79824918756857,113.87316205144239,187.62505434250835,58.89794739504214,69.18498883506945,196.53764918821972,100.30755290335684
90.87061654914145,114.31706236266753,188.32440069313589,58.99116701928082,69.28179270078905,198.20578176937113,100.22095197242446
89.95544562555042,114.82699058815922,189.00940978509794,59.09113093778322,69.38514970266914,199.77301537739388,100.13549843065903
89.05327799257088,115.40050312824873,189.67785281989921,59.19740656906467,69.49456529372235,201.2305459280928,100.05186467113157
88.1644594763371,116.03499899026679,190.32772358094516,59.30950448935708,69.60954581012035,202.56970202027003,99.97073606060589
87.28914233242368,116.72787621456314,190.95728839604817,59.42686858423301,69.72957412089217,203.78199382037846,99.89277165323169
86.42731367865618,117.4765315192756,191.56506878139183,59.54890009679841,69.8540884081753,204.8591759762954,99.81861144702737
85.57883431916552,118.2782476521236,192.149794573029,59.67499137646594,69.98249833188478,205.7933131980429,99.74889346300702
84.7434600387615,119.13007526224109,192.7103987617081,59.80453164362216,70.11421589814216,206.57683315051207,99.68422978077196
83.92084575418853,120.0287525767211,193.24606293508066,59.9368875423636,70.24865921742432,207.20256998810052,99.62516250726514
83.11055480136484,120.9706903157176,193.7562542492986,60.071394785785685,70.38523178909179,207.66381529621773,99.57216038173578
82.3120769583055,121.95209423917339,194.24069404949347,60.20737693006872,70.52331660648483,207.95437989890215,99.5256592129834
81.52483671909857,122.96922480198039,194.6992500576555,60.344164469602234,70.66229712696948,208.06864795935263,99.48608201176262
80.74818610911925,124.01861518953709,195.13180536165663,60.48108720896309,70.80157071300728,208.0016090881848,99.45380591099914
79.98139986870011,125.09710415394039,195.53815159397607,60.61745541847728,70.9405301193721,207.74887933716693,99.42912648746285
79.22368616513161,126.2017415360927,195.91791907711766,60.752562681485855,71.07853835626803,207.30673188204347,99.41227549093732
78.47420961288853,127.32966537418743,196.2705866634065,60.88570847116179,71.21493290421246,206.67214060057876,99.40346727056244
77.73212954741928,128.47798634482805,196.59560197931478,61.016207211706636,71.3490518325486,205.8428166564262,99.40290593293344
76.99665793779515,129.64369639121867,196.89251550132664,61.14337344163524,71.48024243281561,204.81722164366212,99.41074394869975
76.26711424539094,130.82360237834266,197.16100175462037,61.26651525113386,71.60784123954633,203.59456901668517,99.42705376822374
75.54294584454641,132.01427061254697,197.40078034341346,61.38496223879644,71.73116196607869,202.17483573040496,99.45185246360658
74.82371010396582,133.21197663859328,197.61154097534833,61.498104221970586,71.84952238617466,200.5587802313654,99.4851389326196
74.1090401509159,134.41266669443277,197.7929408422044,61.605400226718714,71.96228683904084,198.74794209767944,99.5268862887272
73.39862709943799,135.61194142889357,197.94466238505598,61.70636193204771,72.06887833439805,196.74461943744686,99.57700488193119
72.69223925616963,136.8050628621842,198.066461781191,61.800549422595594,72.16875883075163,194.5518559088844,99.63533852558645
71.9897572667551,137.9869698218913,198.15815845717498,61.88758772364432,72.26141799027751,192.1734635724115,99.70170230676926
71.29118442678151,139.15229154709778,198.21957582188497,61.967172877797516,72.34638610359958,189.61405745458248,99.77590116783594
70.59663017332414,140.29536759671882,198.25046102861495,62.03905037129621,72.42324117726737,186.87905356732827,99.8576966114713
69.9062996061669,141.41028166469064,198.25041464593767,62.10299083911018,72.4915882307501,183.9746182906598,99.94677003059296
69.22049814790476,142.49090048088928,198.21888700861402,62.1587934807337,72.55103618035584,180.90760169856077,100.04273777323753
68.53962655342387,143.53090682495733,198.15527636111386,62.20630821994408,72.60121176313388,177.68550231259422,100.14519551225784
67.86415366023625,144.52382874440607,198.05908281952023,62.245439558260564,72.64180438416807,174.31647669889804,100.25372756627362
67.19458896020778,145.4630802649551,197.93003871386523,62.27612089065517,72.67259094689153,170.80937652347515,100.36787759945958
66.53148048505605,146.3420366508619,197.76817891092318,62.29829060457291,72.69341810692622,167.17386055414897,100.48714564444657
65.87542816950305,147.1541462219596,197.57388100893405,62.31189876197656,72.7041819810028,163.42061165716504,100.61103812189545
65.22707933143029,147.8930369494238,197.34791097115476,62.31692968011199,72.70484399727654,159.5614944830157,100.73910986518275
64.5870992676504,148.55258073501395,197.09143254458598,62.313404972250325,72.69546154076563,155.60948420180642,100.87094617752773
63.9561490864148,149.12693437753904,196.80593451661912,62.3013660876976,72.67618887331024,151.57842609919737,101.0061257648788
63.334895526941786,149.6105898829176,196.49310943308345,62.28087073749925,72.64725110276842,147.48276757670888,101.14423060492891
62.72403231211104,149.99842317721635,196.15472385814655,62.252014099646225,72.60893457926382,143.33732238313075,101.28488948239278
62.124277433869196,150.28571439313944,195.7924940940994,62.21494167156171,72.56160527640426,139.157074271269,101.42778659201564
61.536349562441394,150.46814687098987,195.40798890980273,62.1698317411404,72.50571493161559,134.95700987389472,101.57261991356326
60.96095852557845,150.5418150273848,195.00257499807643,62.116873782021905,72.44176774614186,130.7519687335792,101.71906847740277
60.39881945304103,150.503251166696,194.57740415740807,62.056276244642326,72.37027573124254,126.55651429710676,101.86680811123189
59.850659130129785,150.3494499701451,194.13342359345134,61.98829302590237,72.2917456322379,122.38482861374152,102.01553697564312
59.31719416815567,150.07787073606568,193.67138940651176,61.91322972908673,72.20669658260648,118.2506153439331,102.1649589452397
58.799107516779536,149.68642504166561,193.1919000904119,61.83142080354781,72.11566621328392,114.16700051578373,102.31474264371886
58.297058823166594,149.17347136676244,192.695457829293,61.74321157993911,72.01918486195727,110.14644165891852,102.46451513602241
57.81171773861815,148.53782450909907,192.18250545522065,61.64896991060227,71.91775046381953,106.20065734199005,102.61389612207589
57.34377455590302,147.7787650412255,191.65342209698935,61.54910520937635,71.81183695173408,102.34057596802029,102.7625134296883
56.893913275908034,146.89603200526776,191.10854928176,61.44406159194279,71.70191754205858,98.57629599562055,102.90996833052105
56.462781803173506,145.8898051844046,190.54827366264024,61.334293065439674,71.5884635949089,94.91705092576902,103.05579767070635
56.05099010702632,144.76070261224663,189.97309255196686,61.22025683727227,71.47192124811387,91.37118118134158,103.19948804494999
55.65912162551362,143.5098048986205,189.38364001422593,61.10243138908749,71.35270499461335,87.94612132071843,103.34052305896131
55.287725346846884,142.13868063997646,188.7807261463521,60.981324481030725,71.23121983719267,84.64839949968045,103.47839897706089
54.93729023412955,140.64938169670216,188.16536493708423,60.857449464727885,71.1078752288809,81.48363565021528,103.61259589509096
54.60823455911926,139.04441627796854,187.53872166597188,60.73129508587498,70.98306415834679,78.45653889862758,103.74256069108216
54.3009192755407,137.32673000050184,186.90200242644468,60.60332233262821,70.8571333928926,75.57092513705744,103.86773717701854
54.01565399975379,135.49969990362305,186.25635977499596,60.47398233974729,70.73038524663652,72.82976754037631,103.9876025841363
53.75267535794612,133.56711911704414,185.60285264720565,60.343721368865644,70.60310697265896,70.23525804427832,104.10165779611329
53.51212393527136,131.5331614550527,184.94245202305297,60.21296674897435,70.47558481648284,67.78884834814386,104.20938746233055
53.29405238706626,129.40234246869198,184.27604707236748,60.08212785267931,70.34808539393269,65.49127424363847,104.31024962389904
53.09845281780697,127.17949472964514,183.60441956562374,59.95162570088296,70.22084039171332,63.34258751722727,104.40370780388847
52.92526479009313,124.869751842151,182.92821649259304,59.82191396226214,70.09406825352082,61.342195175871474,104.48925158346697
52.77435605743428,122.47852191836527,182.24796244174726,59.69346096079708,69.9680100943337,59.488886832385155,104.56637114145335
52.645507304871636,120.0114460987918,181.5641013405377,59.56671531146188,69.84293444894114,57.78084781726754,104.63452882320749
52.538422989867755,117.47435992664754,180.87703075164416,59.44209644245513,69.7191134828705,56.21567660343243,104.6931816429785
52.452750778103926,114.87327195058705,180.1871131361798,59.320013322381406,69.59681544174215,54.7904212342135,104.74183333904874
52.38807968762026,112.2143489250393,179.49467125711004,59.20087418668499,69.47632658320356,53.50162730148578,104.78004922046948
52.34391892897049,109.50388893925273,178.79997427613938,59.085066123306895,69.35796303651117,52.345378433013316,104.80742247883497
52.31969070240287,106.74828669634671,178.1032345582579,58.97293222616199,69.24204413530737,51.3173255044914,104.8235542822996
52.31475289006701,103.95401309871299,177.4046577165105,58.86478036533061,69.12885318172067,50.41272117018415,104.8280917780869
52.32842402639657,101.12761303445693,176.70453803482155,58.760912070891514,69.01862793739961,49.62647002624252,104.82078340083594
52.35998185492692,98.27569659895616,176.00332614843867,58.66163021496411,68.91158153618547,48.95318030847372,104.80148549620715
52.40865002912886,95.40490596387708,175.3016370731983,58.56721583762448,68.80791307669799,48.387199462540345,104.77012520467025
52.473604827165246,92.52187294688478,174.6002452008532,58.47791175487806,68.70778565249506,47.92263974304751,104.72668076952843
52.553999775410674,89.63319168527947,173.9001057511091,58.39394098638288,68.61130084073339,47.55341906142043,104.67119883841727
52.64897552760622,86.74540510273934,173.2023767403372,58.31553486411212,68.51850533448095,47.27332801512903,104.60380110447896
52.75764228122831,83.8649824791037,172.5084153844,58.242931019859554,68.42941859740735,47.07609818856322,104.5246492989205
52.879061547459806,80.99828278448697,171.81977682926987,58.17634762025354,68.3440410643803,46.9554421052906,104.43391021838498
53.012255010836334,78.15153098153776,171.13821355957066,58.115974421524726,68.26233659373965,46.90507050403332,104.33177243137084
53.15623013287708,75.33082671443644,170.465615924565,58.06199072084978,68.18422593461922,46.91871280486182,104.21849264819133
53.30999045011421,72.54216016926914,169.8038828473566,58.014574884130816,68.10960707804475,46.990148398100416,104.09440461338154
53.472525387207206,69.79139908990817,169.15480574073126,57.97388340277423,68.03836946008542,47.11323350876514,103.95987848826404
53.642806869283355,67.08425463820923,168.52008131230613,57.94002658979101,67.97037637775739,47.28191368301307,103.81529113613078
53.81980540586974,64.42626432831544,167.90146627278807,57.91307476537065,67.90544049428266,47.49023499889708,103.66104994469012
54.00250259599251,61.82280074808413,167.30091914818618,57.89308437310139,67.84333115741252,47.73237174107625,103.49763252117995
54.189879131673926,59.2790718327277,166.72059807436983,57.880104571528356,67.78380868315068,48.0026647908618,103.32558277121903
54.38089105262311,56.80009127178142,166.16276405447124,57.87415356469229,67.72664201191104,48.29564671929677,103.14547366814905
54.574463710840455,54.390642344162536,165.62969073879628,57.87519762807305,67.67159231112696,48.60604543121288,102.95789800452586
54.769512284579555,52.055259768449325,165.12361066231384,57.88316037544861,67.61840009635621,48.928784448514065,102.76349888298822
54.96496361349806,49.798217799843435,164.64668739193502,57.89794426404683,67.56681135264562,49.25899613732911,102.56298192930441
55.15975344332029,47.62350229318887,164.20098640559496,57.91942950958796,67.51661931113217,49.5920408998343,102.3570762753428
55.35280897073118,45.534775137121635,163.78841121712293,57.94745231185111,67.46767340295095,49.923515944317344,102.14649174376501
55.54304927075002,43.535368421347364,163.41061128657793,57.9817973639816,67.41985417321177,50.24925450930922,101.93192837746481
55.72941525399576,41.628322739976916,163.06890529935524,58.02221791324112,67.37305981821095,50.56533401655155,101.71411780084574
55.910901414210905,39.8164279068227,162.76425438670228,58.068453621083215,67.32722720010746,50.86809938825596,101.49382897685668
56.08655921816177,38.102221129223956,162.49730857846842,58.12022020675079,67.2823545883358,51.15418154134645,101.2718245691232
56.25548309699955,36.487949235234986,162.26851570709715,58.177188739731086,67.23849000639258,51.42049385901075,101.04882716037567
56.41681388898064,34.975525399882066,162.07821099431754,58.23898615303086,67.19570073251816,51.66421722253609,100.8255370395837
56.5697651132436,33.56649752592424,161.92662437143835,58.305212718956035,67.15406611269793,51.88279531018147,100.60266359123393
56.713638937760834,32.26202980177898,161.8138560706986,58.37544575627752,67.11369803388364,52.073944287419984,100.38091344640463
56.84781214048065,31.06288873326233,161.73988791077494,58.44922449792105,67.07474917942804,52.23565980783168,100.16094813925127
56.97171782089584,29.969429611671657,161.70459965000606,58.52604752809049,67.03738864645524,52.3662068760748,99.94337315364952
57.08485466615943,28.981589757503965,161.70772985448767,58.60540075193809,67.0017801712063,52.464101123821614,99.72877230399327
57.18681307757889,28.098889420688863,161.74879653297305,58.686788560153595,66.96810333820251,52.5281042060089,99.51773057344458
57.27728134972285,27.320433086059676,161.82703736653784,58.769733879003354,66.93659889550275,52.55724048847021,99.31081149747392
57.35602508920523,26.64490866085413,161.9413933112129,58.853755671476435,66.90758249405003,52.55081299076165,99.10853629684199
57.42287257622523,26.070592152772175,162.09051646538148,58.938362710305725,66.8814151250196,52.50839625633677,98.91141111999012
57.477725893492945,25.595370863846625,162.2727760256882,59.02307701375841,66.85847468773211,52.42981243446842,98.71996529514665
57.52057386434028,25.216787401280538,162.48625644185927,59.10745562478402,66.83915724075145,52.31511280329587,98.53474003198666
57.55147962092021,24.932085267820728,162.72876653466525,59.19108220458617,66.82388224552062,52.16457980745546,98.35624145436007
57.57055601077823,24.73823729265828,162.99788362523805,59.27354563996251,66.81307088073008,51.97874379700923,98.18492209399224
57.57795881163353,24.631966400652185,163.29103836422271,59.3544403932646,66.80711411923191,51.758388451117895,98.02120478815316
57.573896314443815,24.6097789143147,163.60561836500287,59.43338703649741,66.80636944641715,51.50453115242259,97.86549446983821
57.55862631768978,24.668004420444586,163.9390568932572,59.510039099347985,66.81118400348214,51.21839639579428,97.71814413270307
57.53243134342705,24.802819044309107,164.28887965231385,59.58406642597296,66.82190070148066,50.901398621935336,97.57941694144576
57.49560018405497,25.01024921866555,164.65270853401213,59.65515038370615,66.83883001386423,50.555123600121156,97.44949874478633
57.448442816907566,25.286177883830344,165.02826292080337,59.7230187413208,66.86222338813906,50.181295870146606,97.32854371116117
57.391323044936556,25.626370571185262,165.41338506548985,59.78749167690356,66.89228112504779,49.781744121981255,97.2166869109082
57.32466813190399,26.02651154713944,165.80604468352243,59.84849033360686,66.92917502024318,49.358384561114114,97.11400697149654
57.24894885306037,26.482225952796334,166.2042970724539,59.90600710962357,66.97304449674292,48.91321962991251,97.02049595287353
57.164667778500124,26.98908910860195,166.60627090751146,59.96007996551654,67.02396294558662,48.44832908653167,96.93608135667762
57.07237798349518,27.54266002897002,167.0102378503563,60.010793566667914,67.08191331751668,47.96584280298549,96.8606667971507
56.972703572773725,28.138555775740194,167.41469045776043,60.058283707983776,67.14680428168445,47.46791172514163,96.79413278282894
56.8663285969325,28.772520662900746,167.81835706109348,60.10271761554979,67.21850750131831,46.95669913600603,96.7363045529269
56.75396569956473,29.440443463209668,168.22019383267087,60.144262595040054,67.29687036573657,46.43438949366529,96.68694726745402
56.63633904882341,30.138339035139932,168.61942759612467,60.18307374801505,67.38169996703199,45.90318738517664,96.64580532821283
56.514187990118835,30.862337120779085,169.01564089241984,60.21930099770036,67.4727575138396,45.365294517998386,96.61263033537155
56.38826435311489,31.608689396338733,169.40880664552364,60.25308589682856,67.56977535872387,44.822888200818866,96.58715825488103
56.25930807514292,32.37377370404984,169.79921094187392,60.28453757529681,67.67246284156418,44.27812220572841,96.56907386355778
56.128023149401955,33.15408115768125,170.18731112613227,60.3137164956682,67.78048317669844,43.7331345782409,96.55801789562554
55.99507918638576,33.94620183606535,170.57363401260793,60.34065091190304,67.89343128246719,43.19003640344343,96.55362679729672
55.86112763224154,34.746830318106284,170.95877623981224,60.36536608362216,68.01084399831501,42.65088774292051,96.55554519836427
55.726801902675696,35.55278394521556,171.34345429866661,60.3878892700458,68.13222891254931,42.117694222385175,96.56339248417119
55.59269829264699,36.36100772341858,171.72848859719898,60.40823270340178,68.25707339553419,41.592434167453185,96.57673640763439
55.45936767967376,37.16855793884125,172.11469540127004,60.42639397170357,68.38482802193965,41.07707979633791,96.59511779109424
55.32733407472578,37.972584810352664,172.5027769845829,60.44238983581128,68.51489882559014,40.57358006913305,96.61809283204481
55.19711458565193,38.77033526442086,172.89327858086466,60.456287463345014,68.64666768205952,40.083821421834024,96.64523378981603
55.06921187057944,39.559169931897515,173.28658819042855,60.4681978800674,68.77951407971585,39.60960253801853,96.67609474943308
54.94409090374253,40.33656964964553,173.68292929310545,60.47824948403989,68.9128093742663,39.152631593585234,96.71020246102293
54.82217477792191,41.10012392863018,174.08232561330954,60.486581610437106,69.04589969302856,38.71452281854959,96.7470889668671
54.70386466795917,41.84752155799806,174.48455612044674,60.493359428749216,69.17811350714177,38.29677485343931,96.78631227607238
54.58955086702745,42.57655855458688,174.88915390987165,60.49877522152491,69.30879168145154,37.90074510934001,96.82742981923552
54.47959494767345,43.285150641440595,175.29547882796723,60.503024685902176,69.43730082830061,37.52764577136522,96.86996851699402
54.37430669617911,43.971330901294934,175.70280763065475,60.50629426303676,69.56301682755735,37.178561549722275,96.91344749115005
54.27394471285837,44.63323507943866,176.11035452353235,60.50878720084755,69.68531490605602,36.85446124642051,96.95743346949001
54.178731753078985,45.26909519752176,176.5172259669429,60.510758257743205,69.80359288808002,36.556186674294146,97.00155930600772
54.08885518425492,45.87725331967661,176.92240063888948,60.51251118276918,69.91729944308982,36.28443799586298,97.04548697377568
54.004449767917066,46.45618052486845,177.3247735155785,60.51436485192298,70.02593027821938,36.039779788955904,97.08887218481063
53.92559168695282,47.00447970251518,177.7232324006836,60.51663365692941,70.1290063369978,35.822659688543865,97.13138012656503
53.85231883112344,47.5208816689472,178.11679316818692,60.51963976347532,70.22607641289969,35.633411463000414,97.17272408780538
53.78465296078018,48.00426954156872,178.5048104102215,60.52372379150034,70.31674788650139,35.47223770876299,97.21266585882948
53.722596082963136,48.45373619146404,178.88711728908876,60.529222716052935,70.4007034067263,35.33919867160078,97.2509785296319
53.66611033424903,48.86862836882388,179.26398276134665,60.53643169442615,70.47767826332036,35.23422440184046,97.28743165158724
53.61511079534328,49.24854130490386,179.63600288003428,60.545589364570176,70.5474262170605,35.15713191552051,97.32181969753408
53.56947688912796,49.593281972529155,180.00404611901283,60.55689668788712,70.60971563799767,35.10762336946058,97.35398093086548
53.52905861239545,49.9028374177537,180.3691990375928,60.57053619358066,70.66435545193464,35.08527173764897,97.38376936169388
53.49366385858974,50.17735940542328,180.7326486332669,60.58666171047534,70.71120864030159,35.08952050757653,97.41102194285797
53.46304629097698,50.41715044851799,181.09556534380394,60.60537721853904,70.75016971362534,35.11970809648004,97.43557704328116
53.4369165529038,50.622637939756096,181.4590866461914,60.62674298233763,70.78113414882415,35.17509669330941,97.45732618047215
53.41496601432418,50.79434554527313,181.82440427073175,60.65080550310801,70.80399688431635,35.2548810088947,97.47623005530721
53.39687260622842,50.93287996758455,182.19288148761225,60.677609835269315,70.81867388868186,35.35818272869059,97.49227883965474
53.38228370433655,51.03893324005305,182.56613584601803,60.70717820509318,70.8251089971079,35.484055694509564,97.50545367741614
53.37080378430192,51.11328131514493,182.94603136801257,60.73948820270998,70.82325450670305,35.63150566474289,97.51573860602159
53.36200560959913,51.156766831900825,183.33455644090168,60.77448395554319,70.81305858935366,35.79950166248071,97.52315405149285
53.355447614735525,51.17027826813815,183.73364249208115,60.812105523400504,70.79448449350824,35.98696624845929,97.5277536895663
53.35067386819571,51.154745402205656,184.1449968738332,60.852295959599104,70.76753678872315,36.19276130682009,97.52958710321882
53.34720635225311,51.111149591725734,184.5699801753971,60.894981085167366,70.73225833252374,36.41568852872046,97.52868190157007
53.34455795390954,51.040526256544375,185.0095224645128,60.94005675140941,70.6887075598091,36.65449968555005,97.5250610151845
53.34226539929937,50.9439500460448,185.4640635006513,60.987398719669656,70.63695557128875,36.90789869730254,97.5187488711363
53.3399078145165,50.82252177555168,185.93353130007824,61.03686824310074,70.57710835187855,37.17453368376593,97.50973644383217
53.33709424607732,50.67737444438736,186.41739666348224,61.08829240791913,70.50931630493393,37.45299977281544,97.49794279009983
53.333447851506705,50.50968558236677,186.91478327184672,61.14144079011312,70.43375210231048,37.74186603936471,97.48322321894929
53.32861878690073,50.32067320698404,187.4245384554977,61.196034517664046,70.35058836321302,38.03970657275517,97.46541165784899
53.32231512049435,50.11158002374431,187.94520950304718,61.25178533043691,70.26000875303744,38.34510773924503,97.44433781604084
53.31431306362625,49.88367166658953,188.47497240615783,61.30842081003578,70.16223706981714,38.656656336691555,97.41980048075838
53.30443708246067,49.63825380451493,189.01158190402126,61.365673501314966,70.05754240420637,38.97293732990168,97.3915483142903
53.292543761921614,49.376681374108855,189.5523618999819,61.42326648601836,69.94621339310918,39.29255222628052,97.35931157912297
53.27853524979638,49.100342442709284,190.09422797209817,61.48092909559266,69.82853868277765,39.61413735510023,97.32285214500169
53.262381662289215,48.810635381076175,190.63373206536625,61.53842489255439,69.70481973639443,39.93636105057867,97.28197172969902
53.24411811359006,48.508965017603494,191.1671050104354,61.59555218228019,69.57539299840961,40.25791019014728,97.23648235921699
53.22382142593817,48.1967522618322,191.69027524517597,61.65211719908668,69.44062513938546,40.577496883372426,97.18619782639448
53.20160040555675,47.87543038355017,192.19886803939897,61.707920396553355,69.3008892176254,40.893893962859295,97.13096504926548
53.177606527484805,47.54642106337818,192.68819830564317,61.762776160007014,69.15656289797779,41.20596788015898,97.07068503361685
53.15203558442182,47.211113951255406,193.15327593348135,61.816535337927384,69.00805686297886,41.512679469597096,97.00528743404891
53.12510374085379,46.87086987288486,193.58884768135397,61.869077016877554,68.85583210758938,41.81306451328369,96.934696378906
53.09702015671031,46.52703499573764,193.98946680082614,61.92028601458871,68.70038016834431,42.10622507103141,96.8588406846347
53.06798410310426,46.18093914632478,194.3495475736986,61.97005647837522,68.54219682494413,42.39133865443501,96.7776951010691
53.03820049452112,45.833876315414905,194.6633895327385,62.01832131636241,68.38178868505048,42.66766361910882,96.69129113940124
53.00788308597429,45.487089777312335,194.92520467198264,62.06506491889172,68.21970144174767,42.93452386493543,96.59967995233735
52.97723656633849,45.14177274885743,195.1291729882873,62.11030030551363,68.05652531389507,43.191285013515014,96.50289950731933
52.94644395167462,44.79906967447932,195.2695049161965,62.15404536945709,67.89286789043719,43.43735044233024,96.400988910655
52.91567776516259,44.4600635204872,195.3404795738578,62.196333591195575,67.72933438514319,43.67218508977152,96.29402078334773
52.88511527089007,44.125758803544805,195.33646741678757,62.23724197491379,67.56654147316365,43.89533777037208,96.18209753565279
52.85493128384566,43.79708056749667,195.25197217967525,62.2768932349111,67.40513536699716,44.106434468780336,96.0653142929477
52.82527578487233,43.474888736665434,195.0816983814478,62.31542889045123,67.24577777490967,44.30515410453808,95.94374333245773
52.7962627049824,43.15998502731503,194.820609724379,62.352992645665566,67.08911506049913,44.491215704871536,95.81746534202442
52.76797442250577,42.853101099523684,194.46395465590822,62.389743566638565,66.93577348591965,44.66438565275356,95.68660352919241
52.74046130305178,42.55488573040787,194.00727912668012,62.42586895027555,66.786383801512,44.82448667244358,95.55131391739408
52.71372519164895,42.26591272539033,193.44645568582789,62.46156689604199,66.6415922186566,44.971389756053874,95.41175667331343
52.687703831830966,41.986703628999514,192.77772501533084,62.4970177135924,66.50203458044237,45.104998234127606,95.26810484077785
52.662275479621215,41.717738173922754,191.99772288975154,62.532382207886954,66.36830449714556,45.22525033432275,95.12058545062534
52.63727457130565,41.45944210188234,191.1034857596671,62.56782343041388,66.24095138951385,45.332142844636984,94.96949169770042
52.612494936430316,41.212172201546245,190.0924602241597,62.603512394185806,66.12049717228186,45.425746207599204,94.81514508521519
52.58768243858628,40.976217533390916,188.96253352796637,62.63960353150413,66.0074321198425,45.506192786611706,94.65786109816429
52.56254395390186,40.751808210325564,187.71206520572414,62.67621014301499,65.90218273030062,45.57365651695826,94.49796776959987
52.53677877784951,40.5391133143341,186.33989410451758,62.71340712104829,65.80509079614836,45.62834642277266,94.3358491797432
52.51010234415215,40.33823369112344,184.84532805418993,62.75124725715478,65.7164326566462,45.670508956915654,94.17195010549842
52.482239959004794,40.14921511762818,183.22814150473226,62.789758723113756,65.63645186124343,45.70042026861108,94.00673878417096
52.45290755189528,39.97208412958865,181.48858457685606,62.8289191416885,65.56536241548932,45.71836710961545,93.84068755377085
52.42181143703598,39.80687260388753,179.6273826871127,62.86863463011194,65.50333055143199,45.72463517665011,93.67429587837142
52.38867227794708,39.65360942466222,177.64571652445613,62.90874380035923,65.45048116067107,45.71951591156076,93.50810540106859
52.35324441139562,39.51230180811881,175.54519875345358,62.949030631015965,65.4069371244664,45.703317538877265,93.34266646513397
52.31530719114277,39.38293709588345,173.32786899085747,62.989221951108135,65.37284335171614,45.67636228649568,93.17849280764487
52.27464230227731,39.26550082414433,170.99620926925675,63.02897979786001,65.3483475495295,45.638980211108496,93.01606333225722
52.23102860322903,39.15998175460911,168.55316000136636,63.06791891487708,65.33357619764385,45.59152511641487,92.85586390590383
52.18426220550126,39.066353575961124,166.0021187331614,63.10564505979612,65.3286468417037,45.534407364525805,92.69840459234472
52.13417539298604,38.98455685455204,163.34692958241453,63.14177416980672,65.33369504421849,45.46810867764602,92.54418575800504
52.0806308088351,38.914502521388115,160.5918755121418,63.17591743293593,65.34886878972706,45.39316523651023,92.39366501148201
52.02350406727069,38.85608437021291,157.7416616338449,63.20766549428621,65.37429031528228,45.31014476135244,92.24727714355413
51.962687949653024,38.809175554125225,154.8013762771243,63.236603953506,65.41002928300286,45.219643674678835,92.10548003953413
51.89812495186559,38.773610348291804,151.7764436526345,63.262345615050705,65.45611023567596,45.12229564227856,91.96876162710946
51.82983417681496,38.74917659141723,148.67259243343236,63.28454062714754,65.51252668519061,45.01876482020293,91.83760591226144
51.757903133152446,38.735630156887005,145.49584115620593,63.30285849202954,65.57922885199133,44.909721408249695,91.71247886925579
51.68245827684681,38.73271079961926,142.2524756999601,63.316976948118864,65.65609761174119,44.7958268602363,91.59385541139375
51.60364724956093,38.74013720567904,138.94900665370193,63.326599946632705,65.74294237881146,44.67774536121229,91.48223429188549
51.52164178218019,38.757588977894045,135.59213735311138,63.33147994863762,65.83952594821587,44.55616053206585,91.37810466742185
51.436640594983196,38.784701885022486,132.1887893185376,63.33141204237593,65.9455776479899,44.43176871088767,91.28190926476073
51.34885542484622,38.821087203948444,128.74617464099666,63.32621217570212,66.06077374998371,44.305254959840696,91.19406000707113
51.258492853911896,38.86635457368673,125.27183478600733,63.3157220563657,66.18471567432692,44.177285168294645,91.11498263912526
51.16575442286826,38.9201134938429,121.77360162424134,63.29984815688701,66.3169424750246,44.048527531070626,91.04512326508122
51.07085111954094,38.98195968084958,118.25954296059851,63.278588936973044,66.45696357690801,43.91967483979791,90.98491091732714
50.97400549852159,39.051470453669594,114.73797076490895,63.25202032725635,66.60426811100038,43.79143882660132,90.93473823809168
50.87543228059901,39.12821234024162,111.2174880054612,63.220272774330994,66.7583047395213,43.66452987202801,90.89498761966101
50.7753213676135,39.211741355885806,107.70698016367685,63.183542217136946,66.918470174969,43.5396520379813,90.8660502376002
50.67384602793591,39.301587984845064,104.21551868353622,63.14212089485809,67.08412768164963,43.417512564295855,90.84829600320306
50.571183635395805,39.39724515318572,100.75223171060935,63.09640143779361,67.25462852109081,43.2988187336452,90.84203730079099
50.4675198747582,39.49817610728149,97.3261953249753,63.04684867148947,67.42930405221826,43.18425457252448,90.8475447846572
50.36303746872634,39.60383059546139,93.9463456626808,62.99398189184036,67.60744003261047,43.07446519635953,90.865092131517
50.257919270648806,39.71364726742031,90.62139112584447,62.93838757679612,67.78827131606118,42.97007069313132,90.89496038328943
50.15237303007377,39.82704535920331,87.3597256728009,62.88072764301194,67.97100447527728,42.871689103119635,90.93739648504494
50.04664696760004,39.94342867158524,84.16936654705005,62.821712678837756,68.1548334994931,42.779934977299305,90.99259259535067
49.94101491128552,40.06220753320893,81.05792445116272,62.762062696979214,68.3389264642817,42.69539732880477,91.06071605479859
49.83575116927122,40.182816787829914,78.03257967608957,62.70249518272083,68.52240885176995,42.61862741971737,91.14193455002955
49.73112683651085,40.304711802096485,75.10003979615061,62.64373844421531,68.70437538275075,42.550142925758266,91.23639032814536
49.62742716781505,40.42735405394064,72.26649474645811,62.586530676831266,68.88391807374678,42.49042469154043,91.34416579480603
49.52495954205828,40.55021258532859,69.53760016818099,62.531588937213506,69.06013310220204,42.43989411346307,91.46530081411605
49.42403854324595,40.67278718492659,66.91848424652117,62.47958199485855,69.23210217362177,42.3988911344463,91.59983919583125
49.32497372799472,40.79462843449333,64.41374287494791,62.431139612008145,69.39888650206456,42.36767553477891,91.74783331457621
49.2280832092997,40.915331789813614,62.02741106222666,62.386878536619925,69.55955873341645,42.346443489772355,91.90929943640369
49.13371517752595,41.03451569248787,59.76293964046384,62.34740118154459,69.7132451198941,42.33533143816481,92.08419036499302
49.042245142255844,41.151812888384704,57.62320472733683,62.31326431162788,69.85913522146684,42.33440037626387,92.27241823452519
48.95405065621991,41.266884996630175,55.61053549366122,62.28495862760791,69.99646368751748,42.34362659699052,92.4738748108362
48.86949692670346,41.379437636492106,53.72672536986705,62.262920124157155,70.12450611665639,42.36292365624114,92.68840258309207
48.78895064781474,41.48921310068635,51.973025210960635,62.24754419974814,70.24260163012192,42.39218258587491,92.91575604937417
48.71279737120653,41.59596846623041,50.35015113161955,62.23917187057099,70.3501672979847,42.431292861549984,93.15561318147417
48.641432987559085,41.699464680985024,48.8583173473497,62.23806352643033,70.44668137887452,42.480134428506105,93.40761932612213
48.57524232380636,41.79947550410418,47.49726260609694,62.24439622593366,70.53166316803141,42.53856832220853,93.67139632694614
48.5145996792402,41.895797191045894,46.26624806675776,62.258285199819646,70.60468399021563,42.60644148847228,93.94650824853206
48.45989062718596,41.98823965117775,45.164053621442456,62.27979324385057,70.66539552851495,42.68358768929178,94.23244949409698
48.41151866532924,42.07660724536285,44.18902262322176,62.30891170436134,70.71353423439521,42.76980788996053,94.52868763599709
48.369880798314206,42.160693420122385,43.33916145337344,62.34554712247998,70.74889700057155,42.86484255180492,94.83470211681022
48.335338766339945,42.240297175107486,42.612231641144305,62.38954923500968,70.77132747527115,42.96836238908781,95.14996623687193
48.30821364940251,42.31524081453335,42.005780236410374,62.44075874520113,70.78073725672202,43.07998527206413,95.47391650475674
48.288793849199806,42.385367434010725,41.517129641784855,62.49902273405249,70.77713358611302,43.19929555216755,95.80597711394645
48.27732801136493,42.4505258298016,41.14337000286425,62.56417106597852,70.76061412251109,43.32584395125543,96.1456177574169
48.27400121320763,42.51056599347893,40.88135478985181,62.6359990372205,70.73133729303748,43.459142065544675,96.49236624353141
48.27892112598036,42.56534861340329,40.727683131329925,62.714283894301424,70.68951094326441,43.59867469364659,96.84576338091075
48.292126987315264,42.614748915641215,40.67867714273507,62.798807332573226,70.63541014632975,43.74392003694442,97.20533138967626
48.3136009874888,42.658643224495044,40.730378429465674,62.88934795642144,70.56938606082979,43.894351082187946,97.57060078349741
48.343261989240354,42.696890607124026,40.87856909289467,62.985655869357565,70.49184138506438,44.049417027548294,97.94114794235749
48.38095516368123,42.72932710995753,41.11879366235018,63.087448502484776,70.40320342851311,44.20853032594963,98.31658073852597
48.426463194849795,42.755773119189534,41.44636201109451,63.19443160699883,70.3039311467916,44.371077692357034,98.69649283955987
48.47953305940592,42.77603860668688,41.856345488787696,63.306308212424995,70.19453929540249,44.53644185765248,99.08045637483251
48.539886655363205,42.78991724320836,42.343594122433785,63.42275650311283,70.07559679150674,44.704006690407006,99.46806137078062
48.607207537796626,42.79718104065805,42.90278017385851,63.543406184162606,69.94769491463259,44.873145295215686,99.8589345714906
48.68113551609959,42.79759356254535,43.52844086365487,63.66784496591953,69.8114229614741,45.04322045804044,100.25270128202465
48.76129340104865,42.7909380723776,44.21499669949124,63.79564063751595,69.66737422599874,45.21361089579385,100.64894527392713
48.84732234405482,42.777034348346554,44.9567574695749,63.926342749315644,69.51615818702658,45.38373752486809,101.04723042209865
48.93888740368968,42.75573184402384,45.747945998264306,64.05946225095174,69.3583884050367,45.55306285780388,101.44715733920881
49.03565964773441,42.72689975596583,46.58274601886805,64.19446226389412,69.19465931745417,45.72107387484525,101.84837551971788
49.13731692291987,42.69043611985954,47.45534638555932,64.33077591123366,69.02554768780169,45.88727743088643,102.25053807891669
49.243574731806824,42.64628710481296,48.35995965611576,64.46782606662445,68.8516384753516,46.05121274177291,102.65326853839781
49.354208197456764,42.594451498694625,49.29083167076716,64.60502198827285,68.67353562226207,46.212455913610206,103.05618139849751
49.46903557654695,42.534967021300055,50.242271953333734,64.74175059183706,68.4918386408359,46.3706016370515,103.45890944395643
49.58788526700989,42.4679009649187,51.208702473161495,64.87739603917727,68.30711673658563,46.52524173721352,103.86108150634064
49.71058336474626,42.393358444973096,52.18469138071933,65.01137886062966,68.11991699321852,46.675969719799824,104.2622744344332
49.83696309218551,42.31149183803228,53.164955938713355,65.14317077668899,67.93079384544,46.822409443998886,104.6620058665023
49.96686564478424,42.22249120570767,54.14436008440821,65.27227193222083,67.7403155696085,46.96423358205947,105.05977404955998
50.10011845126829,42.126561632952,55.11793789666078,65.39818696126513,67.54903724853251,47.101152939011264,105.45507853319813
50.236515582485445,42.02391112050445,56.080936860952086,65.52043275980104,67.35747771632067,47.232898672926886,105.84738620077063
50.3758264313634,41.91475948189993,57.02884522248596,65.63856252825325,67.16612860634761,47.359220690817196,106.23609383977323
50.51781976112308,41.79935134473594,57.9573882080728,65.75216853309439,66.97547374103726,47.47989155337043,106.62054470263085
50.66226941698087,41.67795220302759,58.86251955854592,65.86086174772065,66.78598343967569,47.59469868913036,107.00007511189037
50.808936854429604,41.550831763803224,59.74043720810438,65.96426466416051,66.59809075708263,47.703440335447894,107.37402401443195
50.957560531796645,41.41826225245252,60.58761193896786,66.06203461351409,66.41218956371253,47.80595098558088,107.74169862798219
51.10787034892704,41.28055127430979,61.40079607153634,66.1538871794722,66.22866390546253,47.902141897059195,108.10235854560828
51.25960482373138,41.138088695727895,62.17701028452779,66.2395887660963,66.0479082435675,47.99201491515176,108.45524843841731
51.41250502054917,40.991366251911636,62.91353948559834,66.31893775768138,65.87031021693606,48.075638882379174,108.79962819593618
51.56630085858373,40.84096290891114,63.60794831381391,66.39177471784353,65.69622396473126,48.15311820298957,109.13475552279758
51.72072287128863,40.68752502640073,64.25808906793443,66.45801647030376,65.52597427677881,48.224580301900104,109.45985919593156
51.875532906768555,40.53175701581759,64.8620834970748,66.51766715514017,65.35988394429398,48.29017626605393,109.77416061161297
52.03053397476353,40.37440913390218,65.41829924704332,66.57078773929739,65.19828217885697,48.35007176750045,110.07692465403174
52.18554635098162,40.21625116723425,65.92534981700337,66.61745918429801,65.04148333073638,48.404424247739286,110.36747252718305
52.34038079389723,40.05804287475054,66.38211217472693,66.65777735402777,64.8897739651806,48.45336771724751,110.64514583676886
52.49483751751289,39.90051975585611,66.7877298388205,66.69187159787481,64.74343353185078,48.49701936197966,110.90928501733983
52.64872053619488,39.74439617722307,67.14159246082693,66.71990830956322,64.60275905558025,48.535492474841604,111.15926455746751
52.8018375021965,39.59036730581017,67.44332143282229,66.74206817907778,64.46805648964416,48.568892123565334,111.39454280815632
52.95398040571331,39.43909554139108,67.69278266792101,66.75853079152101,64.33961094873003,48.59729465422678,111.61466318495631
53.104913636969215,39.29119131867207,67.89010377531677,66.7694924291715,64.21767692768121,48.62073362691462,111.81922063149084
53.25438685489282,39.14720850268233,68.03566231675956,66.7751916749866,64.10249679674584,48.63920348576472,112.00786324721447
53.4021539541432,39.00765627719175,68.13005191437557,66.77590446024284,63.99431198816151,48.65266577303357,112.18034176550223
53.547970417980274,38.87300630061297,68.17406653751006,66.77191936162602,63.893342558284964,48.66104138070273,112.3365372730754
53.69157539384474,38.74368100136626,68.16871999074455,66.76353618236818,63.79975891627563,48.66419742259965,112.47642602113672
53.83269048528095,38.62003823089383,68.11526605043508,66.75109206212079,63.71368290119524,48.66195262639712,112.60003743299701
53.97104184874943,38.50237709300667,68.01518234819275,66.73497190099958,63.63521499532768,48.6541098516263,112.70747561629636
54.1063738495286,38.39096397209408,67.87012969498684,66.71558150348847,63.56444746848011,48.64049326789714,112.79898126723087
54.23843405838702,38.28604982555867,67.68192068727714,66.69331700477238,63.50144699147954,48.620962261354,112.87494798717485
54.36695314433218,38.18786230691826,67.45250300897052,66.6685664582714,63.44624000822936,48.59540756025179,112.93587318597805
54.49165009734065,38.09659198474534,67.18393587871279,66.64172924082455,63.398829757270825,48.5637567149743,112.98231889609139
54.6122542648843,38.01239486195552,66.87835221636026,66.61321388902924,63.35922231895297,48.52599113870254,113.01493434842668
54.728512022564466,37.93540289811412,66.53792864359593,66.58341131094834,63.32742300555547,48.48214961764728,113.0344903922667
54.84017442095639,37.865721533956936,66.16488003407527,66.55268168525907,63.30340752843089,48.4323082055609,113.0418568898131
54.94699620334222,37.80341545570861,65.76146136065648,66.52137498028598,63.287106425275354,48.376557141589515,113.03794318724448
55.04875712237514,37.74850468093181,65.32995166222953,66.489853629914,63.27841525255172,48.31499671900783,113.0236768556809
55.14527547432338,37.700980683583,64.87262590846998,66.45848283122007,63.27720034749799,48.247746381013215,113.00003347987877
55.23639173002423,37.660823041420265,64.39174557495127,66.42760323974308,63.283278979299645,48.174944799803136,112.96804887346076
55.32194279993866,37.627994698177076,63.88958029059824,66.39752337068404,63.296397559484824,48.096736889943436,112.92877196752512
55.40176013013972,37.602423394277075,63.368430944060286,66.3685331112272,63.316241363323314,48.01326581479322,112.88320635766847
55.47569203359043,37.5839947846891,62.830621232668676,66.34090471928671,63.34246769906378,47.924680309432496,112.8323026723553
55.54361669492028,37.57256392538139,62.27846810174487,66.31486763096765,63.37472165210621,47.83114515795032,112.77698688716883
55.6054263300191,37.56796479373386,61.71426437311821,66.29058783206638,63.41261962127017,47.73283860599475,112.71815857878173
55.6610048710466,37.570001546928275,61.14027833745687,66.26818278706472,63.455732494437385,47.6299410354459,112.6566423455609
55.71022840022046,37.578430757735696,60.558744937701,66.2477537918416,63.50359826740817,47.52263375976907,112.59314714460875
55.752982804894046,37.59295385586552,59.9718370690597,66.2293916408942,63.555748633324754,47.41110974819577,112.52827352553078
55.78916931638688,37.61322432912065,59.38163928760411,66.21315162662826,63.6117143052413,47.295576548884966,112.46253609457499
55.81869071689939,37.638856075659504,58.79014657127818,66.19904392575951,63.67100979489064,47.17624262173476,112.39635219720857
55.841446795993974,37.66942123346157,58.19927584566653,66.18706910816411,63.73313259631161,47.05330458436394,112.33001077578709
55.85735883294113,37.70444520842107,57.6108628184805,66.17726371122853,63.79758649239194,46.92695357653634,112.26367879699781
55.866398629470666,37.743417575556435,57.02664621527301,66.1697055209249,63.86389517481008,46.79739183230259,112.1974529650266
55.8685884709635,37.78582174892671,56.448264243609856,66.16448609744855,63.93158524516282,46.66483601550486,112.13139271572092
55.8639786679949,37.831160509213376,55.87726533053085,66.1616968366385,64.00016823925183,46.52950791150773,112.06549650799187
55.85263600855183,37.87895738658809,55.31510882079424,66.161440397256,64.0691590278979,46.39164094096451,111.9996725387916
55.83465335120368,37.92874507903183,54.763145048417,66.1638332328143,64.13811735885973,46.25151243650398,111.93376712006366
55.810155696981234,37.980067869896665,54.222594014457705,66.16898022565822,64.2066647328538,46.10946963641429,111.86762951928675
55.779281994905695,38.03250246766224,53.69454477926656,66.1769516529872,64.27446252466697,45.96592102705318,111.80113703994304
55.74215436204801,38.08567196366274,53.17997050356701,66.18779444465422,64.34118591442908,45.82130827807024,111.73416254807069
55.69886264725293,38.13923615661071,52.67973400301069,66.20155892489463,64.4065211263944,45.67609202573938,111.66655274532543
55.649474689019975,38.19287586865443,52.19457646785769,66.21829885537693,64.4701705063224,45.53076054014371,111.59816747330693
55.59405141155008,38.24629591010871,51.725113582368735,66.23804426983551,64.53183899853796,45.38583980355789,111.52893453574286
55.532643140599184,38.299241704876266,51.27185882940957,66.26078956767536,64.59120989775016,45.24188324448977,111.4588495338352
55.4652739248796,38.35150358563963,50.83525591250863,66.28651867170554,64.64794115472094,45.099448925463335,111.38793211428371
55.39193939453163,38.402900353389,50.41568857232025,66.31523481181841,64.7016860096588,44.95908988167299,111.31620845083384
55.31262548574526,38.45326134873712,50.01346802595371,66.34695535571446,64.75210470641085,44.821361705409316,111.24373750033546
55.22732559957097,38.50242522335397,49.628827193023426,66.38168211769576,64.79884747965305,44.686823465068116,111.17062266123997
55.13603573433245,38.550248433662425,49.261935513093256,66.41938861500127,64.84153298018956,44.55602041605749,111.09697282136747
55.03873972029082,38.59660255486226,48.91291383482521,66.46003332348222,64.87975603971924,44.429467854137165,111.02285934313176
54.93541156620853,38.64135655662167,48.581827745255936,66.50356482800817,64.91311982535393,44.307651222529316,110.94832657992194
54.82603620981641,38.6843636495506,48.268668207809114,66.54989821778206,64.94125362801388,44.191028526005944,110.87343589652703
54.710621220194426,38.7254668765964,47.973343781814535,66.59888919064765,64.9638026285606,44.08001645543187,110.79827395655863
54.58918505080321,38.76451112215383,47.69569022845104,66.6503390371212,64.98042597735974,43.97496444240688,110.72291096459375
54.46174273851945,38.801341877207015,47.43547864033765,66.70401938609125,64.99083214623944,43.87613698353391,110.64737202992724
54.328313063247265,38.835793769521366,47.192406859153955,66.75967734744654,64.99482236301861,43.783716509280225,110.57166690130728
54.188938488117486,38.86768991822873,46.96608290637983,66.81701337054525,64.99229564599302,43.69781600650313,110.49583568317837
54.04368997210169,38.89685786952402,46.75601935285427,66.87566680729682,64.98321771218073,43.618481169002045,110.41994582918451
53.89265106634658,38.923141320764095,46.56164413905965,66.93523287301889,64.96759568282044,43.54568254375206,110.34405373029149
53.73590703484412,38.94639140575167,46.38231376798001,66.99528834108237,64.94547958929954,43.47931990087527,110.2681976645997
53.57356019493751,38.966449175080776,46.21731421631679,67.0553924055615,64.91696754103575,43.41924794520282,110.19243312975841
53.40575688262926,38.98314098889705,46.06585583085429,67.115068658572,64.88219005187662,43.36530129959156,110.11684864064235
53.23269467330275,38.99629091719497,45.927082328741484,67.17380168338737,64.84128938130368,43.317295730287604,110.04152817881929
53.05460666728942,39.00573273226966,45.80009828231752,67.23105504098946,64.79442331687123,43.27501458960013,109.9665094973703
52.871751117881,39.01130646435232,45.68399326327738,67.28628072317738,64.74178488774197,43.23820608331718,109.89179614726231
52.68442154002027,39.012847840257564,45.577844736719655,67.3389033760832,64.68360260372917,43.20659515028036,109.81740233306667
52.49295651766784,39.010189850174115,45.48071254070978,67.38830471645653,64.62011852876101,43.179889490716,109.7433616140038
52.2977268310622,39.003177985823186,45.39165101298791,67.43383864516221,64.55158613040516,43.15777072443569,109.6696867052934
52.099110892558706,38.99167943822337,45.30974048111878,67.47486592058515,64.47831094572803,43.13988850147685,109.59634196131951
51.89748731947499,38.97557365221847,45.23411043959948,67.51076900268181,64.40069452379996,43.12587219819676,109.5232702026281
51.69325040709252,38.95473812044473,45.16393669018877,67.54093651605126,64.31923208072894,43.11534636615869,109.45043365391825
51.48682178014112,38.929053432962384,45.09842917713265,67.56475137840273,64.23447487463962,43.10792949459927,109.37780865967979
51.27863714965973,38.89842990820809,45.03683477196718,67.58160924061431,64.14701121443224,43.10322380183534,109.30534533541997
51.06912202991335,38.86282980838523,44.97845300652583,67.5909455110294,64.05748677013341,43.100824043947874,109.23295715629374
50.85868486438449,38.82226506173748,44.92264175533933,67.59223613126991,63.966624690056044,43.10035023169039,109.16055699605457
50.64773314491457,38.77678378456068,44.86880401844784,67.58497866369457,63.875207590749696,43.101473130831735,109.08807980611944
50.43668741381398,38.72647046990182,44.81637776548479,67.5686881111873,63.784041923468266,43.1039086021429,109.0154529550567
50.22597119257096,38.671459313947146,44.76485158744657,67.54291391088637,63.693948330411445,43.10739713411543,108.94256216690844
50.01599049447972,38.61193698675355,44.71379269746698,67.50724817400247,63.60577671270955,43.111701555047915,108.8692740834314
49.80713511851182,38.54812544358619,44.6628538458519,67.46131050758025,63.52040335984382,43.116628536918974,108.79549301065401
49.59980486532493,38.48026536113694,44.61175483845918,67.4047386278281,63.438692987557246,43.122045128050466,108.72117682742464
49.394426216938946,38.40862092585509,44.56026728661158,67.33721472979049,63.361460679502166,43.12787002608611,108.64629594772626
49.19143936436589,38.33349637486311,44.50821832652199,67.25850834928458,63.28946801804324,43.134056116478696,108.57080149182474
48.9912830261066,38.25523808842967,44.455495079687395,67.1684906863097,63.223436784305875,43.14058808700447,108.49465381061134
48.79441006296251,38.17421775755256,44.40202927526284,67.06711459187612,63.16404034975501,43.14749099832596,108.41787253026062
48.60131978017828,38.090820941978336,44.347768623629534,66.95440214092292,63.11187149098428,43.15482702178248,108.34053849467574
48.412565425464656,38.00545874372773,44.29265885922983,66.83046764751298,63.06742557605566,43.16267455144005,108.26275486156577
48.22873080180666,37.91858631169381,44.23664808248525,66.69554770144882,63.03111752055674,43.17111237185658,108.18463779665166
48.05041167518557,37.83070080346785,44.17969690387667,66.54999700508037,63.0033010207813,43.18022826260521,108.10635339194924
47.87822128059877,37.742319711147076,44.12177404542077,66.39426097617138,62.984258486988615,43.19013749289655,108.02813473024256
47.71279598730659,37.65396394687441,44.062850704321214,66.22887051029241,62.97417827307645,43.200982218771856,107.95023891280331
47.55477603013985,37.566155782891144,44.00292621684925,66.0544650934106,62.97315465775713,43.212910128088275,107.87289481369774
47.404773242373395,37.479415797596495,43.942079713891644,65.87180059309925,62.98120946212431,43.2260580430169,107.79630621675034
47.263356913590606,37.394245510684634,43.880499462332295,65.68171704752646,62.99830109499449,43.24055421509776,107.72069523335541
47.13106539976049,37.311106773342566,43.81846681107906,65.48509646579684,63.024308625427764,43.25652257177142,107.64631484147637
47.008416209549715,37.23041704101266,43.75632884678189,65.28284875381607,63.059021701915164,43.27407007140303,107.57340834636572
46.89589124434187,37.15255907441882,43.694497022923564,65.07591942481518,63.10216394709525,43.293265524638464,107.50217214126843
46.793912056116724,37.07788385265558,43.63346136764158,64.86528184722617,63.15342951940498,43.314132580471494,107.4327664023216
46.70283640945412,37.006696273767794,43.57378536736671,64.65190476478887,63.212491767769016,43.33666202450139,107.36533983414701
46.622978561279666,36.939239420012,43.51607708141721,64.43672793551137,63.278984523179254,43.360824220970244,107.30001455226343
46.55462216201448,36.87569910443731,43.46096661288072,64.22066621186173,63.352497859919715,43.386564147240854,107.23684374201996
46.49800553172069,36.81622764377875,43.40910576490865,64.00461752581063,63.43260434219878,43.41378505042516,107.17580058838148
46.45329781904089,36.760961669330165,43.36116896871765,63.78944858789468,63.51887993062636,43.44233818794908,107.11680952264786
46.42059527900453,36.71001757111961,43.317833520595805,63.575982820992614,63.610890118423676,43.47202414306398,107.05976520602165
46.39993680887128,36.663480426278014,43.27974853424601,63.36504244955893,63.708164618816674,43.502596859932446,107.00450709591236
46.39131047406704,36.621413281202166,43.247519741037486,63.157537632416194,63.81020084772335,43.53376054966848,106.95079091230443
46.3946390781884,36.5838858691596,43.221719693980646,62.954521852096754,63.9164934654357,43.56516009207871,106.89830488491451
46.40977047910311,36.550992532850984,43.2029002523954,62.75716726367069,64.02654921154308,43.59637761898301,106.84671015519861
46.436500047681015,36.52284189595848,43.19158179320041,62.56670557287297,64.13987215317518,43.62694484883796,106.79564728647345
46.47461075009451,36.49953623031297,43.18822864027775,62.38439315607808,64.2559530941066,43.65636055028235,106.74470069469714
46.52389008776032,36.48116687606208,43.19324052456254,62.21149947963762,64.37429102553033,43.68409501839183,106.69337588826146
46.58411403733494,36.46782528358743,43.20696422930647,62.04928231734262,64.49442423994918,43.70958271163321,106.64112774139794
46.65502980999868,36.4596046700775,43.22969771344342,61.898940548115945,64.61593044195516,43.732221939544715,106.58740453744245
46.73635978221484,36.45658260939866,43.26167046349579,61.76157536613594,64.73839638957311,43.75139161178176,106.53165228329271
46.827809264051034,36.45880787674555,43.303019885289245,61.638182926519356,64.86140166457918,43.766471778679914,106.4732885867769
46.929054681192454,36.46631065218259,43.35379110053214,61.529659304011524,64.98454501219561,43.77684973616802,106.41170379270022
47.039722387965455,36.47911957014305,43.41395742744823,61.43678650832041,65.10748260551537,43.781914264023456,106.34630199443036
47.15938775634562,36.497259411670754,43.4834326764056,61.36020472918089,65.22993199149707,43.78105817940458,106.27652730024603
47.2875980671717,36.52073290660944,43.56206226168471,61.3004030617017,65.3516495300019,43.77369848323879,106.20184062990396
47.423888198617234,36.54951197863853,43.649614316467414,61.25773359793294,65.47242731479365,43.75929750940518,106.1216881068199
47.56776961025982,36.58354649393452,43.74579000745179,61.23241671052787,65.59211846728053,43.73736554145304,106.03551626103285
47.7187144236664,36.62277078129013,43.850238854439546,61.22453295205618,65.7106490639165,43.70745080533001,105.94282085199188
47.87616115876268,36.66709239778885,43.9625569465068,61.23405804511254,65.82799179654972,43.66914125039847,105.84316550848247
48.03953132739065,36.71637503117548,44.08227726034647,61.26096565963699,65.94413319420394,43.62208631844535,105.73614963822459
48.208229047433925,36.77043795521835,44.20888059055209,61.305317722575516,66.05907487577308,43.56601563544448,105.62137813729044
48.38162427914691,36.82907487496816,44.34182845445788,61.36726430793227,66.17285752514735,43.5007332654172,105.49847914770243
48.55904891188789,36.89207015185919,44.480585087294884,61.44698167116533,66.28556287001001,43.42610031559571,105.36714147986878
48.739819716133994,36.959194072722916,44.62460917595516,61.544618531501726,66.39728368816627,43.34203766853493,105.22711471194651
48.92326308709828,37.03018667583402,44.77333704458058,61.66027226065932,66.50809992030182,43.24855748262038,105.07817553484728
49.10871402295547,37.10475476937152,44.92618560531781,61.79396883206495,66.61808768223496,43.14579192326347,104.92011559995404
49.29550182944441,37.182589695125195,45.0825695329891,61.94562393578526,66.72733669108858,43.033988395796136,104.75276648548684
49.48295519563268,37.26338508049547,45.24190540068371,62.11499901529703,66.83594079582711,42.913482675690624,104.57601332839847
49.67042802120843,37.3468341033218,45.40359794936635,62.30168619976957,66.94397254415023,42.78468023162304,104.38976575742578
49.85731247716995,37.43261673218168,45.56703425997731,62.50513528045196,67.05148120367207,42.6480526026582,104.19392508112394
50.04302272113881,37.52040719398431,45.731600358657985,62.724692075290726,67.15851742488992,42.504131149899216,103.98840005665663
50.226975670399625,37.609909062855465,45.89669907233724,62.95960925436063,67.2651440068965,42.353486243885136,103.77315701057756
50.40859708362848,37.7008858404558,46.06174544643942,63.209036517149826,67.37141386507518,42.19670611412586,103.54823978190777
50.58734129935131,37.793157742612316,46.226148956235924,63.4720253666749,67.47735182355021,42.03440120762958,103.3137390210529
50.76269428255622,37.88657591930936,46.38930938637977,63.74755072059659,67.58297602276737,41.86723329588467,103.06976384274974
50.93415865539707,37.98100644144593,46.55063304382872,64.03451702931983,67.68833489616526,41.695934528117384,102.81645987876614
51.10124893547512,38.07633958709045,46.70954769608687,64.33173822618568,67.79351013217844,41.52129522715569,102.55404317220909
51.26351117054263,38.17250740019403,46.86549739088362,64.63792403578886,67.89858474916052,41.34413983646652,102.28279487724305
51.42054546738967,38.26948287079232,47.017927593519545,64.95170504148243,68.00362319929651,41.165314402810104,102.00302210016561
51.57200526380478,38.367262599210825,47.166285454647706,65.27168135470603,68.10868765010663,40.98568079616007,101.71504037063806
51.717582062583055,38.46585724679597,47.31003826470657,65.59645009991526,68.21385831924253,40.80610159007502,101.41919666429672
51.857006704242266,38.56529499211233,47.44868530713109,65.92460069635096,68.31922207944126,40.6274189094511,101.11588648392211
51.99007058069727,38.66561765119985,47.5817467785345,66.25470986467207,68.42484741206741,40.450447129099935,100.80553039591415
52.116634533527716,38.76686071431333,47.70874597321023,66.58535362691221,68.53078902140658,40.27598241358258,100.4885458812187
52.23660852905637,38.86903835373976,47.82921230082699,66.91511447819246,68.63711982863128,40.10480618635018,100.16536106443219
52.349929057571856,38.97215389381716,47.94270898242942,67.24257398918316,68.74394261512096,39.93766840454067,99.8364493484846
52.45656659589641,39.076222623884505,48.04885830988107,67.56633404897335,68.85136112751212,39.77526683726522,99.50233007003942
52.556552968632836,39.18127732350041,48.147341680333795,67.88510227577792,68.95944744733022,39.61824324049161,99.16353742184029
52.64998906427847,39.28735333385048,48.23788793306025,68.19779069499037,69.06824225724426,39.467191388591715,98.8206163815412
52.737021012469576,39.394478451427936,48.32027640698649,68.50354573303358,69.17777223458533,39.32265557606463,98.47416358923749
52.81781644823322,39.50268115581874,48.394351643861384,68.80170204983588,69.28804417377467,39.18511598307121,98.12485549590649
52.89256818200127,39.612000112515155,48.46002412656937,69.09172387533677,69.39901212823261,39.054982849282325,97.77342165033095
52.96150917215345,39.72247598938011,48.51725250877661,69.37320949919912,69.51055594329983,38.93261396400688,97.42060271009679
53.02490689618305,39.83413250326738,48.566034295761405,69.64598402997588,69.62249811642039,38.81833696237132,97.0671530021959
53.083041103016015,39.94696730887169,48.60642250011937,69.91020569017016,69.73463654119132,38.71245119791614,96.71387893438386
53.13619721177737,40.06095774342342,48.63854635190101,70.16638639343294,69.8467525748351,38.61521712260793,96.36164889485603
53.18468083786255,40.17606467315345,48.66260697912078,70.41532751560236,69.95859533375499,38.526861809249944,96.01135104343668
53.22882206144746,40.29222012475505,48.678857125881066,70.65804100005907,70.06988008018882,38.4476027080053,95.66385367346253
53.26895280530237,40.409307087139084,48.687596028670086,70.89568454954215,70.18031077323268,38.377659454699774,95.32002169144737
53.305382696097375,40.527152837739344,48.68918224366987,71.1294919527249,70.28959137063747,38.317237019562725,94.98076149950222
53.33840228926337,40.64554283321299,48.68403537046172,71.36069637091157,70.39740421325253,38.26649930793182,94.64702576181821
53.36830302656866,40.76423656902451,48.672612092263684,71.59047614967982,70.5033839047607,38.2255583498255,94.31977280131318
53.39537961896054,40.88296558092704,48.6553784176954,71.81993637830207,70.60712351742754,38.19447875114102,93.99994148846906
53.41990747559709,41.00141911960143,48.63280379494169,72.05009657450611,70.708204964303,38.17327723693767,93.68846558980944
53.442124551580925,41.11924065853899,48.60537018270993,72.28185535724604,70.80621216978352,38.161911476299636,93.38627873558828
53.462238681615155,41.236046229380825,48.57356836447574,72.51594736287517,70.90071469186536,38.16028194120946,93.0942749188415
53.480442070278215,41.3514467515219,48.53787590797395,72.75293008482528,70.99125774763783,38.16826350924662,92.81326251714941
53.4969064693058,41.46505361758763,48.49874382116735,72.99320501466245,71.07738557373682,38.18574130218589,92.54396547448845
53.51176770759394,41.57647973565394,48.456611941502764,73.23703325329903,71.15867223692976,38.212614807293924,92.28706110150459
53.52512932176073,41.685360410342184,48.41193381937202,73.4845164275108,71.23472168629793,38.24877507595036,92.04319308526311
53.53708755898519,41.79138420747873,48.36517855027086,73.73555793445875,71.30514634869459,38.29409298804768,91.81293615451523
53.54774576376804,41.89430172451329,48.316809938670374,73.98985060824188,71.36956759176076,38.34843802581258,91.59676027631383
53.557198583125285,41.99390610286238,48.267271889087375,74.24695733170621,71.42764810837663,38.411702249451665,91.39504081057382
53.56550726496314,42.090011234455794,48.21699200341813,74.50649650651148,71.47911441393991,38.483797875488555,91.20809049561976
53.57269943377829,42.182450122564966,48.16638332340093,74.7683153506776,71.52374077068784,38.56463915191843,91.03615836841153
53.57879415900523,42.27108537622227,48.11582693339444,75.03253402640664,71.56132449107265,38.65414340955685,90.87939811749217
53.58381825629606,42.35580800892558,48.06564685857171,75.29951194319618,71.59169361864903,38.752254094723504,90.73786155046322
53.587794154406346,42.43652263195778,48.016099480620696,75.5698801208362,71.61473599645478,38.858951242729376,90.61153307165122
53.590723190034815,42.51314197105808,47.967380604249115,75.84466009360425,71.63040433431807,38.974233195834266,90.50035267319348
53.59259188891401,42.5856001855563,47.919631023589844,76.12532966397862,71.6386900322468,39.09809694870839,90.40419196013089
53.59338905840249,42.653864219222,47.872926338331624,76.41374214633895,71.63961417031108,39.23054127175279,90.32282307653719
53.593103783640494,42.717923413852965,47.827262427088655,76.71195949152349,71.63326633871856,39.37157617468568,90.2559369145132
53.59170517227838,42.777765883456404,47.7825592473449,77.02216736900803,71.6198497877371,39.52121204451442,90.20319859292442
53.58913561192733,42.833365224774525,47.73868502229704,77.34693354397606,71.59967841212107,39.6794308979555,90.1642730985428
53.585332396658465,42.8846868859708,47.69547584723612,77.68984466307842,71.57313814461772,39.84616077284625,90.13879593972693
53.58025046677725,42.93169843058504,47.65273229973645,78.05603796259699,71.54066565670816,40.02126348671123,90.126341318173
53.57385761464028,42.97436574511668,47.61020700395261,78.45219388101566,71.50275584127584,40.204528184702355,90.1264380539184
53.566115418203744,43.01264367214178,47.56761217014305,78.88613746408497,71.45995845879621,40.39566088080433,90.13860827928144
53.55697527367679,43.04648434183701,47.52465364050942,79.36638986329369,71.41284183107338,40.59427710900626,90.1623704375406
53.5463877827917,43.07586223909487,47.481062284278906,79.90180160652619,71.36195448635196,40.79991305629556,90.1972063494535
53.53430000046598,43.10078700987962,47.43659720293228,80.50125287662648,71.30781993260662,41.012048430669786,90.24254995435987
53.520635120516744,43.12128975511868,47.39103776376408,81.1733782282826,71.25095179876895,41.230115700430474,90.29781904733119
53.505281778675844,43.13740483407299,47.34419425733962,81.92629955448969,71.19184972014452,41.45349175803226,90.36243879565284
53.48811431332953,43.149171744215145,47.29593028516619,82.76738416877897,71.13096916127016,41.681498485770476,90.43581780152954
53.46902427480679,43.156649014714255,47.24616651750539,83.70304391132797,71.06870289454753,41.91342663203775,90.51731379268773
53.447928185229244,43.15991421844357,47.19486073141735,84.73857695334101,71.00540323544115,42.14855966325417,90.60624311109858
53.42475237275372,43.15904600437538,47.14199047001487,85.87806840799524,70.94142024581953,42.38617189397752,90.70192177852437
53.399427922721685,43.15411059457531,47.087556539844336,87.1243997460753,70.87710909174581,42.625509762702336,90.80367801751375
53.37190926743544,43.14516774665245,47.03159286757425,88.47936636551171,70.81280531094009,42.865785741102044,90.91081839347903
53.34219018761718,43.132283026566036,46.974159676609744,89.94381520855468,70.74880926613494,43.10619816238075,91.02259845851388
53.3102949047468,43.115527273821385,46.91532449903518,91.51778987273502,70.68539491215142,43.34595714000165,91.13824126352459
53.27626521572972,43.09497062722542,46.85515700778717,93.2007340127157,70.6228114651957,43.58428997239511,91.25697544505219
53.240175196303554,43.070695633749175,46.793745094291914,94.99167670337546,70.56125815482751,43.820431080153114,91.37803814111051
53.20216132899624,43.0428279774726,46.7312076675605,96.88932773843538,70.50086133449734,44.0536234858173,91.50064795962744
53.162427515711265,43.011551746689086,46.66768312454779,98.8921497314542,70.44168905780535,44.283137154965004,91.62400520959966
53.121215753830484,42.977093331744896,46.603305999675605,100.99841443100375,70.38378803902364,44.50827965690306,91.74733554085395
53.078776474983556,42.93969823275017,46.53820145729779,103.20615533995363,70.32719627723506,44.72838357618895,91.86992234195505
53.03537025261868,42.89962696720535,46.47250581687427,105.51303549288785,70.27192139104972,44.94278696103459,91.99108942250456
52.99128977479376,42.85716268613845,46.40638695389347,107.91628375957349,70.21792726205203,45.1508314787083,92.11017320081902
52.946866238673984,42.812606246504004,46.34003955679615,110.41279308626025,70.16516212393842,45.35187968481495,92.22653556834575
52.90245555189642,42.766256640078794,46.273666410105015,112.99927956266919,70.11360143992921,45.54532850530118,92.33959875233143
52.85843411136802,42.71839984766915,46.2074728205554,115.67235222622575,70.0632594101257,45.73060313873702,92.44884657274538
52.81521109453492,42.66931776527955,46.14167523978099,118.42847255546775,70.01417706360688,45.907146867047686,92.55379036239054
52.773227556324905,42.61929872426079,46.07649963933126,121.26385782163426,69.96643365001242,46.07443330178429,92.65395470740262
52.732934028401395,42.56862934395061,46.01216029949252,124.17440476585178,69.92018341988904,46.231997795267425,92.7489042596631
52.69479168517368,42.51757507877862,45.94884167922904,127.15572212282959,69.8756671617867,46.37945532525757,92.83826268578073
52.659331794895074,42.46637504689566,45.88670318236327,130.2032631963641,69.83317670356182,46.516488413981286,92.92168637729907
52.62722825626045,42.41526175229338,45.825892390564896,133.31248006911582,69.7930128658904,46.64282483621588,92.99883026183842
52.59931109733768,42.364483166134214,45.76654155865984,136.47898348145299,69.75547940857322,46.75823037609663,93.06936031920786
52.57651902457488,42.31429977940298,45.708751608699075,139.6986820738834,69.72090061747909,46.862515460340724,93.13300006445972
52.55984921221674,42.26496356056615,45.65258992579861,142.9678039501516,69.689617764886,46.95553415092329,93.1895472899073
52.550341361522136,42.216707563376104,45.59810787982025,146.28276366674766,69.66195441883418,47.03716971610986,93.23884045423088
52.54907489001961,42.169753490516854,45.54535316341109,149.6399446576914,69.63819147445858,47.10732952244192,93.2807271907147
52.55714173480524,42.12431563924409,45.49435913691411,153.03552055576102,69.61858484170979,47.16596412238612,93.31508194274187
52.57559981483512,42.080585851798716,45.44512671478619,156.46547222965788,69.60340098668725,47.21308973377123,93.34184562001967
52.60544821173943,42.038712998046265,45.39762664820921,159.9258449639888,69.59292184555521,47.24878676060578,93.36102817117103
52.64763934530091,41.998801008894944,45.35182534487109,163.41306221582147,69.58741691016286,47.27318075504521,93.37267279408952
52.70309188320007,41.96092726935303,45.30770588397023,166.92411053010528,69.5871248927748,47.286435469047596,93.37683831380237
52.77267084558252,41.92515633974628,45.26526075668385,170.45663940285223,69.59226264061617,47.28876722410413,93.37362253849514
52.8571547094161,41.89153108561456,45.22446760959758,174.00918834213255,69.60302920352082,47.280456598030156,93.36317880041267
52.95722678986838,41.860054351566376,45.185277558322454,177.58164107573714,69.61958111365455,47.26183787686791,93.34568665030964
53.073485432783784,41.830685082762415,45.14762793965625,181.1757026905537,69.64200712381084,47.23328199156018,93.32130946021451
53.206437353595554,41.80335109173304,45.11146003985615,184.79513459401537,69.67034146308686,47.1951972694529,93.29019233685736
53.35646631396099,41.777957619600706,45.076718364610166,188.44564543289005,69.70460251725825,47.148040596849285,93.25249542160444
53.52381063307935,41.754379076044835,45.04333891817986,192.13445408859334,69.74480609484726,47.09231271850806,93.20840685949327
53.70858174522382,41.732448068446736,45.0112526914785,195.8696755353678,69.79093984858406,47.02853411841747,93.15811143723676
53.910809811496165,41.711962364690514,44.980405699914726,199.6598157406661,69.84294194787445,46.95722426517519,93.101759886233
54.13046707913863,41.69270749292193,44.950767516454405,203.5137607525821,69.90071613931774,46.8789002034148,93.0394864167756
54.36745038169588,41.67447046646181,44.92231507902458,207.44142547948968,69.96415691183262,46.79408377019095,92.9714521809378
54.62155897474442,41.6570310034709,44.895013388461095,211.45454448909905,70.033144162358,46.70330040319538,92.89785521090191
54.89250127989117,41.64014673903553,44.86881419729828,215.56691104029073,70.10751593023224,46.60707839551773,92.81890100265149
55.17991463983767,41.623556979952035,44.84366292266581,219.79406812890912,70.18706126654783,46.505969347443255,92.73478860261548
55.48336361119153,41.60700453115429,44.8194933422444,224.15292453952506,70.27154095495402,46.40057873096906,92.64573761302174
55.80231991549909,41.59024982114065,44.79621351545242,228.6615830198825,70.36069746519587,46.291571994909944,92.55201031071068
56.13615550915137,41.57306318609056,44.77370567304134,233.33928093250208,70.45423133817297,46.17964873325416,92.45389129416802
56.48415283611669,41.5552131395842,44.75184606614742,238.20611035102894,70.55177285883666,46.06551338925552,92.35166393556653
56.8455050824486,41.53647229775933,44.73052194278287,243.2824961433783,70.65288838222469,45.949866229168514,92.24563823599911
57.219296483471304,41.51663476780331,44.70962597121192,248.58899787910073,70.7571157212628,45.83340517490948,92.13620708755496
57.604488652152874,41.495521990683066,44.68903844970538,254.14669429039094,70.86398395235648,45.7168170842713,92.02385949302197
57.9999379556526,41.47297362185304,44.668622897893506,259.9774259261418,70.97299865814475,45.60076177876129,91.9091388091667
58.40442846354419,41.44884706197999,44.648242551083314,266.10329567692537,71.08362797188842,45.48586898427576,91.79261161285258
58.8166831645771,41.423039469780555,44.62777643134191,272.5458371791011,71.19532261403701,45.37274762816329,91.67489216809437
59.23534654002466,41.395510630291184,44.60711487596827,279.3253661131333,71.3075480532092,45.26198501632237,91.55668115401527
59.658968041743194,41.36628100310476,44.58614663213468,286.460497814033,71.41978782086056,45.154124772105305,91.43875660108517
60.0860096459705,41.33541516936484,44.564762993480564,293.9678764230567,71.53152444840588,45.049638423615974,91.32192966184243
60.51486590685495,41.30301905539877,44.54287644654699,301.86232401485205,71.64224027204179,44.94891741688729,91.2070287121827
60.943870985497014,41.269252051969445,44.5204265751639,310.15712236175807,71.75144528509537,44.85229473172511,91.09492276902014
61.37129384783776,41.23432772523478,44.49736474205367,318.86388395469123,71.85869176757312,44.76006987364644,90.9865257288723
61.79534827157728,41.19849227984963,44.47364174908324,327.9920737528068,71.9635544226625,44.67250939289451,90.88275108809167
62.214223967202976,41.16200199266024,44.44921899598954,337.5487171726125,72.06561019544539,44.589833941890554,90.78446790360348
62.62611025143109,41.125120357497465,44.42408899297153,347.5386498457946,72.16445800398716,44.51221762689657,90.69251202644352
63.02919543776898,41.08812579745866,44.398277522389364,357.96516944628564,72.25976309771201,44.439797037610326,90.60772504091051
63.4216672186654,41.05130617821566,44.371828042648936,368.8304510800534,72.35127260782792,44.37267017814982,90.53095266759286
63.80174168306806,41.01493667255448,44.34479473433376,380.13522817569276,72.43878787909581,44.31088829438309,90.46299734845836
64.16770481143253,40.97926230644715,44.31725380735901,391.8780189320951,72.52213906931581,44.254464834348575,90.40459033730025
64.51792903554109,40.944501174378594,44.28931080032172,404.05457046285676,72.60119695353171,44.203403541775266,90.35642058002327
64.85086196754929,40.910856362138155,44.2610844108794,416.6577685753073,72.67589480718492,44.15771553987532,90.31917260898574
65.16502253129386,40.87851419532058,44.23267862166195,429.6776416098129,72.74621745385464,44.117407485314324,90.29351301395558
65.45902567038627,40.84763028854137,44.204170017115395,443.101097001678,72.81216569480537,44.082459999184984,90.28004411025333
65.73161203362912,40.818326625256596,44.175617903085055,456.9115409740236,72.87374120363229,44.0528259174519,90.27929166685406
65.98165188516656,40.7907071955689,44.147075950094035,471.0886700175933,72.93096423019925,44.02845126997963,90.29173707595467
66.20813311326583,40.764870779429344,44.118584843940496,485.60843991369165,72.98388485194647,44.00929142456548,90.31783176420743
66.4101651042252,40.7409035758204,44.0901540506259,500.4431556743897,73.0325601691928,43.99530119171829,90.3579595028506
66.5869990694518,40.718865002195784,44.06175590501769,515.5617847115475,73.07702739498266,43.98641238521777,90.4123972631262
66.73803358204103,40.698790669179466,44.033336672196626,530.9304811466811,73.1173166010627,43.98253013280238,90.48133320535338
66.86279280562192,40.680711098851845,44.004823967170374,546.5130237515166,73.15349343651722,43.983557845721805,90.56491831980276
66.96090439066201,40.66466021728381,43.97611674792728,562.2709914656734,73.18567812403256,43.98942333438242,90.66328033102663
67.03210570731906,40.650661944298555,43.94707348687679,578.1639512309871,73.21402073802615,44.0000773437958,90.77648775462899
67.07626758560518,40.63871459023352,43.91752104614841,594.149927890265,73.23867437688305,44.015474454712546,90.90452703132205
67.09339931041664,40.62879420816253,43.88728019443116,610.1858992289169,73.25980363538986,44.03556456535323,91.04733115488153
67.08362591780609,40.620869587729096,43.85618084372631,626.2280529433868,73.2776065535618,44.06029722429224,91.20481466338964
67.04716822488061,40.614905237429724,43.82405386858589,642.2322200847084,73.29230949856286,44.089616611265804,91.37686109793076
66.98434741674808,40.61084869715289,43.79071737052196,658.1548884899233,73.30414678067011,44.123439509159354,91.56328979404577
66.89559500366471,40.60862696722711,43.75598155318593,673.9542973617836,73.31337160636438,44.161637555346985,91.76386764832813
66.78144019875214,40.608169006185804,43.71966966104757,689.5909638073156,73.32029751564278,44.204043117619975,91.97836135209675
66.64248237211643,40.60943393463636,43.68162836366943,705.0277577056486,73.32531582039468,44.250466674948896,92.20655687347863
66.47938138045396,40.61241479549486,43.64171524710909,720.2298637710061,73.3288632679102,44.30069948228978,92.4482166514514
66.29287489682251,40.61712144913053,43.599781245329325,735.1646735862317,73.33137910798465,44.3545012295322,92.70303250698768
66.08379313381701,40.62357122696673,43.555666870052086,749.8016320588287,73.33329879407725,44.411598458379785,92.97063378080215
65.85304560951069,40.631797306878504,43.509207623610486,764.1121587908002,73.3350760526993,44.47170401256338,93.25062855380548
65.60159497390433,40.64185378342956,43.46023274743337,778.0697278165107,73.33718421886387,44.53453491883661,93.54261011148209
65.33045098114471,40.65379978730654,43.40855721879426,791.6500067569079,73.34008123319128,44.599807151289,93.84611709140371
65.04068742484732,40.667675042352926,43.3539846497384,804.8308124299194,73.34417796254267,44.66721664670805,94.16060886910431
64.73344816901384,40.683491768182776,43.29632663204128,817.5918599733009,73.34984110198083,44.73643099695545,94.48549520380892
64.40992335195762,40.701246727159,43.235417830911075,829.9144956083636,73.35740816958985,44.807097492419864,94.82017505000624
64.07132297502548,40.720930695293305,43.17110959204619,841.7814526135957,73.3671766566887,44.878848159371216,95.16402628332304
63.7188807113877,40.74251807194843,43.10325397188155,853.1766370269715,73.37937312812547,44.95128631665765,95.5163656175142
63.353877363651655,40.76594874467702,43.031702445926,864.0850518606985,73.39414597146114,45.02396497681952,95.87644280256525
62.9776449151751,40.79112606200782,42.95632339454217,874.4927871199542,73.41159768292285,45.09638030718839,96.2434769416229
62.59153900295882,40.81793357925418,42.87701631427935,884.3868662162403,73.43181531225991,45.16798692266903,96.61667474912008
62.19690783235315,40.846247222315974,42.79370507358496,893.754912189698,73.45486327274048,45.23821441232231,96.99519914143852
61.79508239079527,40.87592618267679,42.7063228319947,902.5847473107965,73.4807671100983,45.30646568165716,97.37813773835857
61.387377554046616,40.90679584897336,42.61481505649008,910.8641677690738,73.50953421111075,45.3721077178837,97.7645280110494
60.975080101969716,40.938645977033424,42.51916333212595,918.5813385388988,73.5411972592499,45.4344788756778,98.15341597773333
60.55942624876792,40.97124557126342,42.419402530935095,925.7258796452047,73.57582522361145,45.49291498906369,98.54387682273719
60.141596066000005,41.004353166444815,42.31561189249388,932.2898419102818,73.61348446836776,45.546770784577284,98.93498188463494
59.722732630322845,41.03770844105948,42.20789494306559,938.2678685617973,73.65418395266617,45.595418272664425,99.32577246303019
59.30395649625031,41.07101757867038,42.09637554350817,943.6567745752068,73.69785911722897,45.63823235046997,99.71528358772146
58.886352384802215,41.10395400832128,41.98121472293619,948.4551008893524,73.74444996589283,45.6745907547979,100.1025804334119
58.47094777865267,41.13617619815823,41.862625311147376,952.663050678095,73.79405607672517,45.703898341180185,100.48675108195935
58.05871576770107,41.16734107529998,41.74086482185465,956.282874116806,73.84704704952631,45.725611963508726,100.86686855025242
57.650597781726795,41.19709822380142,41.6162168841913,959.3191629783579,73.90404805890431,45.73924127602107,101.24198275699817
57.24751154414645,41.22507705403615,41.48898446780232,961.7785635285114,73.96584833913393,45.74433430911217,101.61115473015772
56.8503304290408,41.25088813318255,41.35949620428719,963.6691035299893,74.0333005899676,45.7404734668124,101.97347678906122
56.45985989314015,41.274140553107934,41.22810496918912,964.999585145792,74.10724743257022,45.72728942606364,102.32804438804675
56.076838914066364,41.2944561218792,41.095171336622705,965.7793452590881,74.18853308492015,45.70447528725322,102.67392371534721
55.7019580535379,41.31146623084791,40.9610531011821,966.018402097118,74.27812505166749,45.67178560322901,103.0101702239831
55.33586208557967,41.324801687815835,40.82611873982028,965.7276461296872,74.37724510272852,45.62903305179412,103.33587924619054
54.97913011873659,41.33409663816729,40.690769174781785,964.9188428598466,74.48739291875593,45.576103632157015,103.65020259951531
54.63226427921108,41.339009068992056,40.55543906608122,963.6045877979709,74.61026996888431,45.51298121913388,103.95231736751767
54.29570905281762,41.33923633075141,40.420577124508014,961.7982849804183,74.74767338822093,45.43975390042058,104.24140482431312
53.96987800726544,41.334510045492685,40.28663317402912,959.5140471212493,74.90140106632872,45.356602515149454,104.51667838983516
53.65515452739687,41.324583331967176,40.15406690303491,956.7664860716295,75.07317738765265,45.2638004856821,104.77742145975087
53.35187499349112,41.3092341785398,40.02335937080236,953.5704243478267,75.2645905285058,45.16173345046679,105.02298236515493
53.06032936317562,41.28828611300535,39.895005665588876,949.940584605132,75.47706406917928,45.050910609134405,105.25274401995165
52.78078436345287,41.26162132610727,39.769499989936946,945.8913132772426,75.71193490498494,44.93194539743523,105.46612732796187
52.51349656676601,41.22917056262759,39.6473412031432,941.4363253536924,75.97062651634046,44.80551919770581,105.66263316982385
52.25869653000681,41.190895424346564,39.52905803815704,936.5884931484416,76.25476708088996,44.6723597774836,105.84186187094025
52.01656788675647,41.14678832152997,39.41522021734012,931.3598358888734,76.56617417673422,44.53324667372136,106.00347840568021
51.78724993550539,41.09689153336652,39.306417620816134,925.7617834744093,76.90682409937313,44.38902024433873,106.14717193955089
51.57085424313138,41.04131048610707,39.20323116828897,919.8055271695672,77.27890443070059,44.24056813993386,106.27266602508601
51.36746519705627,40.98020400239529,39.10622464781272,913.5022311617232,77.68486271632236,44.08879851425903,106.37976073225288
51.17712164610375,40.913765211690084,39.0159524204479,906.8630601503536,78.12733697521638,43.93462895770049,106.46834222566788
50.99980811124841,40.84221598464817,38.932955695548635,899.8991342108262,78.60903452939085,43.77899531359606,106.53834685414128
50.835470931318525,40.765814089798255,38.857743035998055,892.6215305375941,79.13279202800042,43.62285403302074,106.58973759111316
50.68403703879357,40.68485201361719,38.79078258039886,885.0413090343097,79.70193308994624,43.46716466883971,106.6225330560183
50.545408977650446,40.59963934288586,38.732519412310985,877.1694752273542,80.32067265610365,43.312874163031424,106.63684950056061
50.41944524732639,40.51048677529633,38.68339175049231,869.0169240732358,80.99421472893926,43.160920310754655,106.63289702849042
50.30595519298367,40.41771054788407,38.64381933911808,860.594576276846,81.72851203879752,43.01223670172939,106.61094317693004
50.2047129479365,40.321649098041334,38.61417598923324,851.9138700520526,82.52989338005966,42.86773613776658,106.57130689762991
50.115464378878414,40.222666631371354,38.59477894355831,842.9873712860096,83.40472428815778,42.7282796091146,106.51439431274969
50.037911582561215,40.12113683135361,38.58590505868621,833.8290156437641,84.35919433107455,42.594657883468614,106.44071624752667
49.97169333727099,40.01742701042059,38.58780775948822,824.4539109682393,85.39924485047044,42.467597427791596,106.35085282755803
49.91638501482903,39.91189859965406,38.60070942120745,814.8781683640548,86.53052702805479,42.34777149674278,106.24541264992348
49.87151201833214,39.8049131045922,38.62478143317106,805.1190671742692,87.75827772970817,42.235794283596626,106.125044248218
49.83655161636822,39.69682453484437,38.66014235519616,795.1952620326124,89.08712226800147,42.13220531369586,105.99048021600643
49.81091844265518,39.587959844943846,38.706876192951306,785.1266540870026,90.520869274068,42.037465970175475,105.84254508285386
49.79396015980792,39.47860863950913,38.76504147711021,774.9339902614975,92.06233436426014,41.951968748908826,105.68211182443792
49.784983651176795,39.36903418730279,38.83465617977778,764.6384646605205,93.71320926318877,41.876038515067364,105.51006723745392
49.78329218487482,39.25948905578522,38.9156800039276,754.2614309839278,95.47400491412502,41.809918738098354,105.32732843670502
49.78819921847674,39.15021258050592,39.00801669598193,743.8241690823264,97.34409969999315,41.75376176039429,105.13487147089202
49.7990203346684,39.041413968103036,39.11152581047698,733.3476315838057,99.32187160317625,41.707637372136944,104.93371507487727
49.81507795052721,38.933265524808625,39.22601982619615,722.8521795450231,101.40482706178099,41.67154664095201,104.72487316571417
49.83573289248159,38.82591810706685,39.351248601465336,712.3574004668714,103.58964838786405,41.64542090113123,104.5093382834719
49.860412536172475,38.71952117931471,39.486895911426664,701.8820402622838,105.87216078813263,41.62910913070255,104.28810897347691
49.88860621325374,38.61422474413616,39.63259613591821,691.4439362992988,108.24727523361268,41.62237728464294,104.06220281512732
49.919843685351836,38.51017063275386,39.78794874546515,681.0598942751267,110.70896255311655,41.62492940089667,103.83261954746455
49.95368939522454,38.407500445029726,39.952510747732255,670.7456339159364,113.25029722032113,41.63642911317544,103.60030133818317
49.989751433021205,38.30638247253446,40.125778925061496,660.5158891864432,115.86356347175526,41.65649937019403,103.36614871241427
50.02767768310469,38.207027330318724,40.30719012978491,650.3845823970756,118.5403591600859,41.68471052191231,103.131071739575
50.06713194082285,38.1096753576231,40.496146408827926,640.3650042422668,121.27167098529071,41.720583289551094,102.89600432399189
50.10777671382865,38.014577946043964,40.69203847466483,630.4700317106289,124.04798139929807,41.763609716336504,102.66186356691408
50.14928562307653,37.92200034424101,40.89424388769363,620.7123647512068,126.85942838309828,41.813267482723674,102.42951414711237
50.19136904174502,37.83223960591932,41.10211455264637,611.1046367873882,129.69593657070584,41.86901220623191,102.19978212051107
50.233778645433574,37.745627992699504,41.3149844648995,601.6593114089006,132.54726508955275,41.93026373419945,101.97348240973423
50.2762888168208,37.66251261578229,41.532197133107665,592.3884564364728,135.40300966889504,41.99641206874494,101.75140470187765
50.318687228153976,37.58323645765005,41.75312069665785,583.303520433733,138.25260173266597,42.066843184780666,101.53427011961197
50.36078999414257,37.50814331474841,41.97713540296204,574.4151442542378,141.08531951104754,42.14095668683368,101.32271981464105
50.40245532846998,37.43759308254034,42.203616767986816,565.7329723787276,143.89033824606187,42.21815781883826,101.11735003705475
50.44356997806089,37.371959045699704,42.431943022542775,557.265437430728,146.65684638161062,42.29784305365269,100.9187359274879
50.48402259556097,37.311606844070646,42.661520774455276,549.019550387195,149.37420221415317,42.379409700165105,100.72740777595146
50.523699013002215,37.25688145565329,42.89179664307953,541.0007468905354,152.03205513659526,42.46228847679539,100.54382751481907
50.562508608000826,37.20811625264189,43.12224422367507,533.2128006475754,154.6203829266701,42.54596485429268,100.36841635717627
50.60041023426883,37.16564649976084,43.352351044069145,525.6578015467537,157.12947189755857,42.62997132037542,100.20159973430466
50.63740736534232,37.12980401597725,43.5816234869926,518.33622268698,159.54991210658756,42.71387497107473,100.04380501041734
50.673526139778495,37.10089762867064,43.80959423963834,511.24709281983127,161.87267762736943,42.79728504138024,99.89542027104386
50.7088142002566,37.0792022887544,44.03581176887141,504.3882527445622,164.08929648262463,42.87986760773306,99.75678057700544
50.743366509880055,37.06496142443256,44.25982019614247,497.756639984257,166.19203650525614,42.961341738566766,99.62819910945491
50.77734058300069,37.058384239224814,44.48115676673924,491.3485276468302,168.17404698055648,43.041457552922076,99.50998403944025
50.81093714787703,37.05962988902493,44.699373766586476,485.15973501241825,170.02943561268944,43.119980055561996,99.40240242087678
50.84437278919089,37.06879725108125,44.91405780186325,479.18590484547866,171.75325420908635,43.19669258923567,99.30563523273179
50.87787547550253,37.08593776761922,45.12482206515507,473.4228421034428,173.34140020690572,43.27140526019858,99.21978225580531
50.91169069845205,37.1110770501866,45.33128318584489,467.86682456113124,174.79050587461728,43.34394789674308,99.14490286606335
50.94607000983469,37.14421822579887,45.533051515540386,462.51477079510556,176.09789983462807,43.41415469705945,99.08102804881955
50.98124863291858,37.18532953037203,45.72974178322035,457.3641542580214,177.26168513297472,43.48186592603238,99.02812491480051
51.01744542706556,37.23434271913502,45.920982466785595,452.41269844615795,178.28088001635308,43.54694809650996,98.98606877225828
51.05488949117676,37.29116794801471,46.10640608947621,447.6580080923687,179.15548723711495,43.60930394547561,98.95466744152039
51.09383619614243,37.3557011411164,46.285631451987655,443.0972435478268,179.8864328326587,43.668857763746644,98.93370360863295
51.13454922254649,37.42781008565379,46.45826156775582,438.7268719470946,180.47543698557317,43.72553940238351,98.92293580943222
51.177272078671976,37.50731684963017,46.62390003890476,434.5424971328934,180.92487114906788,43.77929482535788,98.92206607411374
51.222221604473056,37.59399895283078,46.7821621767133,430.53875509193847,181.237619911459,43.83011554762764,98.9307358311307
51.269599687172814,37.687605331357474,46.93266540285736,426.7092877001579,181.41700873129264,43.878052993215604,98.94856559046195
51.31959378241843,37.78786287438139,47.07501552539452,423.04690091306026,181.46684967389388,43.9232062817026,98.97518013194548
51.372359094766104,37.89446435422953,47.20881415936079,419.54400351983634,181.39152962873732,43.96571001605775,99.0101805437266
51.42800955485966,38.00705808480985,47.33368478501352,416.1931420723579,181.19600770773238,44.00574254879322,99.05310794470492
51.486634717366336,38.125258996521886,47.44928850543621,412.98732869755924,180.88571441258884,44.04353721994173,99.10345921670253
51.548319525367994,38.248669321773804,47.55531471920495,409.9202714377843,180.46646017493637,44.079372198281725,99.16073859540438
51.613136687495924,38.37688268613874,47.65146704668234,406.9868141908278,179.94440133082168,44.11354745208771,99.2244750709883
51.68113268737846,38.5094702776418,47.737469597790444,404.1833944060072,179.32604271938638,44.14637514631484,99.29418571391841
51.75240753173534,38.64597365959732,47.81308782781535,401.5080728351655,178.6183246021701,44.17818520296495,99.36934388419131
51.82737963356978,38.7859176653743,47.87813720875814,398.96013414535463,177.82881100637815,44.20932144677637,99.44940078844355
51.907135545774274,38.928826491014455,47.932472695189965,396.53958944021275,176.96580271176407,44.2401179284761,99.53382708044713
51.993617136913564,39.07422250179851,47.97598203339408,394.2467694893763,176.03822966504424,44.2708773626472,99.62211295067105
52.089555965795704,39.221614765708566,48.00859840968518,392.08200413329394,175.0554233170521,44.30187389808599,99.71373190339902
52.19828111846225,39.37050055867926,48.03031521336988,390.04536956754396,174.02695776683902,44.333368946073385,99.80813027302935
52.323515624830364,39.520383280745165,48.041181764663456,388.1365107858786,172.962695699553,44.36561166627474,99.90476180391518
52.46918935663596,39.67078369432488,48.04129002799844,386.35452097350606,171.87301881408604,44.3988221903764,100.00311129307838
52.63929919370325,39.8212299479769,48.03077771525409,384.6978511606334,170.7690271194994,44.43318517520512,100.10266677836078
52.8378641519017,39.97124333932224,48.00984655281305,383.1642481057369,169.6626279468187,44.46886722455661,100.20288260685413
53.06895858249651,40.120343353469494,47.978767212037276,381.75074297375505,168.56663450185187,44.50603521381318,100.30319398501243
53.33672307939646,40.26806727999407,47.937858436108456,380.4536996873934,167.49478599486545,44.5448498385968,100.40306885359603
53.64528268217915,40.413978094888144,47.887462075925846,379.2688757724015,166.46150374888595,44.585442851384705,100.50202769020777
53.998605331284075,40.557651383653344,47.827938484332776,378.1914392068767,165.48147639525118,44.627907544520546,100.59960913785152
54.400369988946245,40.69866137500016,47.759677358969824,377.21593496400874,164.56927384548388,44.672311755213606,100.6953376592731
54.85387479489302,40.83658438833247,47.68309902808925,376.3362489125208,163.73903528550431,44.71870981933777,100.78874245893331
55.36198276927663,40.971010221919485,47.59863934304979,375.545637863807,163.00421719245833,44.76713248564984,100.87939788387439
55.92712543704776,41.10154073850187,47.506741467121955,374.836825076261,162.37747009397106,44.81756676633522,100.96692550938134
56.55139931428482,41.22777722540242,47.40787020005258,374.20206885385437,161.87067984010162,44.86995180739333,101.05096326474548
57.23670295514654,41.34931955168248,47.30252828848534,373.6331508280799,161.49502066388484,44.92419350927674,101.13116289832976
57.98478885418929,41.4657852753212,47.19124923627882,373.1213532155905,161.26087621287525,44.980174734791284,101.20723078030424
58.79718920756143,41.57682682068894,47.074576159030734,372.6575166278132,161.17771332048116,45.03775039320505,101.27895199308239
59.67508703973538,41.682126992658766,46.95305639955735,372.2321753327348,161.25402865474715,45.09674668441101,101.34615818491068
60.619206944608884,41.78138351123841,46.8272570613176,371.8356981043827,161.49733892081002,45.156979759216156,101.40868336827262
61.62975644714216,41.874308281588995,46.69777360235695,371.4583755051049,161.91414258228397,45.21827839987536,101.4663701016056
62.70641011344269,41.96064790585396,46.56521225628936,371.09044735636485,162.50981738650788,45.280486014857516,101.51911545423944
63.848314908006444,42.04020272898191,46.43016491208902,370.72212929541416,163.2884576776519,45.343443001350195,101.56688751371586
65.05418035586823,42.112822779728845,46.29320697798679,370.34371448653576,164.25270574304665,45.40697710061689,101.6096882513682
66.32258616983847,42.178390437445735,46.15491741666608,369.945752893269,165.40362925950097,45.47091765854549,101.64752197556241
67.6524395744244,42.23681908127975,46.015888602024305,369.5192616397431,166.74067681760894,45.53511330553393,101.68042264393506
69.04326313887637,42.288076418734114,45.876709110889486,369.0559327346872,168.26174322687567,45.59942746057031,101.70850553607546
70.49514159480815,42.3322052814246,45.7379415015033,368.54830677480277,169.96330730849283,45.663720276999605,101.73197254521533
72.00847511047752,42.36931631930666,45.60011982034907,367.9899737498596,171.84052684288804,45.7278446276374,101.75107089967717
73.58377910558518,42.39956418235333,45.463758523159925,367.3758893111856,173.88723478169342,45.79165999385904,101.76607087145626
75.22174781029064,42.42313726969737,45.329348216424265,366.70264860775484,176.095899617236,45.85503987030596,101.7772866842698
76.92360995001333,42.44026884452261,45.19733788342306,365.9684781338193,178.4576421834988,45.91785871273387,101.78508770840507
78.69144348757884,42.45124583854113,45.068131329933195,365.17297494163324,180.9623297522379,45.97997705076526,101.78986342333884
80.52813198099113,42.45639470283722,44.942111296970765,364.3167866809222,183.59868221354907,46.04124880779259,101.79198657491627
82.4370424097038,42.456055498078086,44.819665010649224,363.40133866213137,186.354335499049,46.10154391682371,101.79182533347074
84.42169557456471,42.45057010916597,44.70118199683526,362.4285910314344,189.21588930885935,46.16075674198926,101.78977598915137
86.48564171672943,42.440290441203715,44.587034558671085,361.40079883383845,192.16899480337813,46.21879191676369,101.78625492603804
88.63257189569855,42.42558542621311,44.47757342110221,360.3203346940643,195.19849564794436,46.27555379331688,101.78165490300283
90.86643121699089,42.40682849582789,44.373145172776354,359.18966494682047,198.28858110276937,46.33096231225146,101.77632930983813
93.19130308129236,42.384375819529154,44.27410334465165,358.0114404136431,201.42291250261192,46.38498011583977,101.77062392487026
95.61112451189648,42.35856109202535,44.18079282032723,356.7885360259233,204.58477370125544,46.43761757891668,101.76489718437999
98.12943990482557,42.329713540888356,44.09352439604795,355.52399365167435,207.75733408334634,46.48891142158716,101.75948669792186
100.74928579468818,42.29817506056842,44.012565601688785,354.2209917052115,210.92397381511321,46.538905128919765,101.7546651313559
103.4731357031846,42.2642938310753,43.938145258744,352.88286748559506,214.06850373148035,46.5876501378166,101.75064633133842
106.30283955563262,42.22840330980243,43.87044875762471,351.5130875138828,217.1752279844811,46.63521432925596,101.74762873702113
109.23962457384309,42.19081254342514,43.80959871005778,350.11515242773424,220.22894211294184,46.681675330832284,101.74580956937481
112.28419017620057,42.151817681454084,43.755643565571624,348.6925214857822,223.21492720149848,46.72710085608667,101.74534933264967
115.43678130328284,42.11171678015557,43.70857046597973,347.24859522648,226.1189331333263,46.77153994316451,101.74634354327858
118.69720857266023,42.07080670906517,43.668325122527946,345.78673486665616,228.92715883449137,46.81503355077928,101.7488503321792
122.06493822249408,42.029367663894114,43.6348127467775,344.31028376656263,231.6262722923008,46.85762249575652,101.75293908769314
125.53923376436676,41.98765747705452,43.60788476687224,342.8225653116388,234.20348718241823,46.899335618999444,101.75869338700157
129.1191577105507,41.94591958856089,43.58733982476961,341.32689571333543,236.64664281018005,46.940175172873516,101.76617073444841
132.80337522845,41.90438497284556,43.57294797435929,339.82666843614714,238.94423247922526,46.980120807133936,101.77538464924119
136.58989217069063,41.863259629331324,43.56447202722496,338.3254624211711,241.08539579500263,47.01914056597329,101.78633391668126
140.47585534144082,41.82272327436821,43.56166292067877,336.82708389966695,243.05992879945424,47.057185363110435,101.7990252849696
144.457439706066,41.78296753226885,43.56424360043031,335.3355092555226,244.85833823804956,47.09417145115813,101.81344870971056
148.52979989167838,41.74425522154159,43.571915259413785,333.85473237919405,246.47190410324694,47.12997646232672,101.82954614767446
152.6871565644413,41.70694886253049,43.58439215945024,332.3885928110144,247.8927066045592,47.16445747133573,101.84722605079727
156.92313408987778,41.67149028235081,43.60143085432351,330.94076805673257,249.11365450189857,47.19746927366175,101.86639950064507
161.2312191041458,41.63836452870631,43.622825583812705,329.5149914906741,250.1285757100012,47.2288628956079,101.88697907815778
165.60500721656922,41.60808241709462,43.648386259978594,328.11532184293435,250.93232752958156,47.25848019307468,101.90884328773373
170.03813226136378,41.58117867975033,43.67793403183492,326.7464432344364,251.52082758167077,47.28617582507721,101.93182607025336
174.52406844413187,41.55820090147411,43.711318438176654,325.41409649109517,251.89099050195722,47.31186143059003,101.95574949976343
179.05597717930152,41.53968405880112,43.74842517602238,324.12535656722207,252.0406382962079,47.33553052426216,101.98044445582033
183.62663695574767,41.52613108214556,43.78915627344858,322.8884241624506,251.96844233270957,47.357243434728,102.00572145455293
188.22845119559614,41.518008167467265,43.833403650064,321.71216377123363,251.67390191729424,47.377097292807896,102.03133439058477
192.8535329295681,41.51573787911463,43.8810419983752,320.6059063221798,251.1573301967445,47.39521504048755,102.05699444098508
197.49384735063595,41.51968126284875,43.93193555158195,319.5796539346593,250.41982566726742,47.41175553974295,102.08241807811146
202.14132224731856,41.53013125719747,43.98593536904906,318.6442593341672,249.46322548801558,47.42691752736333,102.10734237034097
206.7878371061698,41.54733918448743,44.04286516307055,317.81118668027295,248.29004813217367,47.44092245491081,102.13148840115261
211.42517553461445,41.57155492754987,44.102522834088255,317.0919988405971,246.90345773109775,47.453996480329536,102.15453081977836
216.04511866619092,41.60304071993412,44.16471215387948,316.49790500982175,245.30728235384902,47.466373867412926,102.17612647039213
220.63965527112697,41.642050402358564,44.229275738891445,316.0394535234536,243.5060667058046,47.478309247219265,102.1959720701615
225.20109112596973,41.688801979496354,44.2960940657427,315.72627538787196,241.50510213854864,47.49007154766729,102.21381955643362
229.72197839682798,41.7434676961749,44.36505648562894,315.5668517217028,239.31039542574376,47.50192061092605,102.22944249078455
234.19499452730298,41.80617605459382,44.4360388695148,315.5683806827637,236.92859170262264,47.514098120334175,102.24261901463557
238.61285352729942,41.87700395219077,44.508906440230064,315.73675454967156,234.36690629261247,47.52685812033249,102.25316272963184
242.96820639195116,41.95595336981213,44.58352480638461,316.07655238343136,231.6330887115723,47.540518708797144,102.26094932989751
247.25350946524375,42.04293083946056,44.65975556918888,316.59100579373995,228.73538220150147,47.55548708172107,102.26589496991951
251.46092675827137,42.13774752069963,44.73744430187296,317.2820110514668,225.68244763393085,47.57224520867281,102.26792889374939
255.5823413879516,42.24013390038721,44.81642419974728,318.15020442668305,222.48329066830755,47.59133141422848,102.26701545952672
259.60945443593585,42.34974636105275,44.89653111791828,319.19497328234326,219.14728804181019,47.61333672664185,102.26319587055353
263.5338718598734,42.466157073294745,44.97760421958893,320.4143312447262,215.68433145115324,47.63889254846245,102.25658424528754
267.3471573741193,42.58885980366257,45.05946729518129,321.80474683902855,212.10494017969606,47.668635559034925,102.24732438525658
271.0409066550534,42.71735366823827,45.14191551324071,323.36103658267524,208.42021058995243,47.70317642513461,102.23557259954147
274.60683587890657,42.85130359720945,45.224726642830575,325.0763927819021,204.64164996027768,47.74309897954195,102.22152481879259
278.0369119557253,42.99066557718656,45.30768178476374,326.9426009560565,200.78100887637947,47.78897358416999,102.2054309926059
281.3236822945127,43.13569597006997,45.39056791442037,328.95038213041266,196.8501894608326,47.841349330565464,102.18755763864111
284.46077487544346,43.28689359470457,45.47316283340884,331.0896363451655,192.86124587820748,47.90072220559888,102.16813958990483
287.44322698668304,43.44493993033135,45.55522798400987,333.349459360134,188.8264012793469,47.967509425536065,102.14738012677863
290.2674695156397,43.610638628402505,45.636518395002945,335.71803860933034,184.75800205229638,48.042047466722494,102.1254896679905
292.9311421906301,43.784844684565726,45.71679061113959,338.18256155259115,180.66842501419953,48.12459586884699,102.10269782698731
295.4328926083602,43.9683988040498,45.79579287455444,340.7291662411955,176.5699785834946,48.21532355362183,102.07921506607548
297.77219816424804,44.16208191576009,45.87324846694441,343.3429224556797,172.47480537819126,48.31428242997633,102.05519764317674
299.94924553131864,44.36658278017222,45.948856009037996,346.0078720136198,168.39480281706696,48.4213935558227,102.03076587236401
301.9648322259839,44.58246502331665,46.02231216008591,348.7072340236557,164.34158584036882,48.53646072157303,102.00604705161393
303.8202424676755,44.81013941337638,46.0933323078325,351.42382277059164,160.32647186972446,48.65919547066528,101.98117980564854
305.5171340263544,45.04986203782385,46.16164717851981,354.1405509936238,156.36043513386585,48.78922715565352,101.95627777971805
307.05745373028896,45.30175718381723,46.22698743515699,356.84084428726175,152.45402125562666,48.92610246354941,101.93141118890968
308.443339859591,45.565831945041815,46.289082857124185,359.5088511362075,148.61728559876013,49.06929906458661,101.90662903028223
309.6769995996229,45.841963769813674,46.34767764377206,362.129421130886,144.85980494519447,49.2182498215626,101.88197322420376
310.76059417191055,46.12988429573297,46.40253748403291,364.6879965144428,141.19071311550115,49.37234980610328,101.85744816255088
