HandOpen,HandClose,Wrist Flexion,Wrist Extension,Supination,Pronation,Rest
102.63898319848272,129.88092556644924,372.7423849539991,70.71560599656137,72.09967459934902,110.49639805687565,94.53289576547235
102.23078247849415,129.53234351195266,368.8334007697075,72.53861423610172,72.42225491798612,109.48652569892357,94.44757753231279
101.91148694474407,129.21352123838196,364.9993947042672,74.3425624136657,72.7396531632765,108.4612966933607,94.36791045176543
101.68217272180128,128.92548503839274,361.2431668685388,76.11772763936601,73.05102592093989,107.42379322656242,94.293851722701
101.54347668795727,128.66898904306956,357.56748891760986,77.8549946447607,73.35564593053077,106.37704312475954,94.22535518788804
101.49558797039936,128.44445951371677,353.97507699613385,79.54588884545205,73.65298041914403,105.32419034288513,94.16234072470404
101.53819498862109,128.25198962598878,350.4686511355856,81.18257775016798,73.94267813077282,104.26864126524515,94.10466816370213
101.67042042066353,128.0914147328298,347.0509916501918,82.75784429073003,74.22451492650514,103.21407300661582,94.05216714013751
101.8907842250071,127.96239698771406,343.72485970903676,84.26507353560356,74.49836057090548,102.16433904474246,94.00469435328594
102.19720591533252,127.86443965761522,340.49284406395867,85.69827134957403,74.76416602105746,101.12336278553317,93.96214919475109
102.58701948869786,127.79685074559468,337.3573210840163,87.05208310549884,75.02193971502435,100.09504798594233,93.924441948408
103.05699627177782,127.75872730430402,334.320606675103,88.3217789344693,75.2717163382064,99.08320642353969,93.89147703858188
103.60340632444809,127.74897936349743,331.385130627698,89.50322112611845,75.51355328511397,98.09153362019539,93.86317836958227
104.22210611976918,127.76634551852804,328.553422783825,90.59285192715453,75.74755477015191,97.1236512326707,93.83950698226906
104.90859212441721,127.8093615994764,325.82795465369156,91.5877025258172,75.97387984856545,96.1831596697741,93.82043147794069
105.6580074541963,127.87630272054531,323.21099573260267,92.48538569016428,76.19272262050457,95.27363217014542,93.8058881690094
106.46515750234384,127.96514858473732,320.70450339441123,93.28405687281389,76.40430578168619,94.39856214823546,93.79578773671788
107.32456930002795,128.0736164332699,318.3100035058323,93.98237867171176,76.60890287405402,93.56132049775091,93.79005879853457
108.23056244862649,128.19926386108267,316.0284724490271,94.57952275795748,76.80684600174006,92.76515098090977,93.78866394355812
109.17731038395766,128.33959955053598,313.86023116366147,95.07518930642156,76.99848939883053,92.01318943406253,93.79156373984713
110.15893376316994,128.49214664513977,311.8048493770953,95.46959615040844,77.18415870991791,91.30846844068712,93.79868129906475
111.16963354630266,128.6544688488056,309.86108216851596,95.76343047321477,77.36413407872037,90.65388401834949,93.80991940572193
112.20378044129176,128.82417489299857,308.02686661024904,95.95780484389417,77.53867836080404,90.05212959454475,93.8252045527475
113.25592155205578,128.9988889451096,306.29938884484847,96.05424651956348,77.70807107320252,89.50561158736762,93.84449377930247
114.32079610471388,129.17620182974338,304.6752116823059,96.05469604392584,77.87260375414645,89.01637251551895,93.86774152287116
115.39343530438589,129.3536487603526,303.15041105771445,95.96147983283353,78.0325494448087,88.58605371798278,93.8948887137469
116.46927045153438,129.5287229465,301.72065292309674,95.77726928855401,78.18816345284006,88.21589992394455,93.92589770300809
117.5441375922464,129.6988855033849,300.38123005032367,95.50506523325792,78.33973562338817,87.90676994414736,93.96077656486185
118.61418642460704,129.8615451160728,299.1271256864998,95.1482035340528,78.48764412694638,87.6591228698379,93.9995510623414
119.67578021687531,130.0140258885204,297.95307383290503,94.71033700271799,78.63236324911409,87.47299560443783,94.04222822367367
120.7254380394686,130.1535593780888,296.8536023166736,94.1953798170645,78.77444095761342,87.34800798357647,94.08880788293267
121.7598053870018,130.27731988941414,295.82318527829426,93.6074555296824,78.91447498051035,87.28339196559442,94.13931962089285
122.77561712080589,130.38248881194193,294.856520584292,92.95088458953964,79.05307895503283,87.27800827930739,94.19382207308976
123.76964526823008,130.46632335422845,293.94870892752664,92.2301897685523,79.19082778130273,87.33033860778202,94.25236121883
124.73867383026706,130.52622686316553,293.0952065324982,91.45007282789534,79.32820880530527,87.43848072560951,94.31494698388124
125.6795620057393,130.55981818607088,292.29168454317613,90.6153604737654,79.46563177034031,87.60018219480374,94.38157420819124
126.58937957743959,130.56497032542222,291.5339428769456,89.73096449612352,79.60350623433037,87.8129155108072,94.45223939022164
127.46549863735623,130.5397974560846,290.8178852396795,88.80187937529722,79.74230914632382,88.073954013175,94.5269133477643
128.30557434355836,130.48261571445988,290.1394993263018,87.83318302830669,79.882585960888,88.3804200107862,94.60550739060434
129.10746709699026,130.39191226759493,289.4948214964967,86.83000070890235,80.02493732055811,88.72932261230457,94.68788508742496
129.86916978628926,130.26631862523683,288.8799035877133,85.7974449300144,80.17004756841796,89.11759549012172,94.77389971215213
130.58876049015578,130.10457456365867,288.290779768563,84.74057245102748,80.31871738231263,89.54211392756027,94.8633974421151
131.26439632339455,129.90550490181127,287.72341795884,83.66436530268636,80.47184027720638,89.9996913064348,94.9561814671411
131.8943489825534,129.668036676696,287.1736685671958,82.57370553200074,80.63033331198359,90.48708274675977,95.05199511538748
132.47704036953556,129.3912347286601,286.6372308102395,81.47333003290304,80.79508303754577,91.00099875953458,95.15055511719144
133.0110380587768,129.07430787264428,286.10965125382774,80.36779305020293,80.9669393599335,91.53810453021835,95.25158989640295
133.49501490925874,128.71657489532808,285.5863894991387,79.26146432356992,81.14672506206344,92.09500184928926,95.354831600342
133.9277027358189,128.31741619306734,285.06295697958024,78.1585462123497,81.33521461125959,92.66822502275403,95.4599836587759
134.30786717904374,127.87624284810546,284.535050246233,77.06306851125458,81.53309357919642,93.25426877898163,95.56672110928952
134.63431027023026,127.39253357273681,283.99861304414173,75.97885691094594,81.74094607432545,93.84961896044871,95.67472460031233
134.9058864054441,126.8659911706061,283.44985517111115,74.90951643881414,81.95927115870552,94.45075301576328,95.78369186906916
135.1215325304369,126.29677196643186,282.88528175640096,73.85845185931053,82.1884800533921,95.05411884282613,95.89330328798569
135.28033387262502,125.68564360305943,282.30173508304057,72.82889139712276,82.42885329484811,95.65612076336197,96.00319037683568
135.3816064491294,125.03398989875352,281.69638936573375,71.82387745786023,82.68049981137905,96.25312680205107,96.11295771981084
135.4249329908711,124.34370674545605,281.06667357900045,70.84624349747617,82.94338100975648,96.84149383010165,96.22223403624706
135.41013331263127,123.61706259490202,280.4102140960143,69.8986219120672,83.21740211099998,97.41760362851656,96.33068669396403
135.33721345921344,122.85657823601852,279.724866704466,68.98348083449604,83.50249004451261,97.97790329114393,96.43799107971071
135.20632725656262,122.06496919051634,279.00875858102427,68.10314005178117,83.79860385189279,98.51894149715324,96.54381336187483
135.01775600255115,121.24514467118198,278.2602546122708,67.2597448655289,84.10571414703811,99.03739823967373,96.64783456329644
134.77191107116596,120.40019500990947,277.47788759854745,66.45523676267854,84.4237852850936,99.53011925065029,96.7497693355776
134.46935045064174,119.53332100209006,276.66032944657695,65.69135893480805,84.7527403054744,99.99416294703012,96.84934012360611
134.11078956590066,118.64773367031674,275.8064053299978,64.96967860537836,85.09240058548947,100.42684244906768,96.94624084548369
133.6971004498804,117.74657514662512,274.915085726236,64.29158256597621,85.44243516132158,100.82574305228643,97.04014496129476
133.22929611357569,116.83287387144635,273.9854485507414,63.65824291653919,85.80235164798212,101.18871931834413,97.13075006214723
132.70850675488583,115.90951169504865,273.01671672852234,63.07059607450083,86.17151388446062,101.51388447796072,97.21779703695069
132.13597869988482,114.97918847733986,272.0084022870594,62.52936321917826,86.54914376200121,101.79960643399129,97.3010390174753
131.51310043304193,114.04440351437725,270.9604064641932,62.035083775667836,86.93429595528121,102.04452514641457,97.38021118279956
130.84142436936312,113.10749229207303,269.87297899493734,61.588118201815696,87.32584032112409,102.24758071328,97.45505192022013
130.12269632061145,112.17073392198435,268.74663282561244,61.188626903645165,87.72247832737527,102.40801653003322,97.52534779184114
129.35892360776137,111.23647055597952,267.58211763722613,60.83657015367373,88.12276987276017,102.52534243245556,97.590938877984
128.55244606306343,110.30715479513306,266.3804498239642,60.53173940881083,88.5251371939082,102.59928320696946,97.65168352311963
127.70597585919673,109.38533873539072,265.1429501944508,60.27377865414011,88.92785929596737,102.62975176457569,97.70744160372526
126.82262041886202,108.47367950349678,263.87122994648405,60.06216961928703,89.32909539334797,102.61685818342164,97.7580977165876
125.90586497428693,107.5749546550026,262.56709466722475,59.89621068432034,89.72693763470154,102.56092763731496,97.80357536217647
124.95948840438587,106.69202281772499,261.23239685185285,59.775025184510625,90.11945025634124,102.46252286554265,97.8438049179051
123.98747724134702,105.8277241686796,259.8688855182946,59.69758617174992,90.50467149655489,102.32250202957268,97.87867925087838
122.99401310868106,104.9847812702852,258.4780896691343,59.66272225859392,90.88060754131108,102.14208822766598,97.90805206801139
121.98349948369808,104.16576938477415,257.06126010823857,59.66910863891851,91.24525174232801,101.9228790310046,97.93177636690949
120.96053464447364,103.37316705650825,255.61936426962737,59.71528358719778,91.59661434278291,101.66679697340288,97.94972471582649
119.92981209197299,102.60940547970658,254.1531107571891,59.79969794804698,91.93273568895273,101.37606216885803,97.96176266030571
118.89601471516418,101.87684241608947,252.66298389125294,59.920750994484294,92.25171150653476,101.05322029330263,97.96772051665667
117.8637468515594,101.17768999225353,251.1492646653051,60.07678064224526,92.5517836274415,100.70116173340948,97.96741448539044
116.83749324149925,100.51395763501559,249.61203005162307,60.266037955916104,92.83147144642498,100.32307273778754,97.96069479920612
115.82162008966621,99.88741459150512,248.05114897503384,60.4866927515511,93.08964752387028,99.9223408544257,97.94745697497717
114.82044625991148,99.29955275873203,246.46628781179945,60.73686921805022,93.32551895341986,99.50247814929608,97.92760606911261
113.8383186952386,98.75156066666891,244.85693032186282,61.01466733281235,93.53857637437912,99.06708995414694,97.90103140957919
112.87960198320448,98.24432285156853,243.22243252498976,61.31814897256494,93.72856594853504,98.61985076593254,97.86763015042526
111.94860945953967,97.7784224982438,241.56213695849033,61.64532074563824,93.89546489848672,98.1644445062087,97.82734330841589
111.04955211656849,97.35412505621892,239.8755133567714,61.99414747525281,94.03942740569487,97.70448459956071,97.78015216581245
110.18650300186553,96.97136953846575,238.16223542191676,62.362580823323434,94.16071983779453,97.24345062410855,97.72604926137205
109.3633295093475,96.62980555659051,236.42216813521642,62.748564110744624,94.2596908180112,96.78464328432592,97.66504045574902
108.58359260408496,96.32886947605185,234.65534125537948,63.15001135162353,94.33678019317729,96.33113625791442,97.59718380939991
107.85047314424853,96.06788281647103,232.86195557377224,63.56479848848579,94.3925202304748,95.88572783346778,97.52260753089804
107.16678834345494,95.84616728010121,231.0423953070649,63.99078827952963,94.42750259940655,95.45092604850751,97.4414774222408
106.53509282663204,95.66313742644293,229.19724886153725,64.42586131753147,94.44234637819079,95.02897571416732,97.35396101212008
105.95780520122516,95.518325406945,227.3273573357756,64.86791691091425,94.43770654590253,94.62188724182091,97.26024011129773
105.43731526048231,95.41136441921537,225.4338360291039,65.31485294139392,94.41430258274868,94.2314450626672,97.160549099998
104.97603583012273,95.3420339186839,223.51802528821293,65.76456840368795,94.3729164532443,93.85921767425728,97.0551781034105
104.5763696158226,95.31040739993067,221.58143125207943,66.21500479621484,94.3143574339518,93.50657602805535,96.94443656190276
104.24060430255565,95.31696755379734,219.62571359530716,66.66418765034612,94.23944215494149,93.17470594920839,96.82863072012309
103.97078752129875,95.36255551548984,217.6526849529732,67.11022992714976,94.14901066388929,92.86461532923086,96.70807601762372
103.76865070456228,95.44820331203107,215.66426660025962,67.55131532207892,94.04394339396963,92.57713963153171,96.5831019862664
103.63561124438253,95.57495954218258,213.66240119672727,67.9857003978539,93.92515791980787,92.31294429894024,96.45401803257285
103.57278960981425,95.74375319064285,211.64896175196145,68.411732313563,93.7936188467816,92.07252337836586,96.32107324269707
103.58097294891812,95.95529717327017,209.6256825757459,68.82784862278676,93.65037506945058,91.85618562582312,96.18446284797935
103.66055612596027,96.21001607448824,207.59411045420475,69.23255321748827,93.49657322025173,91.66402378459864,96.04437622133327
103.81152586403186,96.50798153459365,205.55559623617282,69.6244007169264,93.33341353713456,91.49588430603876,95.90102443769933
104.03347776914104,96.84885676052745,203.51139373952495,70.00201037809916,93.16209043145034,91.351361250176,95.75461693147156
104.32561020073004,97.23185845079607,201.46286154670295,70.36408638606315,92.98378426767827,91.22981382783739,95.60533316986475
104.68669355733348,97.65573628692543,199.41162515626172,70.7094134554841,92.7997342955243,91.13038058883544,95.45334060293675
105.11506262285995,98.11877809762838,197.3596115867833,71.03683829868532,92.61135051438573,91.05198357630671,95.29883787779565
105.60864718572476,98.61885376296094,195.3090453000934,71.34527237322719,92.42026990403578,90.99335615950946,95.14206343987937
106.16500716412452,99.15348776090144,193.26248460205255,71.63371856641568,92.22831733019054,90.95310468614878,94.98326444906024
106.78133930391003,99.71995099218088,191.22283822210107,71.90128521940123,92.0374271111053,90.92975823310282,94.82268393027745
107.4544645588793,100.31538044871867,189.1933107555072,72.14716961177206,91.84957930199766,90.92177959751456,94.6605922629257
108.18082981886157,100.93689505554386,187.1773609348139,72.3706407337603,91.66674318212496,90.92756502607905,94.49731214957417
108.95652739527966,101.5816622982933,185.17874185752206,72.5710520746906,91.49081470715984,90.94544950962374,94.3331945686089
109.77730657296075,102.24697225471937,183.20152564652878,72.74786834071045,91.32356978649507,90.97370501665814,94.16858489270999
110.63857698472799,102.93039099225108,181.2500150685716,72.90066846394123,91.16664517296795,91.01054057903751,94.00383734464779
111.53543354639183,103.62990738464829,179.32861546640697,73.02912343844632,91.02151821661064,91.05412933706228,93.83936116449473
112.46271003574249,104.34395186305196,177.4417731878396,73.13298358671105,90.88946802817597,91.10265869689837,93.67563191925154
113.41503053414326,105.07131367581654,175.59395869595897,73.21209142352663,90.77155332369338,91.15439010751523,93.51315498624658
114.3868398337139,105.8110393985277,173.78960674515304,73.26639439278622,90.6686426347043,91.20772329364695,93.35243852313033
115.37243591357581,106.56232882135136,172.0330010309445,73.29593146267622,90.58146534571306,91.26123702588761,93.19400685006161
116.36602760501941,107.32442299180606,170.3281880979429,73.30080937612914,90.51062586255658,91.31369146238636,93.03841079393372
117.36179668772239,108.09651127492623,168.67897938276656,73.28120331054836,90.4565888929768,91.36403128647677,92.88619782272822
118.35393136594007,108.87767667699558,167.08898296028207,73.23738062754538,90.41969080495387,91.4114075467584,92.73787979541481
119.3366410454374,109.66685512991876,165.56159401041137,73.16970937663896,90.40018083414623,91.45517492332135,92.59394794849085
120.30418519218485,110.4627859994672,164.09997833414832,73.07863474321364,90.39823725365594,91.49484159203597,92.45490977756471
121.25091837689972,111.26397690076088,162.70709453977645,72.96465458128819,90.41393337518964,91.53000796598891,92.32128555564303
122.17133163196692,112.068710651058,161.3857087185152,72.82832746703347,90.44719107241572,91.56032932654531,92.19356435819164
123.06008244924354,112.87507137874962,160.13835999282375,72.67030003178733,90.49776247521062,91.58549817650845,92.0721811722534
123.9120208613857,113.68094522818272,158.96732849781756,72.49131193584877,90.56523719975284,91.60523743338392,91.95754089216034
124.72222461913573,114.48398927240811,157.87465152339405,72.29217047914025,90.64904665279701,91.61931123516185,91.85003954960469
125.48604385764109,115.28162819176688,156.86214345516942,72.07373436409286,90.74844603100291,91.62754704865071,91.75004147719
126.19912868199827,116.0711985547948,155.9313768723,71.83693261393346,90.86247961167432,91.62985584994996,91.65784868440254
126.85741677195224,116.85028896472055,155.08365218214192,71.58278845291895,90.9899511699336,91.62625298763442,91.57371618055262
127.45709390461555,117.61714600109526,154.3199839346419,71.31240917964489,91.1294110662186,91.61686936779343,91.49789561453093
127.99456389031873,118.37097399682776,153.64109916853158,71.02695457058525,91.27915196163627,91.60193289041506,91.43064329329806
128.466481646586,119.11203372609877,153.04745191251953,70.72762383208794,91.43721187337536,91.58173124643358,91.37218150705466
128.86988759305888,119.84152977311663,152.53926191573393,70.41566474042936,91.60140315424546,91.55657702038924,91.32267363044487
129.20238536829058,120.56139163050766,152.11656071694324,70.09236963145541,91.76937164947007,91.52677729914956,91.28225278450532
129.46224240253215,121.27407427648956,151.7792317702634,69.75904222991977,91.93865411694337,91.49261197081613,91.25106163036331
129.64836840797253,121.98239001432754,151.52705902990135,69.4169668015881,92.1067090616368,91.45433008586137,91.22924460815193
129.7602251564099,122.68932584993061,151.35978173875574,69.06741640717904,92.27094649619312,91.41215414813487,91.21690623283472
129.7977428655119,123.39785191431362,151.27711822255662,68.71168800391118,92.42879286294594,91.3662680866872,91.21409607208393
129.76129148088955,124.1107724902664,151.27875634469123,68.35111462116598,92.57777030909189,91.31678716094693,91.22083368341735
129.65169763664932,124.83064595853473,151.3643700884972,67.9870375367429,92.71553455027725,91.26373445055093,91.23712107064986
129.4702625014408,125.55974039534648,151.53367700784864,67.6207780558601,92.83986739360024,91.20703556549944,91.26291090922302
129.218762847929,126.29998112117875,151.7864690044652,67.25364273476713,92.94868595800277,91.14652112828568,91.29807246122074
128.89943677706273,127.05288385722824,152.12260710091834,66.8869399255756,93.04010536337208,91.08193797161066,91.34240489838047
128.51494890565735,127.81948206427113,152.54204199893658,66.52196852409438,93.11250440683646,91.01297912817172,91.39567777965323
128.06833671993877,128.6002602698518,153.0448532378311,66.15998581544828,93.16453043101434,90.93931529140636,91.45763899146364
127.56293526578892,129.39514130652282,153.63126321637628,65.80219469799731,93.19505832062617,90.86059690694111,91.5279814066191
127.00227494529389,130.20358782171908,154.30164915080624,65.44975859391327,93.20316107223027,90.77643108633823,91.60632416756906
126.3899800041574,131.02478449039756,155.05658818742464,65.1038075434412,93.1881050641749,90.68637554661598,91.6922450396683
125.7297157553482,131.85778716669228,155.8968878255352,64.76541356448207,93.14933630546118,90.58997681163044,91.78532413604123
125.02518962290566,132.70161573726082,156.8235111353345,64.43556331487004,93.08644371701588,90.48682019331729,91.88514308896815
124.28015328101768,133.5553393510793,157.83738592968385,64.11516292697551,92.9991331762641,90.37653919942042,91.99125235845074
123.49837813094507,134.41811366772842,158.93919015438289,63.805063229800936,92.88724048997396,90.25878269996583,92.10316433848837
122.68363529339001,135.2891135223897,160.129233449116,63.50606449073838,92.75075642654308,90.1331821937003,92.22038258446297
121.83968803625915,136.16740651726735,161.40746796488324,63.218893680618926,92.58981943545658,89.99935443685905,92.34241508229064
120.97026025129972,137.05183431260485,162.7735219609666,62.94419346790266,92.40468184553058,89.8569334613767,92.46874300665652
120.07897124476862,137.94092254618204,164.22666087814594,62.68255013487752,92.19569632785463,89.70558959430011,92.59878841967361
119.16927140148611,138.8328345684444,165.7657107397981,62.43453233864821,91.96333648940266,89.54501084715588,92.73192928050717
118.24441591501791,139.7253946006993,167.38900694139784,62.200695913585704,91.70820880839524,89.37488425346541,92.86753959986052
117.30748597842297,140.6161644875636,169.09439270981642,61.981558554054935,91.43102424625175,89.19495371687417,93.00499650006479
116.36142822421465,141.50250094402372,170.87928833618477,61.77758760205293,91.13255818197048,89.00516599325063,93.14365069225187
115.40906790622394,142.38154721214306,172.7408057869359,61.589214199913,90.81364002494946,88.80579437635919,93.28281587303414
114.45308933703967,143.2501908045548,174.67581111479493,61.416838935004186,90.4751643113415,88.59744670946404,93.4218004831519
113.49601422901594,144.10505391684683,176.6809058743231,61.26080689482698,90.11808344150027,88.38099727852655,93.5599341124413
112.54018677459905,144.9425681065945,178.7524148964371,61.12138084691456,89.74337478637455,88.15751704175939,93.69655022443067
111.58775105864092,145.7591146022895,180.88641372250396,60.99874673266363,89.35201949316212,87.92821527636193,93.83096132114275
110.64065035868833,146.55113641873686,183.07873430561716,60.893037643506425,88.94501933720137,87.69437353044435,93.96247770585259
109.70072051007591,147.31515977425542,185.32492026243665,60.80433607857168,88.52342598985632,87.45726867469381,94.09045258452677
108.76986540482663,148.04775067001674,187.62016660525416,60.73265089953282,88.08833933325081,87.21810667530868,94.21429382803015
107.85017733991386,148.7454619789174,189.9592923127321,60.677909716292156,87.64087436737789,86.97799435730495,94.3334324515753
106.94391364744124,149.4048142762488,192.33675934897923,60.63998965937183,87.1821345655905,86.73795018575504,94.44730276935235
106.05339271873947,150.02233901354933,194.7467008925428,60.61875284604597,86.71320840645781,86.49892103115663,94.55537008343867
105.18090593483825,150.59469077011914,197.1829261806557,60.61404403680543,86.2351649639439,86.2617759444453,94.65716796149745
104.32867385786936,151.11879399172224,199.63891654497115,60.62566182491008,85.74902754479513,86.02727997965063,94.75229362251244
103.49883036404258,151.59194308912802,202.10785394852692,60.653350615483824,85.25574167800285,85.79606798987517,94.84037864828315
102.69341428432621,152.01180638558722,204.58270592735335,60.69682560574946,84.75616971284502,85.56863049551536,94.92109434348248
101.9143471538241,152.3763917277981,207.05635164165167,60.75578976300327,84.25111459600515,85.34531466911308,94.99419647969151
101.16338381369785,152.684056571323,209.52174542286244,60.8299143410541,83.7413372908798,85.12635496711682,95.05954647817428
100.44204847340505,152.93355254830297,211.9721159013038,60.91881277050045,83.22754529907003,84.91193657803575,95.11707620234552
99.75158892440132,153.12404411148694,214.401107197966,61.02204784801046,82.71038044280743,84.70224691973239,95.1667464160501
99.0929950727915,153.25508352196005,216.80277145839256,61.13916034649976,82.19044312448364,84.49748138622031,95.20855655844807
98.46710285892566,153.32655896317561,219.17148822499576,61.26967537278353,81.66833862583997,84.29783220726966,95.2425862990689
97.87471722115596,153.33863717883708,221.5019294146888,61.41307829955335,81.14469586243692,84.1034861857909,95.26900372151341
97.31665496237208,153.2917235239802,223.78904300195288,61.56879830119681,80.62014432291458,83.91462064626175,95.28802965299609
96.79369284749662,153.1864601257278,226.02798386893065,61.73622337126046,80.09528623898686,83.73141003927549,95.2999170012458
96.30648097380093,153.0237726581202,228.21402934646557,61.914720384359455,79.57069636329113,83.55406438899423,95.30497569111901
95.85547452223531,152.8049377632111,230.34254075043967,62.10362755601724,79.04693602878984,83.38286455280706,95.30359436293853
95.4409012641967,152.53162726008756,232.40895018062164,62.30223282413941,78.52454895890867,83.218157603647,95.29621373432822
95.06274984470575,152.20591887767355,234.408740606872,62.50977626506173,78.00403738530234,83.06033522413581,95.2832863724647
94.72075625232753,151.8302764018163,236.33744161075745,62.72547824716851,77.48584961901362,82.90981669078697,95.26528115766725
94.41440853675286,151.40751933963423,238.19066268200945,62.948553480456816,76.9703950952311,82.76702462323684,95.24272125655042
94.14302154610719,150.94081102577135,239.9641425168343,63.17819087264031,76.45806291093669,82.63235348069485,95.21619061267366
93.90586466221221,150.43363957914974,241.6537774374071,63.41352905004988,75.94921689619441,82.50614151480329,95.18628923269954
93.7022402539883,149.8897720444641,243.25560527155784,63.65366162466889,75.44417934995172,82.38864040818653,95.15359157726581
93.53145820809628,149.31322019068392,244.765752597895,63.897662123374765,74.94323670578407,82.27998121770473,95.11865128033699
93.39275954226092,148.7082118207051,246.18039150510145,64.14459127823838,74.44666896806064,82.18015008663127,95.08202098672236
93.28526083731326,148.07911107074278,247.49574813610334,64.39347901873843,73.95476633436915,82.08897956184995,95.04423650784541
93.20793549145326,147.43028521301366,248.7081619172334,64.64331843242763,73.46781337957017,82.00615947085898,95.00577715269274
93.15960199315651,146.76596387316567,249.81417288217153,64.89310040650997,72.9860688351329,81.93126954882104,94.96705840004685
93.13890223088124,146.0901190861289,250.81060965350161,65.14186166661314,72.50977152066491,81.86381447148223,94.9284667102284
93.14429950275644,145.4063673609469,251.6946325662626,65.38869942743379,72.03915898878094,81.80324813677386,94.89037952263578
93.17412793446225,144.71789389277959,252.46373167912031,65.63275674803079,71.57446641897222,81.74899706423511,94.85313612121723
93.22666704320334,144.02744271798417,253.11578772569322,65.87322524206965,71.11590859019812,81.70048229533397,94.81700442128596
93.30017847729255,143.33746002577814,253.6492548007698,66.10937758271692,70.66368099562908,81.65713428722644,94.78220031287924
93.39288870450937,142.6503699521274,254.0633338487183,66.34058659406251,70.21799104467095,81.6184076486881,94.74894092537683
93.50296495624305,141.96878071126852,254.35801029605392,66.5663025210766,69.7790822308913,81.583792225078,94.7174630179363
93.62851668658045,141.29547784420672,254.53399357689122,66.78601953411945,69.34722310397645,81.55280609607702,94.68798886301177
93.76759955483378,140.6332868568436,254.59263027735477,66.99927260346526,68.92268892294445,81.52496892054312,94.66069768022567
93.91820231287119,139.98495081856,254.5358092378693,67.20565716195274,68.50577553628956,81.49977693180166,94.63574762678977
94.07825058468997,139.353085951034,254.36587529333784,67.40483096359085,68.09683155006063,81.4767155065484,94.61331402689899
94.24566660392492,138.74021737123186,254.08558317937334,67.5964861748789,67.69626253021526,81.45531478414036,94.59358586192069
94.41845453692981,138.1488671144634,253.6980963348441,67.7803264893435,67.30450166390473,81.43519552770626,94.57673013440291
94.59473935724897,137.58164723176034,253.2069754351184,67.95607921208551,66.92198898217138,81.41606225785087,94.56288670550519
94.77273850333492,137.0413163974276,252.61610058797132,68.1235213075536,66.54918213387616,81.39767383901545,94.55220841301913
94.95071003096747,136.5307715716228,251.92955674033234,68.2824784374684,66.18656938377163,81.37983904925774,94.54488541902494
95.1269201786866,136.0529658038792,251.15154142861914,68.43279990703633,65.8346519158865,81.36242959050857,94.54111234732383
95.29963487382221,135.61077894474428,250.2862882758558,68.57435174583179,65.49390948501618,81.34537238359944,94.54104071411626
95.46711747456075,135.20688562460452,249.33798075482522,68.70704040472427,65.16478801150494,81.32861908574621,94.54477696265778
95.62762482396214,134.84364580390073,248.31068130440505,68.83082768030799,64.84771411071482,81.31213990695701,94.55241643482874
95.77940926135521,134.52301147333307,247.20832665804465,68.94570973830031,64.54310060940439,81.29596738943503,94.56405151729783
95.92072446594132,134.24643854486754,246.03480830939102,69.05168857416311,64.2513238882931,81.28023827293315,94.57973542125809
96.04981897888072,134.01481653487934,244.7940912941105,69.14877300707901,63.97270328937055,81.26517458787959,94.59945646734973
96.1649156876347,133.8284370649713,243.49030897092342,69.23699915297436,63.707514693204956,81.2510212148377,94.62316586733242
96.26420078265014,133.68700754541325,242.12781412481797,69.31643148103988,63.45602052465684,81.23799814062065,94.65082081681689
96.34584581538833,133.58969399183195,240.71116726732484,69.38713580081449,63.21847485418364,81.2262930612256,94.68238245325031
96.4080520138092,133.53516011069013,239.24504617754133,69.44915879887328,62.99510157523015,81.21607299344583,94.7177787751127
96.44907723972341,133.5216002433829,237.73412094026872,69.50254187269925,62.78608404013407,81.20749103704969,94.75689408246387
96.46723168008151,133.54681775449075,236.18295084364914,69.54734850162981,62.59158171636327,81.20068622294221,94.79960127712621
96.46087655945806,133.60835920858057,234.59590554202617,69.58366587891811,62.41174112377184,81.1957723173234,94.84578363548783
96.42845663918483,133.7036185197074,232.9770846287541,69.61158318813608,62.24667429474552,81.19280890705178,94.89531172434776
96.36854521390532,133.82985501850303,231.3302337313157,69.63118640283548,62.09642657272606,81.19176740417402,94.94801987731879
96.27985905142472,133.9841708340929,229.65868972670646,69.64258169195514,61.96097113485345,81.19252474591005,95.00373163883586
96.16124317862347,134.16349284944138,227.9653812256284,69.64591059637422,61.840229820311556,81.19491496894092,95.06230387991138
96.01166523899936,134.3645529375087,226.2528596103411,69.64133083997604,61.73408369773584,81.19882726293666,95.12362753004983
95.83023556100684,134.5838662805171,224.52331471336845,69.62898972836652,61.64235819047353,81.2042970793165,95.18759015299712
95.6162227123769,134.81774029767715,222.77858328382968,69.60902961544171,61.56481591783298,81.21155510942614,95.25406301689839
95.36903817623372,135.06233218453215,221.02020709655937,69.5816180902467,61.50118526249931,81.22103981797261,95.3229324964102
95.08820601749233,135.3137157685451,219.2495669260242,69.54695797139348,61.451197852079524,81.2333751539322,95.39412105295766
94.77335230715505,135.5679081926212,217.46803810009152,69.50526219644821,61.41459067872944,81.24931026744936,95.46755788017373
94.42422337747966,135.82086709220226,215.67706606699764,69.45673379823057,61.391075530338256,81.26965864119977,95.54313958754842
94.04070349451113,136.0685009396603,213.8781267423126,69.40158667169652,61.38032022492638,81.29529200202576,95.62073872243047
93.62280495454554,136.3067012840656,212.07265923571094,69.34008299309036,61.381966529503735,81.32718407580813,95.7002461963818
93.17064575839737,136.53138395646664,210.26208523704491,69.27254004715732,61.39565728723004,81.36643329291087,95.7815818566769
92.68444872116311,136.7385443174759,208.44792078328922,69.19930986741633,61.42103403135617,81.414221021134,95.86465421243324
92.16456381009894,136.92432888423167,206.63186661399396,69.12077774625922,61.45771070263609,81.47173646953843,95.94932529439535
91.61147953522196,137.08509387194746,204.81578941146873,69.0373905998601,61.50526140298531,81.54010992582627,96.03542722212035
91.02580258712364,137.2174162165758,203.00162557840218,68.94967174348368,61.563234764934016,81.62035590497622,96.1227986440066
90.40822709511934,137.31805716038633,201.19127562293974,68.8581938904849,61.63116518786331,81.71331398759229,96.21128273439032
89.75952550910861,137.38390805278368,199.38651602335497,68.76354107451202,61.70855657631847,81.81960496335657,96.3006948065631
89.08056071459858,137.41194808503002,197.58893485836865,68.66630603466947,61.79485927576059,81.93964715481268,96.39081826719222
88.3722901041745,137.3992399335288,195.79990437192234,68.56712142312642,61.889478491826985,82.07373379356656,96.48143883671479
87.63575057352807,137.34297935737698,194.02059693398365,68.46667520959888,61.99181264739967,82.22209505142683,96.5723602550899
86.87205057849619,137.24057589061806,192.25201639388652,68.3656842650415,62.10127679600355,82.38488692908564,96.66337210408277
86.0823880207631,137.08972487957652,190.49499879731314,68.26486130149533,62.21728648720396,82.56214616991116,96.75421854736575
85.26807116093717,136.88845514105398,188.75017659555493,68.16491390810685,62.339231461930616,82.75379173765006,96.84462231047989
84.43051155403623,136.6351403270101,187.0179485497615,68.06655988885376,62.46647743953443,82.95969199382658,96.93433993983687
83.57119561395139,136.32846355154214,185.29848483549014,67.97051822807299,62.598391115854824,83.1797272079898,97.02317822167795
82.69166849061071,135.9673977337064,183.591762099408,67.87747515474787,62.73435051468468,83.41379189126826,97.11095853454877
81.79354102573132,135.55135343454782,181.89762780729058,67.78806596355015,62.873726295174365,83.66178761298652,97.1974899688221
80.87849227878554,135.0805227899911,180.21588476194623,67.70289156623785,63.015863414757675,83.92366974147549,97.28259260437244
79.94824619721223,134.5561674273538,178.54634174157644,67.62253656590407,63.160088776936334,84.19950695357635,97.36613246566193
79.00454021918988,133.98062593674513,176.8887972678707,67.54755534916517,63.30572794742402,84.48947415603043,97.44801160095282
78.04911579573739,133.3571199210793,175.24300213428273,67.4784437063654,63.45210152490439,84.7937773920908,97.52812507201023
77.0837301468804,132.68952680741032,173.60865757440055,67.41563262301094,63.598506905876036,85.11257124255054,97.60634478673397
76.11015879027448,131.98217276203093,171.98545288921656,67.3595015414254,63.74421626198544,85.44590871823563,97.68254477845453
75.13017308013097,131.23965064747463,170.37310564667013,67.31037699071499,63.888495558236,85.79371380032673,97.75661505709368
74.14551609907642,130.466683161873,168.77136993121945,67.26850892106052,64.0306141820294,86.15575956156846,97.82842906293632
73.15790859255392,129.66803447031342,167.18002131101764,67.2340600632244,64.16982985042203,86.5316699460508,97.89780405608707
72.1690800733266,128.84844869628628,165.59884822762137,67.20713393673125,64.30537559071246,86.92096454200576,97.96450971814888
71.18078584708293,128.01262724501515,164.0276447082393,67.18781377827462,64.43647672735378,87.32311542230434,98.02831438042779
70.19479088716767,127.16526487355128,162.46618154757613,67.17616678795467,64.56238302529657,87.73756550178314,98.0890056455026
69.21284932497593,126.31109103579688,160.9141597946726,67.17221378184834,64.68237838966914,88.1637150719456,98.14636293557525
68.2367115208939,125.45485309968161,159.37118225964133,67.17590680355752,64.79576233074941,88.60093938115384,98.20013450416654
67.26814599058626,124.60124598358715,157.83679503478456,67.18713766240025,64.90183784134294,89.04865319842249,98.25006402709006
66.30893925263548,123.75484967456077,156.31060401034662,67.20575158948255,64.99993087848662,89.50635080588853,98.29593309814366
65.36086902967493,122.92019332190989,154.79240196700465,67.23153659115017,65.08942067577304,89.97357222630475,98.33756028205937
64.42568588634064,122.1019813853398,153.28228148711625,67.26420351781977,65.16974570411305,90.44984149970627,98.37476430038738
63.50512381420778,121.30528591182299,151.78075568677488,67.30339162656351,65.24038962025428,90.93464027674808,98.40735113795405
62.600913062328466,120.53551472595302,150.28883378189042,67.34869696624622,65.30088238224486,91.42741266603716,98.4351409576386
61.71476443726973,119.79821267369637,148.8079955647403,67.39968509952918,65.35082344189553,91.92755265621153,98.45798329440657
60.84834244672799,119.09884985254467,147.340137787739,67.45587381054094,65.3898932484025,92.43435515932616,98.47572774331252
60.003269168817546,118.44268704460453,145.88756650662614,67.51671904247007,65.41783450301325,92.94696018271127,98.48819040598384
59.18115781643673,117.83474024645515,144.45297384241684,67.58163385881551,65.4344309454664,93.46432834075472,98.49516733657595
58.38362707756731,117.27978936268417,143.03933543171797,67.65002027466008,65.43951615152699,93.98525453665484,98.49647855256205
57.61227274947906,116.78236148154565,141.6497913727051,67.72127410333053,65.43300093683467,94.5083919385131,98.49198082378847
56.868634067895314,116.3466902287897,140.28759184168294,67.79476515635585,65.41487991676745,95.03227114694748,98.48153266460815
56.15419296334908,115.97667090805443,138.9560980668792,67.86983658636078,65.38520826931146,95.55532530914968,98.46496427466704
55.470388127608665,115.6757902966207,137.6587891779619,67.94584265546264,65.34408242289408,96.07590966042336,98.44209541319168
54.8186021632135,115.4470242866854,136.39925229669709,68.02218660403564,65.2916469917168,96.59229102073868,98.41277070507772
54.20012088617214,115.29274441094203,135.18116206593544,68.09831877533651,65.22810562958585,97.10261842387938,98.37685871388561
53.616102604718606,115.21466860307075,134.00824676120368,68.1737117883113,65.15371045902458,97.6049096886305,98.33422415750972
53.06757781013263,115.21384547992194,132.88421822479074,68.2478553236453,65.06875066393695,98.09707462636631,98.28472866577025
52.55545629830364,115.29063997177602,131.8126776908859,68.32027377922317,64.9735780478134,98.57697254736993,98.22826849794363
52.08051241118107,115.44471477515783,130.79704849367135,68.39053112382716,64.86865734265069,99.04247955245673,98.1647936644459
51.643356431706735,115.67504898942177,129.84056400386814,68.4582093597489,64.75458667294372,99.4915283036236,98.09427642523934
51.24442414895574,115.98002215132986,128.94629924401593,68.52289453174302,64.63206822613148,99.92211288602897,98.01667110741413
50.883990785280716,116.35750721650906,128.11722537947537,68.58419988368766,64.50186859110111,100.33228759796634,97.93192064583118
50.562179513445315,116.80489816865088,127.3563107768889,68.64180238632508,64.36480958350747,100.72016666361843,97.83999993392449
50.27894794404572,117.31910576303497,126.66667793434917,68.69544750660096,64.2217796905721,101.08390890584221,97.74093412885624
50.034077336418775,117.89665057888422,126.05169099902254,68.74492128265284,64.07372697341901,101.42169967947875,97.63476812324159
49.8271890325025,118.53391525398882,125.5148648038973,68.79003246301664,63.92162522450414,101.73175560031542,97.52153513911335
49.65777146684257,119.22746234930723,125.05969434495599,68.83062576859346,63.76644523598864,102.01234312074166,97.4012697165997
49.52518514252117,119.97427648360339,124.68955241315231,68.86659510843833,63.60915102191098,102.26178267175894,97.27404086178406
49.42864575323764,120.77183839801542,124.40765475720472,68.89786615749097,63.450699926989266,102.47844072276565,97.1399522883743
49.36722012417759,121.61801985017053,124.21702599364107,68.92436964936083,63.29202151143724,102.66074073062643,96.99911116533254
49.33985668290411,122.5108848431705,124.12047770719445,68.94604628298592,63.13398828704513,102.80719813596075,96.85161760693211
49.34542543426507,123.44849607630053,124.12064903025492,68.96287895618288,62.97741094437837,102.91644307940847,96.69759185832962
49.38272948341772,124.42877332922504,124.22007458975929,68.97490634197678,62.82305774321194,102.98720653125456,96.53719193760801
49.4504920164676,125.44942813071138,124.42118239417597,68.98219874032833,62.67166093607804,103.01829086936118,96.37058929408373
49.54735446630951,126.50796973693471,124.72620325288905,68.98483102257674,62.52389220072131,103.00856011072563,96.19793864617955
49.671897092411555,127.60172429311433,125.13707112157526,68.9828868455935,62.38033559478904,102.95695692960544,96.01938842845811
49.82265430747827,128.72781949876534,125.6553814752917,68.97647841619438,62.241490174291556,102.86252146123921,95.83511593604361
49.99810563979062,129.88315674704606,126.2823920470551,68.96574323141802,62.10779210272178,102.7243919752135,95.64533214753324
50.196664137754645,131.06440165792444,127.01899988883194,68.9508155640035,61.97962104919256,102.54179815190786,95.45024408333462
50.416690494560825,132.26797231919488,127.86569018993848,68.93181020273924,61.85728679107062,102.31406641432544,95.25002365993615
50.65652233273874,133.4900012524909,128.82250676504367,68.90883870194592,61.74103095755657,102.04063455477137,95.04482101498716
50.9144844195402,134.72629334593594,129.88901896363606,68.88202953582929,61.63105834425793,101.72105508011268,94.83479454810876
51.18887414269806,135.97232997903453,131.06423461453963,68.8515188437422,61.52756244972889,101.35498516223826,94.6201089797199
51.47795530303339,137.2233515148556,132.34649843256295,68.81742477780642,61.430717007500064,100.94219879966916,94.40090720284608
51.77998299662824,138.47448621159688,133.7334343161065,68.77984292160181,61.34066145102572,100.48265198805534,94.17730553621854
52.093236167769305,139.72084356293607,135.22194278881372,68.73886564093807,61.25751947530506,99.9765677426225,93.94942523876327
52.416023255772735,140.95753182791196,136.80826302395033,68.69458989443211,61.181435477939075,99.42447230887747,93.7174133823571
52.74666798316957,142.17964771360366,138.48809444242914,68.6470993750823,61.11258158712635,98.82716525594873,93.48142228684627
53.083512944650465,143.38231197202649,140.25673160276878,68.59645459909312,61.051127660141056,98.18566617163413,93.24158446715636
53.424950965010204,144.56078329905105,142.10921281637928,68.54271878151638,60.99721394280778,97.50117545576876,92.99803081076878
53.76944905595545,145.71061221405503,144.04053603202829,68.48599363011415,60.950953076461914,96.7750477852526,92.75093571559509
54.11553922083445,146.82773494294344,146.04590559614658,68.42642166837653,60.912440201099095,96.00876307518732,92.5005307115168
54.46179968721634,147.90844807524687,148.12087785151198,68.3641603431333,60.88173958230455,95.20390346551136,92.24707269431714
54.806860888259436,148.949309866983,150.26133088854843,68.29937794533411,60.85885559750966,94.36215944351524,91.99081842724739
55.149428826257605,149.9470387191015,152.46333104108402,68.23229296386336,60.84372145423592,93.48535675840871,91.73204493875558
55.48828955567768,150.8984392070262,154.72304047000512,68.16321305153606,60.83621199598039,92.57546442537065,91.47108409693934
55.82228488309308,151.80035675342322,157.03670123481916,68.0925271141221,60.83615150082453,91.63456474001467,91.20831797821225
56.150290185284334,152.64964621144773,159.40059913669543,68.0206677104641,60.84329836487934,90.66480455398974,90.94414198618102
56.47122049372498,153.44314158136476,161.8109675280302,67.94809152296328,60.857326572972845,89.6683569014598,90.67894938759675
56.7840495285615,154.17763959372024,164.26390563957654,67.87528502992282,60.87783097079982,88.64741006983198,90.41315226592084
57.087810927003616,154.8499254551547,166.75534638276324,67.80275986410611,60.90434966395712,87.60417700465419,90.14719360882896
57.38158463299671,155.45683409526313,169.28103702044402,67.7310212479241,60.936372187289926,86.54089802391825,89.88151940836862
57.664500248251564,155.99530246825913,171.8365596107955,67.66054032279965,60.97332624388441,85.45982816759725,89.61654324476211
57.93576389852798,156.46242086144034,174.4174518267335,67.59176157078898,61.014574219371156,84.36322946074088,89.35264883770553
58.1946747992074,156.85558668721944,177.0193520944089,67.5251276479682,61.059441381624694,83.25337332169049,89.09021975854074
58.440610452106675,157.1728378733836,179.63802396872566,67.46107965732246,61.10725149361173,82.13253148238259,88.82964541268429
58.67300608797281,157.41324458623916,182.26926193582625,67.40002923596649,61.15733443217866,81.00294664626755,88.57129074421657
58.89136088401188,157.57711507105856,184.90879325222073,67.34234145311831,61.20901504230325,79.86680197189499,88.31547573704803
59.09526141302135,157.66595650647255,187.55223150085197,67.28834879636042,61.26162765067621,78.72621096858846,88.06249809573124
59.28438645182734,157.68235331922097,190.19507269579043,67.23836701366591,61.31456669938313,77.58322611464719,87.81266707542616
59.458487618866954,157.6298800431454,192.8327067507055,67.19268132853679,61.36732529458477,76.43984349502448,87.56630002490958
59.61738035460568,157.51302500036218,195.46039626879022,67.15151916860506,61.419485349422615,75.29799217348264,87.32369138262251
59.76096483674809,157.33708810659974,198.07320451363748,67.11504978625155,61.47068700195216,74.15952563501325,87.08510604953581
59.88924826454361,157.1081200259593,200.66592792838665,67.08341305596319,61.52062073779718,73.0262300946353,86.85080889547038
60.002334322038976,156.83296344142005,203.23310085676255,67.05673490543369,61.56903976399422,71.89983450138102,86.62108205870508
60.10039149949283,156.51928020107357,205.76906547365562,67.03510734203749,61.61575709242429,70.7820012912683,86.39619837358826
60.183641750894985,156.17544571956626,208.2680347430396,67.01856461188234,61.66061999188211,69.67430240535951,86.17638572946265
60.252381592086046,155.81036180958375,210.72411866646328,67.00708768515747,61.70350118618126,68.57820282432601,85.96183031829777
60.30699943003116,155.4332443509241,213.1313761380807,67.0006210038643,61.7443332215824,67.49506343677169,85.7527087480018
60.34795813284584,155.05337863641452,215.48395356602276,66.99906743906443,61.783150848992314,66.42615061013525,85.54919684255593
60.375763264165606,154.67988909887492,217.77627060777957,67.00226560588771,61.82009115568347,65.37263417902707,85.35144273742979
60.39095532263681,154.321606457128,220.0031669497799,67.009985478234,61.855357475236055,64.33557876912901,85.15955302984801
60.39412409337825,153.98702683805718,222.16000741508054,67.02195168456305,61.88919585956106,63.315950738362126,84.97362410821039
60.385908502329876,153.68426953172414,224.24278236944045,67.03786060883824,61.92190395801622,62.31464387826559,84.79378095543898
60.36696900715092,153.42098327937703,226.248152747699,67.05736699704951,61.95383904240166,61.33249724811001,84.620172585374
60.337964018337296,153.20423894627137,228.17339562027763,67.08006303453404,61.98539398098612,60.37028597439294,84.45293660209356
60.29955749041352,153.04044634875947,230.01632186373647,67.10548747204899,62.01696124152895,59.42870032748226,84.2921884680703
60.25243811385808,152.93527877467366,231.77521773412806,67.13316216121366,62.048923894940856,58.50834096572224,84.13804900646315
60.19731468904609,152.8935775289384,233.44876750587449,67.16261311558667,62.08167083711501,57.60973509234419,83.99066090402563
60.1348921020805,152.9192521875895,235.03594442426206,67.19335611316866,62.11559831581303,56.733350613322166,83.85016071668767
60.0658638253164,153.01522612491328,236.5359238573097,67.2248853257298,62.15108886042587,55.87959002906525,83.71664186392708
59.990929528705905,153.18344430401876,237.94803821524883,67.25670865267094,62.18850436074363,55.04877470263844,83.59015929231293
59.91080468026912,153.4249077859714,239.27174044408045,67.28840916266316,62.22821098629584,54.24114313523527,83.47076619577663
59.8262006553793,153.73974052220794,240.50657257199842,67.31967117325453,62.270598486107296,53.4568679375314,83.35852655492552
59.737799389117235,154.12734675226326,241.65218333572793,67.350257956973,62.316061486259585,52.696070607978285,83.2534852317472
59.64625543840438,154.5866146786167,242.7084090571908,67.37999035960378,62.36496836140813,51.958817233679795,83.15564336693556
59.552218076605605,155.11602215630157,243.67536380537993,67.40875680801072,62.41765924593495,51.245105778460484,83.06497905675573
59.456336021806,155.71360008361538,244.55347936959245,67.43652486095418,62.47446665390882,50.554868310431125,82.98148391729357
59.35923299601768,156.37685896129702,245.34347118281647,67.46331867186596,62.535717218548506,49.887992743992896,82.90516280349544
59.26148496390024,157.1028083546099,246.0462384817201,67.48917615335792,62.601704990589056,49.24434160499984,82.83600277028552
59.16362557291356,157.888088856186,246.66276698256596,67.51412660731229,62.67267370024703,48.62374828272996,82.7739659611874
59.06616356906449,158.729093688459,247.19411542458658,67.53819764877726,62.74883362718842,48.02600081862701,82.71902152592463
58.96957976598486,159.621975833754,247.64146139934434,67.56141816607678,62.83038721101035,47.45083832440179,82.67116629964985
58.87430604109684,160.56258597780385,248.00611341506803,67.58379742065587,62.91752437946983,46.89796701962387,82.63039895444425
58.780722425986895,161.5464242188859,248.28947394670575,67.60530984429471,63.01039311719782,46.367075643126306,82.59668262890365
58.68918651188767,162.56860985470797,248.4930031227318,67.62591741672809,63.10908572165777,45.85783181857662,82.56994704661986
58.60006082022001,163.62384339723152,248.6182087020284,67.6456071619961,63.21365331930195,45.36987027221327,82.55012109366487
58.513704566202804,164.70637078503162,248.66668239885487,67.66439696907361,63.32411506855377,44.90279968634807,82.53714053243448
58.43044624648222,165.809986238165,248.6401781431218,67.68230838830692,63.440437719087264,44.45623251246945,82.53091362362291
58.35057465581206,166.92808698213835,248.54065771678248,67.69935005018509,63.562509136766415,44.02980834312922,82.5312939242483
58.27435054648636,168.05374147747997,248.37024805769008,67.71553361471453,63.69014090016962,43.623187482986836,82.5381029377407
58.202007871210675,169.1797296709378,248.13114477022646,67.73089120725707,63.82309412007303,43.23602854884488,82.55117358248643
58.133733393151665,170.2985694001922,247.82554077119084,67.745460571451,63.96109024127053,42.867977802961896,82.57035612265304
58.06965382057655,171.40256508226017,247.45562853502008,67.75925293824972,64.1037938842166,42.51867638627938,82.59548698270925
58.00985413858417,172.48387389171617,247.02363565383806,67.77224299611977,64.25080045912813,42.18776741581639,82.62637752506434
57.95440527061423,173.5345557720139,246.53181201592682,67.78438645796072,64.40165803450037,41.87488835948679,82.66284438828984
57.90336543374658,174.54659914627248,245.98235466020145,67.7956303499878,64.55590424446777,41.57965979745828,82.70473218001064
57.85675974139506,175.51195468154677,245.377321043542,67.80589567080283,64.71307652934286,41.30169487115943,82.75189132733722
57.814574125785924,176.42261266927432,244.71857013274354,67.81506004745053,64.87269260000681,41.04063194783377,82.80414910045097
57.77677381725081,177.27071183919358,244.00773923141526,67.82297472675245,65.03424123986277,40.79616355014726,82.86132555711696
57.74331502263089,178.0486251265862,243.24625426363468,67.82950227582602,65.19720517453356,40.568042028703445,82.92327598530656
57.714128792038856,178.74899787841065,242.43536671505012,67.83453029890606,65.36108549794447,40.35607122600227,82.98989759262973
57.68910010501901,179.36476518542827,241.57619262486116,67.83795150974187,65.5253940408848,40.16009911212133,83.06108709552267
57.668072178429234,179.8891687091604,240.66972142963425,67.839649462517,65.68963177323165,39.9800093948187,83.13670326658055
57.650868079233675,180.3157670064594,239.71680181174045,67.83951773041461,65.85329778236256,39.81570048639732,83.21657958734012
57.637296591131665,180.6384382098736,238.71815683959937,67.83748613052707,66.0159303710251,39.66705126106998,83.30056148445588
57.627131885331124,180.8513923932138,237.67446402601044,67.83351632436094,66.17713137303562,39.53389561406103,83.38851043192633
57.62009374819132,180.94921595419345,236.58646545119998,67.82758032589946,66.33654867413104,39.41604557810454,83.48027131845028
57.615855217482775,180.9269459712763,235.45502605927265,67.81966644863716,66.49385305991888,39.31337179657827,83.57565565406603
57.61406669064786,180.78013622706382,234.28110827711632,67.8098146908122,66.64874616635666,39.22587878774685,83.67446173133771
57.614363979715094,180.50489249404598,233.0657092839783,67.79813362462549,66.80098133048907,39.15371569634528,83.7764877860771
57.6163570619654,180.09792560971556,231.80980475758557,67.78477379294637,66.95035746386647,39.09714539374871,83.88150483945746
57.61963134108726,179.55667763614207,230.51432519547978,67.76989148882735,67.09668787145972,39.0565187021964,83.98922301963938
57.62377510778688,178.87947107754536,229.18020462679365,67.75364430718659,67.23978423711922,39.032253002837535,84.09930102415213
57.62840326491799,178.06557380537802,227.80848831113528,67.73621025924443,67.37947209880817,39.024797242636495,84.21138878915619
57.633149818359456,177.11516022641766,226.40040406285746,67.71778811535691,67.51560534390208,39.034594120575875,84.3251461620731
57.637645703209245,176.0292536218862,224.95733998612258,67.69856818331748,67.64805038833556,39.06206011725,84.44021783931085
57.64151686854588,174.80974043632693,223.48078473990176,67.67871386809583,67.77666159857561,39.10757651703615,84.55621248445844
57.64440531072079,173.45945953433272,221.97233099787334,67.65838432494228,67.90128765877078,39.17146805189018,84.67272818716918
57.64598070674062,171.982277524099,220.43376246018215,67.63776871379046,68.02180295438896,39.25396672230079,84.78939554460825
57.6459247989392,170.38307271782995,218.867120449638,67.61708595142473,68.13811858692449,39.355184827022704,84.90588208360938
57.64391264120543,168.66766158078303,217.27465917829193,67.59655586587441,68.25015772362238,39.4751160029796,85.0218588055647
57.639620473312206,166.84280233386366,215.65872731047108,67.57638690878983,68.3578304344784,39.61365055853611,85.13698556679898
57.63275086489897,164.91638008345808,214.02165169923194,67.55679479173082,68.46103470835048,39.77057617820892,85.25094514233324
57.62304035506685,162.8977664478746,212.36564632560422,67.53801568555158,68.5596639479214,39.94556002053375,85.36348417734072
57.6102431730151,160.79822277404529,210.69276068602127,67.52028777906982,68.65359229254472,40.138133144167725,85.47441037326288
57.59412320217239,158.6310876242415,209.00489876512322,67.5038302109826,68.74264674786714,40.34769080800718,85.58356491619797
57.57447271258601,156.41160115526668,207.30389927870405,67.4888578728671,68.82660146443078,40.57350710181454,85.69082605838352
57.55113254742951,154.15650980724666,205.59161574243555,67.47561587004421,68.90520542429635,40.814755746482,85.79614329808491
57.523986019508094,151.88364277433882,203.8699457336127,67.4643840159691,68.97821108222158,41.07052567348282,85.89954454076386
57.49294076473278,149.61153189115268,202.14081154397167,67.45544280076842,69.04537255862236,41.33983259121885,86.00109595950042
57.45793220377037,147.35907708985425,200.40613253900915,67.44904587636515,69.1064286429278,41.621636925329945,86.1008676538267
57.418948201655546,145.14521567023476,198.6678133683428,67.44543234246379,69.16110784825268,41.91485834182559,86.19895121008565
57.37603871964793,142.98857350462762,196.92773294415753,67.44485369684269,69.20915626903697,42.218372416087625,86.29549707291588
57.329294031000586,140.9071326053907,195.18773026892538,67.44757068859501,69.25035024643091,42.531005469946216,86.39071022351742
57.278821046466135,138.91795135865038,193.44962147465432,67.45382144971889,69.28447703713879,42.8515507073122,86.48480562080466
57.224748955619766,137.036951277717,191.71526497124592,67.46380074791585,69.3113167936614,43.178795024517534,86.57798180541482
57.16725108074902,135.27877997536427,189.98664085394802,67.47766388410432,69.33066209871693,43.5115273045472,86.67043647325167
57.10654581191757,133.65677102550876,188.2659013014576,67.49552522086643,69.3423600769472,43.848523108279124,86.76237906048092
57.04286848894506,132.1830302621143,186.555361177755,67.51743195919018,69.34633003009296,44.18852763616559,86.85400247648144
56.976442388924255,130.8686556650021,184.85741982288295,67.54333924006318,69.34254649947214,44.53025391429513,86.94544476069655
56.907472251365206,129.72400227793113,183.17445807862396,67.57311881882406,69.33102820319117,44.87238960328584,87.03679225824797
56.836150235077646,128.75880648420315,181.50877479617884,67.60658911880391,69.31185804245648,45.21359619050077,87.12811788898426
56.76264999529136,127.98208308329346,179.86257671521173,67.64352584638151,69.28520420938248,45.55249977091579,87.2194972980098
56.687111324964356,127.40191338899234,178.23798269831445,67.68364239762533,69.25130828720161,45.887689444199744,87.31097891604294
56.60964339240287,127.02525933118955,176.63700629729732,67.72657365839264,69.21045967258448,46.21773099490669,87.40255257433301
56.53035111036825,126.85781510018543,175.0615250234458,67.77189206547925,69.16299875656479,46.54118152206298,87.49416318193536
56.449351213736605,126.90386874804439,173.51326427418465,67.81913814990763,69.10934466533124,46.85659261344957,87.58574879835207
56.36675892559775,127.1661991794351,171.99379750617936,67.8678285657952,69.05000007801861,47.16251759036812,87.67724623641318
56.282671704803114,127.64605737854906,170.50454404006365,67.91744402562489,68.98551508201096,47.457546101980995,87.76855667558614
56.197180425767044,128.34324742023642,169.04675991431984,67.9674346830837,68.91644768754593,47.74035543324378,87.85952356584185
56.11039584254494,129.25626317253707,167.62154106245598,68.01725148750594,68.84335762364752,48.00974052336786,87.94995486590787
56.022454133349655,130.38238067879124,166.22984444080018,68.066365706533,68.76681912490994,48.26460746064656,88.03965336061152
55.933494414522066,131.71767151496573,164.87249495081772,68.11425381141093,68.68741321653617,48.5039545508364,88.1284095952054
55.84363989997868,133.2570516987814,163.5501711183672,68.16037834486559,68.6056974248015,48.72687115035268,88.21597569046155
55.75300674955154,134.99444127033482,162.26341724411495,68.20420311464812,68.52219673059052,48.9325559755619,88.30207037002339
55.66172249755715,136.92292332228837,161.01272087686496,68.24523086716552,68.43743815468088,49.12032870528673,88.38641415320731
55.569923797918456,139.03478886305072,159.79867156241409,68.28301800290768,68.35198686754275,49.28961740483444,88.46874279444289
55.477740294317805,141.321499338954,158.62218042501223,68.3171557733636,68.266437756066,49.439937059246695,88.54877823032635
55.385297777628516,143.77363712797262,157.48465199866513,68.34725868903092,68.18138021032894,49.570884728550304,88.62620194963951
55.29274487230871,146.38087043809145,156.3880300991437,68.37298919473655,68.09738268156818,49.68215167952892,88.70067689763302
55.20026836256382,149.13194683486233,155.3348102668173,68.39409102081487,68.01500109354131,49.7735283691631,88.77189576827412
55.10807699604848,152.01472898028706,154.3281159594004,68.4103892809077,67.93477502127061,49.84489015731663,88.83959512724203
55.01638026012184,155.01627939182464,153.37177009057157,68.4217632187464,67.85719757511183,49.8961806082729,88.90352579986416
54.92539645060511,158.12300032887967,152.4703007896095,68.42813280691279,67.78269133385274,49.92741052833916,88.9634342549649
54.83538109280542,161.32080723235572,151.62896176150215,68.42947133370618,67.71161893950328,49.93866547189854,89.01909053418005
54.74663594357525,164.59527647322832,150.85380842202602,68.42581089952651,67.64430694543616,49.93010168129687,89.07032535835248
54.65949014432087,167.9317326572301,150.15173505658646,68.41721828164373,67.58104285377745,49.901929210091694,89.11702500289621
54.574291288515745,171.31528577088048,149.5304002336619,68.40376623683387,67.52204602673733,49.85440554695371,89.15909824866705
54.49142933334763,174.73083597684362,148.9980582720718,68.38553502249894,67.46745183832779,49.78785452125649,89.19646944182391
54.41136258668797,178.16307296676476,148.56332708392014,68.36263542739677,67.41733109099414,49.70268985987435,89.22910339419224
54.334607465252994,181.5965118438969,148.23494112681408,68.33521209110721,67.371718027953,49.59941602547343,89.25701152035391
54.26170216831127,185.015593825027,148.02158295190742,68.303416158367,67.3306110548848,49.47861499429622,89.28021611463745
54.19318621283077,188.40483432806158,147.9318168302423,68.2673862821373,67.29395608849565,49.3409475508935,89.29871616016088
54.12960962779199,191.7489596277646,147.97400840515922,68.22726859776841,67.2616508685392,49.18716941414976,89.31249780267252
54.07153948227447,195.03298969147082,148.1561625450918,68.18324944775942,67.23357284838303,49.018133333769114,89.3215668895821
54.01953538026686,198.24227422355017,148.48579502588575,68.13555659156575,67.20959255291626,48.83476495139104,89.32595099855835
53.974112505808826,201.36250348120558,148.96992760969093,68.08443354175215,67.18955698234207,48.638036662682595,89.32566920407602
53.93573174001434,204.37970878608238,149.61510037739677,68.03013152201058,67.17327515890013,48.428968251361916,89.32072006217591
53.90482128439783,207.28027429562906,150.42726878681012,67.97293230795685,67.16053185097637,48.208648457253965,89.31110825354625
53.88179113269119,210.05097876230096,151.41160147587803,67.91316265316277,67.1511082406934,47.97824199294144,89.29686493377409
53.867014915523036,212.6790584183825,152.57228379929464,67.85117324035883,67.14477649673603,47.73896575552169,89.27802452485946
53.86080346732718,215.15226759387673,153.9123919481173,67.7873112210933,67.14127736559215,47.49205876869047,89.25458911881923
53.86340559408657,217.45893729251603,155.433818564372,67.72192468627206,67.14032021944152,47.23877035139661,89.22653231303673
53.87503053233129,219.58804390961492,157.1371968022483,67.65538781751026,67.14161257047846,46.98035613949115,89.19383721891673
53.89585497807762,221.52927136364255,159.02181409284634,67.58810303145994,67.14487886868017,46.71806090613001,89.15651334739242
53.92600280287184,223.273040974264,161.08557445809961,67.52046964728663,67.1498427336334,46.45309331810183,89.11457021344205
53.96553091013354,224.8105150590259,163.32505878180334,67.45285827112176,67.15619957669472,46.186614182092995,89.0679922396523
54.01444938377129,226.13360122196977,165.7356315769185,67.3856213163853,67.16361832612972,45.919739704666824,89.01675743092835
54.07275319313408,227.2349787591978,168.31151860306878,67.31911563708509,67.17176785930064,45.65353840496651,88.96087614700077
54.14042446348169,228.1081453944225,171.04588748322354,67.2536973974182,67.18032740297353,45.38901221893471,88.90039722565413
54.21740771718351,228.7474564511656,173.93098303745188,67.18969625848126,67.18896336603775,45.127080232999056,88.83538095184032
54.30359846036978,229.14813511442082,176.95826194673595,67.12740984473994,67.19730440239864,44.868584937658504,88.76589132922713
54.39886105216324,229.3062668845182,180.1184585838937,67.06712651852952,67.20495086233794,44.614312594375505,88.69202832796374
54.50304459962254,229.21880595373838,183.40160758593476,67.00913822172478,67.2115079878306,44.3650004149251,88.61395301594011
54.61596976817779,228.8835981457807,186.79709016994846,66.95372033051585,67.21660067777871,44.121323124459096,88.53186765068362
54.737407017516226,228.29939623316739,190.29372810632987,66.90110959315807,67.21986103375849,43.88388328099891,88.44598517720355
54.867081585961714,227.46585041595853,193.87988438179158,66.85152207452175,67.22092546286957,43.65322477846081,88.35653771107634
55.00469904865986,226.3834903782876,197.54351377769532,66.80519991261001,67.219457508326,43.42985355526605,88.263808394896
55.14995204255395,225.0537255787702,201.2721594628299,66.76243238150752,67.21516269124727,43.214240409051,88.16813201586132
55.30249636643929,223.47886065965463,205.05293808817834,66.72353077253567,67.2077698727657,43.00681431391685,88.06985787164501
55.46193140076168,221.6620948156178,208.87255020264186,66.68879780799163,67.19700348728995,42.80797749687693,87.96932929957163
55.62781371388278,219.6074880658814,212.71735723122745,66.65852805580013,67.18258241225736,42.618144361458015,87.86691384181752
55.79968281239547,217.3199110163246,216.5735660630044,66.63302009178827,67.1642406150869,42.43776569788417,87.76304287842162
55.97706172373791,214.8050037354271,220.42746247268482,66.61256444331501,67.14173366178889,42.26731344845273,87.65820499265132
56.15943706685234,212.06914811968312,224.26556050609472,66.59741495854419,67.11482029876214,42.107248801728275,87.5529093317323
56.346256097546835,209.1194347375724,228.07464656659894,66.58778075779337,67.08325110582422,41.95800742290366,87.44768316001377
56.536950038485514,205.96361320538333,231.8417985246255,66.5838434167869,67.0467884560997,41.82000299437935,87.34311449985272
56.730949513122255,202.61004400590937,235.55440170293525,66.58576277777175,67.00523433907149,41.69362370583687,87.23987669804731
56.92767040900347,199.06767136605984,239.2001478022253,66.59365173526481,66.95842941943229,41.57921304167852,87.1386962601279
57.12649715535226,195.34600534269964,242.76703804786922,66.60754853506528,66.90622888075498,41.477061675891214,87.04031033805323
57.32679835811741,191.45508472638875,246.24342692097923,66.62742145614793,66.84849480934712,41.387430672044175,86.94547198420173
57.52796399792833,187.40541676535548,249.61815254220522,66.65319638793855,66.78512021474702,41.31058073628453,86.85498502937877
57.72942098162527,183.20791905459728,252.88073597897562,66.68476704387668,66.71605187966041,41.24677161816654,86.76970461819307
57.93061449270902,178.8738806155811,256.02152646767877,66.72197732434559,66.64128011991339,41.196235653047474,86.69049458975522
58.130992767390836,174.4149269032115,259.0317297765912,66.76461124005391,66.5608111587747,41.15915694714696,86.61820287238929
58.330027442855275,169.84296675554293,261.9033908518317,66.81241510778864,66.47466004112776,41.135672765496615,86.55368610090396
58.52724740399312,165.17012780031632,264.62941153828467,66.86512542707057,66.38286787368365,41.125883302740874,86.4978311330052
58.72224293109957,160.4087053830122,267.203616374836,66.92246571952559,66.28550961519066,41.12984757209918,86.4515256573438
58.914640076218674,155.57112888793864,269.6208078834407,66.98412312987656,66.18267800881863,41.147567937954406,86.41561751820844
59.104085428251615,150.66992098049744,271.87675809235384,67.0497474220021,66.0744764677544,41.178986554846674,86.39092606149684
59.29026019648801,145.71763523915772,273.968190722346,67.11898090704317,65.96104861493495,41.22399800533899,86.37828813067718
59.472895204396714,140.72679040682212,275.8928440698217,67.19147831004179,65.84261712029937,41.282454538173695,86.37856525852645
59.65175762332381,135.70982560039994,277.6495734748502,67.26689018686743,65.7194857495653,41.35415235953483,86.39259584612678
59.8266240621019,130.67907204824937,279.2383478394652,67.3448411413635,65.59200462522631,41.438821178105485,86.42115688714695
59.99727332793225,125.64671513711738,280.66010749369053,67.42494348397683,65.46054081509452,41.53613832314328,86.46498075035083
60.16349944072004,120.6247387162318,281.91659806812953,67.50683296024819,65.32548083525964,41.64575202885189,86.52478586855503
60.32511332627343,115.62487294293406,283.010238519242,67.59017838722346,65.18724490346038,41.767283800361376,86.60126243224157
60.48192021266473,110.65856113836975,283.9439849929525,67.67465518499775,65.04627947758506,41.90030923839374,86.69503447025886
60.63370063610704,105.73693198718139,284.7212014183505,67.75992552510101,64.90303243421292,42.04434294160934,86.80666915266727
60.78022170921738,100.87075829013217,285.34562570269674,67.8456541751557,64.75794387900467,42.198840623571066,86.93673571293725
60.92126208215985,96.07040983333158,285.8214833842303,67.93153181296812,64.61145826027277,42.3632047636155,87.0858333747249
61.05661514675353,91.3458249840331,286.1536587190406,68.01726759331677,64.46402655640446,42.536778636360545,87.25454684993534
61.186070366895976,86.70650577548813,286.3477594294706,68.10256351903283,64.31608473457088,42.71883714433883,87.44339074665224
61.30940810864473,82.16151180892363,286.4100285547132,68.18711247887612,64.16803813668922,42.90859371501544,87.65281445114896
61.42642387448998,77.71943274548224,286.3471932945267,68.27062418292867,64.02027847373633,43.10522109044119,87.8832462879261
61.53695200027958,73.38835038165682,286.1663219614143,68.35283779448783,63.87321290781981,43.30786204114143,88.13509881428351
61.64085989867185,69.17581617131805,285.874686299428,68.43349896224723,63.72726494782502,43.51562063363521,88.40871887394346
61.73803309899888,65.08885057990115,285.4796242685341,68.5123321790199,63.58284525394402,43.72755667827709,88.70434968232168
61.82838795425582,61.13394312010405,284.9884163488953,68.58904586365078,63.440330891985816,43.94270691428834,89.0221501923373
61.911903420548676,57.31703473339028,284.4081637136839,68.66336016055608,63.300075290245225,44.160121333155466,89.3622273553205
61.988629596313906,53.64349295084849,283.74564560614897,68.735015016519,63.162423589912486,44.378881719345124,89.72461934941434
62.05866177435265,50.11810381888213,283.00718493344874,68.80374698760112,63.027702201959166,44.598092897913205,90.10924606060752
62.12211532879846,46.745083648453026,282.19860937388387,68.8692750723114,62.89619414166465,44.81686893509268,90.51589367373381
62.17913203059419,43.528087425854444,281.3253329003118,68.93132938786509,62.76813477072718,45.03433376954198,90.94424551563665
62.229901036589716,40.47019925321684,280.3924401776741,68.98969574791334,62.643731075542206,45.2496290347953,91.39389714138906
62.27465622922325,37.573920575371474,279.4046734551161,69.04422539773616,62.52317085993997,45.46191084673261,91.86431914206293
62.313647349602334,34.84117846494773,278.3663611998537,69.09480931185848,62.406605146718334,45.67033563869626,92.35481722529146
62.34712110127568,32.273350813648925,277.2813568343597,69.14136352124775,62.29413342796038,45.874056303168594,92.86454999736681
62.37533157062151,29.871284028381396,276.1530117299656,69.18384696217674,62.18582363077691,46.072243640002,93.39258286614863
62.398553388862716,27.635292797773765,274.9842009176246,69.22227775269178,62.08174925072689,46.26411739581168,93.93790574790982
62.41706790090943,25.56516204740174,273.7774305000385,69.25671494162044,61.98200015552672,46.44895870373751,94.49940005658503
62.43113633966454,23.66017330081116,272.53502135572717,69.28722671445607,61.88666342706738,46.6261051950198,95.07581933230388
62.44099537769717,21.91914565369861,271.25928180337013,69.31388614262295,61.79581514863567,46.79495449702881,95.66582781990165
62.446876182500006,20.340461563507187,269.9525798349665,69.33679205046812,61.70954428332539,46.954979755222816,96.26805249078542
62.44901104289082,18.922070593993297,268.6173541400319,69.35607356544615,61.6279775173172,47.105733113310706,96.88108387878522
62.4476096964679,17.661496923812532,267.25619053031744,69.37186282996932,61.551271096493544,47.246828687524086,97.50344145350111
62.442832223070994,16.55587162305293,265.871981890027,69.38427118304806,61.47958638950317,47.377927748383954,98.1335765929513
62.43479012882332,15.601975245000908,264.46804182124646,69.39340056446534,61.41309143739292,47.498744077181364,98.76993054536683
62.423567624262866,14.796262889687846,263.04810205658055,69.39936911699746,61.3519896145764,47.609055364809095,99.41097863454772
62.40922857527163,14.134873821371086,261.6162411121773,69.40230959059413,61.296530457668055,47.70869830512062,100.05521523364473
62.391800157173506,13.613651984941976,260.17676473805705,69.40234123221984,61.246980643063715,47.79755502359801,100.70112983262364
62.37126341588541,13.228182203878077,258.7340345520323,69.39955385394163,61.203589731841454,47.87556011739003,101.34722979870428
62.34757148008531,12.97381723308606,257.2922925658183,69.39402002233,61.16658921380497,47.942731241295974,101.99207718758541
62.32067272000208,12.845681918767266,255.85553745234319,69.38580590311088,61.13621251944813,47.999188223984405,102.63427951676906
62.29051006120934,12.838672768063192,254.42744645075499,69.37495483515717,61.11269495021187,48.04513773729056,103.2724488367824
62.25700871465874,12.947477840561087,253.01129091785214,69.36146359184765,61.09624705536528,48.080843841236515,103.9051948754169
62.22008461139349,13.16661512428286,251.60983337135008,69.34528767011787,61.08703823352339,48.10661494243851,104.53116431233563
62.179671490831815,13.490462630099001,250.22525977844734,69.32637184454147,61.085212689861585,48.12280730410036,105.14906395778459
62.135731172877364,13.913267287849132,248.85917999221644,69.30466466705978,61.090910544908056,48.1298212311231,105.75762990996591
62.08823324967844,14.429152803534663,247.51265146482487,69.28010661270895,61.10425851741694,48.12808208555284,106.35558976165716
62.03713414182278,15.032147278360336,246.1861755304331,69.25264431601998,61.12533879392824,48.11802709223983,106.94167876433038
61.982385808244686,15.71621998128676,244.8796802163835,69.22230819540103,61.15417318250935,48.10011088661983,107.51469261277644
61.923960926911654,16.475302991753257,243.59252156121013,69.18929956599563,61.19073118267944,48.07481079453532,108.0735054104994
61.86185774864937,17.303297100996406,242.32349755482855,69.15400793146956,61.23493203553046,48.04261051054441,108.61703451219505
61.79607986069757,18.19408449389627,241.07086386125894,69.11696088312355,61.28662374391153,48.003969265099244,109.14421368863694
61.72662453111278,19.14155779659403,239.83236627273823,69.07877238193514,61.345564196425805,47.9593013756356,109.65401867708624
61.653498440974964,20.139648085903122,238.60530150721652,69.04012490856523,61.411429763115166,47.90897956536251,110.14550417198056
61.57673557800411,21.18233562015543,237.3866007839583,69.00175889475018,61.48383461346875,47.85334817812541,110.61779409888591
61.49638947427842,22.263648613533093,236.17291626145527,68.96443733367376,61.562329960278184,47.79272313866079,111.07004177171702
61.41251477853949,23.3776663915555,234.96067784825826,68.92890235649173,61.646389729372466,47.72737827870546,111.50142265243683
61.32517144991769,24.518538690268223,233.74611858606386,68.89586216274915,61.73541759196964,47.65754017766712,111.9111690318702
61.23444800529131,25.680515769089876,232.52530219801093,68.86600539640192,61.82878195818561,47.58340294823268,112.29858847592521
61.14046738010244,26.85797095504662,231.29415565898415,68.83999988774727,61.925842631271394,47.50514498613017,112.66303306388919
61.043363162121295,28.045410744593852,230.04848288200148,68.81845929929155,62.025943954814025,47.42292592095972,113.00386408110124
60.9432560192747,29.23748683348344,228.78396931072373,68.80191439522393,62.128397432668564,47.336869785075436,113.32046754281271
60.840256167091376,30.429019449790786,227.49620655149312,68.7908216907157,62.232491054709776,47.24705812078901,113.61230322067439
60.734477440147806,31.615026955478793,226.1807332326731,68.78558815930228,62.33752382017442,47.153540030807704,113.8789199938211
60.62603242162264,32.7907539383706,224.83306496378327,68.78656965301502,62.44282624578628,47.05634061719674,114.11992010818636
60.5150078731621,33.95169644481898,223.4487096973593,68.79404265993254,62.547747948357575,46.95545458399671,114.33493217557547
60.40145162927969,35.093626651173444,222.02319049385306,68.80818669188001,62.651643494399856,46.8508396612854,114.52363943962887
60.28538902177495,36.212610161875446,220.55208347026127,68.82909118863842,62.75389067804555,46.742429266640094,114.68582553552243
60.166845400508116,37.30500303696406,219.03105219934616,68.85675911682256,62.85392532279499,46.630156878951155,114.8213755576645
60.04584412547622,38.36743300193696,217.45586505837377,68.89108773372148,62.95124992178208,46.51396679827929,114.93024366710105
59.922389185070536,39.396787853933084,215.82240942951046,68.93184999591197,63.04541355089853,46.39380439327962,115.01245510030793
59.7964675466049,40.390222003168994,214.12672536755014,68.97871067305377,63.13600426741172,46.269606844110434,115.06815780747661
59.66807706048274,41.345164558692176,212.36505676581316,69.0312692666661,63.22267021657855,46.14131328399773,115.09765506694713
59.53724452109161,42.25931036638219,210.53389313196084,69.08908445789459,63.305134094559946,46.008884635439514,115.10137323614452
59.40401205990456,43.13060052010291,208.62998867457685,69.15166090708955,63.38317222246814,45.872308784075955,115.07981383471692
59.2684176862158,43.95721356898452,206.6503773256023,69.21843244681033,63.45658185739623,45.73158717255117,115.03355547290602
59.130501724289736,44.73757263637992,204.59240327376256,69.28877602928159,63.525183604754396,45.58672500507986,114.9632899661389
58.99032898448529,45.47034912353299,202.45375748334183,69.3620408608902,63.58886486501952,45.43774013800974,114.86982411286627
58.84799248720056,46.154447004828775,200.23249751150374,69.43755440788912,63.64761301032092,45.28467567739051,114.75402972954043
58.703594454266195,46.78898046692185,197.9270511889934,69.51460595446889,63.70149995500047,45.127595452633855,114.61680072621097
58.55723885526328,47.373272215702876,195.53622858126556,69.59245037859439,63.750644978348575,44.96656720077353,114.45906334852393
58.409055436223284,47.906876772564246,193.05925250118102,69.67035102808369,63.79519858402673,44.80165496998529,114.28180479173305
58.25922677428903,48.38959931774437,190.4957855225908,69.74762126822606,63.835345403508136,44.6329287967276,114.08606165369639
58.10798381819556,48.821484887079144,187.84593023777063,69.8236234324026,63.87129520670263,44.46047625145931,113.87288047789879
57.955581279673005,49.202790247555846,185.11020995934476,69.89774207478804,63.90325770602432,44.28439849843838,113.64331533504934
57.80229082522736,49.53397049788798,182.28956303016759,69.96937449998052,63.93143422463249,44.10479363881319,113.39847308813681
57.64841876474251,49.81569098980823,179.3853821436674,70.03794491413599,63.95604425663158,43.92174324367929,113.13953805243152
57.49431439538394,50.04883944231916,176.39958593031173,70.10291011991839,63.977354818372156,43.735310684054134,112.86773420272814
57.34034804048833,50.234511898187364,173.33466273076974,70.16374236491444,63.99567399611024,43.5455448072826,112.58427450447398
57.18688231095731,50.37398235622286,170.19364905660072,70.21992025772478,64.01131926285622,43.3524789947412,112.2903624717102
57.03426609217863,50.468683912035665,166.98006501728443,70.27095568321145,64.02460026867612,43.156127975421704,111.987231678026
56.882843528770536,50.520204028898505,163.697842231155,70.31643281205203,64.03582457653103,42.95649466322606,111.67615278168033
56.732948413251094,50.53027105339566,160.35125986456302,70.35601629115395,64.04529602421944,42.75359007285395,111.35838743507958
56.584878236036275,50.50072212926031,156.94491243226238,70.38943311980502,64.05328909236056,42.54745136010967,111.03514728501693
56.438875277586945,50.43347231386023,153.4837812708776,70.41647284616495,64.06002542760194,42.33814214285109,110.70760348398917
56.295134409511896,50.33050498985492,149.97347463816968,70.43701672789976,64.06568291496116,42.12574171091279,110.3769122064876
56.153819058022926,50.193873197691765,146.42054032705394,70.45105241922224,64.0704242857427,41.910349300312895,110.04420022270271
56.01505934031085,50.02568738570799,142.83268106635828,70.45864534168562,64.07440543099608,41.69211287295505,109.71052083313964
55.87894383766786,49.82809013895739,139.21894002418998,70.45989720260538,64.0777561795463,41.47125457606986,109.37683882718642
55.74553586822071,49.60324296536889,135.5899864449242,70.45493980323378,64.08057132441346,41.24806600888915,109.04405772404375
55.6149093439133,49.35333416401806,131.95829350096747,70.44396502828779,64.08293944162392,41.022886021728866,108.71303409001972
55.48716461895712,49.08058416069882,128.33795713506353,70.42724206222353,64.08498308168966,40.796093287753386,108.38454466052502
55.36240941806013,48.78722583019131,124.7442602610031,70.40509549254921,64.08686524586123,40.56812155899085,108.05925105780751
55.24073582464977,48.47546913604648,121.19320596116474,70.3778828132794,64.08876425682148,40.3394714223857,107.7377168751526
55.122224525455366,48.14747981307568,117.70110170944498,70.34601483328883,64.09085980946693,40.1106966955928,107.42045670796024
55.00696635331582,47.805387456088695,114.28419570527785,70.3099973875276,64.09334530383046,39.8823800351821,107.1079508474237
54.89506735740368,47.451302664801915,110.95836078751564,70.27043676990937,64.09643417422642,39.65512637982321,106.80060977909113
54.786629218330546,47.087312922134714,107.73882294624462,70.2279992239039,64.10033735389963,39.429575342893564,106.49874308199293
54.68173222710675,46.71545937726575,104.63993232505989,70.1833737779412,64.10523788767004,39.20640536155386,106.20257615408016
54.58043935771338,46.337722255270315,101.6749741029833,70.13727280328166,64.11129969798203,38.98631581102798,105.91228462818192
54.482803687596146,45.95602478902894,98.85603207979503,70.09044379815847,64.11870069053127,38.7700072394617,105.62799243483474
54.388856632828215,45.57223512464013,96.19395418692136,70.04365201862268,64.12764409039424,38.55818136796301,105.34974244980636
54.298585904058825,45.18814960370574,93.69844059681338,69.9976439123148,64.13833417734789,38.35155136296151,105.07750006126213
54.21193258715728,44.805469815505546,91.37815818458617,69.95313315996023,64.15095506709824,38.15083846699926,104.81120432333539
54.12881814388655,44.42579355213687,89.24075879727397,69.9108140824326,64.165682689437,37.95675534776553,104.55080547826185
54.04917465423931,44.05061785719583,87.2927974233759,69.87136247899419,64.18270644982704,37.769999047808845,104.29624803075819
53.97294710036126,43.681335691068114,85.53962413213105,69.83540601861918,64.20222291756942,37.591258778096915,104.04744583812742
53.900075351799686,43.31922086739271,83.9852992011272,69.8034989021657,64.22441152026148,37.42121603081919,103.80430367850595
53.83049091019343,42.965419326918685,82.63254699099456,69.77613097291437,64.24943741655358,37.26052364258187,103.56675822847878
53.76414024629639,42.62096111937772,81.48274551244795,69.75374830769356,64.27748840912291,37.10978226591686,103.33477793522538
53.701005171206376,42.28677899269586,80.53593264747171,69.7367500779542,64.30879643429982,36.96954048279661,103.10832822780702
53.64109371627824,41.96371084933946,79.79081730035963,69.72547628491417,64.34361272277435,36.84031585661121,102.88736632141769
53.58441980234751,41.65249000161062,79.24481063550769,69.7202266157705,64.38216993062007,36.72260630079431,102.6718830048636
53.53100605765953,41.353747781867966,78.89409376073145,69.7213020786022,64.42467574323304,36.61687600763734,102.46192972793965
53.48090559514459,41.06803505947695,78.73370407602087,69.72901721878618,64.47133175052139,36.52353630843355,102.25758846811318
53.43420621098135,40.79583949794381,78.75760631721602,69.74366479721724,64.52233551442015,36.44294551064362,102.058928836138
53.391004824781945,40.537579573602805,78.95874410231208,69.76547331479843,64.57785114786427,36.37542087227821,101.86601563898826
53.35138257798968,40.2935885844438,79.32909962625429,69.79460161337585,64.6379830436518,36.321237277468065,101.67895530991628
53.31540799783667,40.064117374577506,79.859779025284,69.83116416385205,64.7027884357062,36.28060834183695,101.49791144401205
53.28315340429678,39.84936168786223,80.54110687858875,69.875240781267,64.7723130751356,36.253676171390254,101.32306539909723
53.2546925834453,39.64948669829491,81.36270557237691,69.92685047930156,64.84660263381143,36.2405285947064,101.15458174135166
53.23008185520736,39.46462498799519,82.31355943123644,69.98592041656552,64.92568082694383,36.241224200580874,100.99263308534353
53.20935717968412,39.2948615745086,83.38210180873983,70.05227964981749,65.00953381582322,36.255793807070624,100.83745005494116
53.192555382789564,39.140236556731104,84.55640034517171,70.12566482833948,65.09812089743,36.284221201564435,100.68932444306483
53.1797271997994,39.000768350050635,85.8244544630614,70.20572372953457,65.1913817122075,36.32643388192445,100.548565917394
53.17092132572745,38.87646813947449,87.17446955688393,70.2920705347576,65.28921492331698,36.3823153077291,100.41548138100896
53.16616255123858,38.767328358835506,88.59497221881993,70.3844619464297,65.39145177870698,36.451715171733156,100.29040254247013
53.16545445182489,38.67330534979595,90.07479225994726,70.48302647402888,65.49786354314449,36.53443760293023,100.17370369047671
53.16879951207388,38.5943195388519,91.60300751378361,70.58837607616081,65.60819813083812,36.63022123292124,100.06576818159222
53.17620252464277,38.53026425228242,93.16889651263516,70.70154450301622,65.72219987737493,36.738737011705126,99.96695019065125
53.18764660535096,38.48100060087324,94.76190623877534,70.82384964197136,65.83959504326202,36.859604415179106,99.87758743030004
53.20307127351023,38.44634057870525,96.37164181027627,70.95677133775868,65.96008077359218,36.99240145391989,99.79803709059401
53.22237851124444,38.426042554974885,97.98788372133748,71.10185678732108,66.08334554094704,37.13665488181121,99.72867048224684
53.24545130136844,38.41982703297395,99.60062033024549,71.26063185949704,66.2090939522908,37.291827621444504,99.66982821943671
53.272152803391116,38.42739002804691,101.20007184175671,71.43451649989541,66.33703839123073,37.457325344175516,99.62179788789732
53.302306387575484,38.4483943955447,102.77670181966671,71.62477062300512,66.46686591745772,37.63251661258575,99.58483540361986
53.33568793330443,38.48245188996198,104.32123837702099,71.83248018185112,66.59822175057822,37.816741726915055,99.55917780245402
53.3720447101501,38.52912308561261,105.82471804105954,72.05854866411957,66.73072748829131,38.00930399185073,99.54501131990938
53.41111467225799,38.587938435329455,107.2785322532733,72.30366273529184,66.86400532034291,38.20946553791977,99.54243730357045
53.45262045320298,38.65841418082685,108.67445165381969,72.56825195162452,66.99767504406721,38.41646405920891,99.55148658691564
53.49625408573838,38.740043907337295,110.00463530447037,72.85248278176726,67.13133667379597,38.62953527319984,99.57215643300786
53.541684113958524,38.83228002421425,111.26165205160245,73.15628601142714,67.26457521247033,38.84791774982627,99.60440895531478
53.588581699883186,38.93453286452438,112.43851986496901,73.47937406252298,67.39698589230001,39.07084599913836,99.64813315725709
53.636631993485025,39.04619236227035,113.52873870470913,73.82122335109848,67.52818142869378,39.29755673824982,99.7031321830643
53.68551878871182,39.16664790771542,114.5262981151759,74.18104332627269,67.6577691720769,39.52730961594202,99.76915609744218
53.73491095126043,39.295285399864106,115.42567143261022,74.55776502507003,67.78533445011132,39.759396762763885,99.84592499978787
53.784477499933736,39.431471588888016,116.22182142517694,74.95006315772238,67.91046381741388,39.99312923877891,99.93310151092301
53.83391620120879,39.57455056842958,116.91022263487717,75.35639845011089,68.03278882819276,40.22782017597139,100.0302508023519
53.88295949706896,39.723856789906094,117.48687906770996,75.77504654362293,68.15200052936488,40.46278775054385,100.13684665565881
53.93135422438977,39.878723087731096,117.94832079973683,76.20409497140862,68.26782580979656,40.69737241170625,100.25231603712018
53.978849949339256,40.038469492854176,118.29159284583163,76.64143080354711,68.3800110561948,40.93094297069057,100.37605941816423
54.02521620457144,40.202387439450334,118.51425800551318,77.08478224908909,68.48834196778814,41.162886178577885,100.50742283710908
54.07026349907761,40.369739369699545,118.6144112333955,77.53188283983923,68.59266785495186,41.39260468152375,100.64567366678156
54.113838163512426,40.53976961927575,118.59068325717489,77.9807250401116,68.69289269066635,41.619539181631986,100.79002773218438
54.15580348546016,40.71170622758492,118.44222463631556,78.4297457471131,68.78895186245926,41.84319355671458,100.93969654248946
54.19604124922209,40.88474927102524,118.16868846164236,78.8778398260125,68.88081784189595,42.063133473268714,101.09389300542152
54.234474755102106,41.05806796444694,117.77023144092227,79.32425453610014,68.96852971641773,42.27896158909581,101.25180088933672
54.271077915654125,41.23082547616977,117.24752584820662,79.76848291296207,69.05219976660551,42.49029735932782,101.41257216240312
54.30585423149019,41.40221526020852,116.60175661286146,80.21027909868307,69.1319822987859,42.69677449960183,101.5753708809243
54.33881616874965,41.57147622250235,115.83459728726099,80.64985232902836,69.20804453687278,42.89804113364856,101.73940367320485
54.369995949054974,41.73788355907111,114.94818899653544,81.0881026544821,69.28057272399508,43.093748328793076,101.90389446604514
54.39947106249666,41.90074209695837,113.94514036134554,81.52668384628241,69.34979138959446,43.283535335619334,102.06804639567746
54.42736473954671,42.059395602272225,112.8285304621632,81.96786056635169,69.41595547317652,43.467027191416605,102.23105260907306
54.453816993919745,42.213235268717476,111.60188673356427,82.41428552727007,69.47932026417534,43.643844117822425,102.39214423967667
54.478962602306325,42.36169017423426,110.26914183134133,82.86880443249731,69.54013072111064,43.81360619039118,102.55060802382852
54.502941804748396,42.50420778547392,108.83459916312823,83.33435172679951,69.59864114550135,43.975924209633455,102.7057515950658
54.525923153970986,42.640247138739994,107.30291845005895,83.81395646879079,69.65512663351583,44.13039115096982,102.85687557814599
54.54810334594871,42.76929170732694,105.67909910240628,84.31078167362989,69.70985875156533,44.27659553407439,103.00330564132342
54.569689178289394,42.890861861095374,103.96844101889225,84.82808709548154,69.76307058809532,44.41415314290735,103.14444975650827
54.59089595233566,43.004508078063786,102.17649462053082,85.36909840908568,69.8149502083906,44.54272769636573,103.2798078046756
54.611965257667045,43.10979479124483,100.30902717892448,85.93685652798621,69.86565947785384,44.662023827362766,103.40893067770804
54.63316762485801,43.20629868597696,98.37201046630518,86.53413753598899,69.91533929967864,44.771769477660136,103.53139598904619
54.65477609251583,43.293625869275566,96.3716043465622,87.1634825873947,69.96408528541853,44.871712704992916,103.64683133336571
54.677040999638514,43.371426526514554,94.31411675809694,87.82726772601968,70.01192347101869,44.96163314721487,103.75493461399907
54.70019493871086,43.43938950803065,92.20595721245158,88.5277011284706,70.05881284242915,45.04134681645266,103.85544864990501
54.724473306623004,43.49722481118368,90.05361431634678,89.26674621487888,70.10465826671602,45.110696272759526,103.9481293527848
54.75011498730259,43.54465409377423,87.86365553727218,90.04611086358884,70.149303867598,45.169545001056456,104.03276106894464
54.777338674334125,43.58141780029633,85.64271486877239,90.86743317070786,70.19251361799428,45.217789250550176,104.10919509131809
54.80632574068065,43.607287053288765,83.39745047517174,91.73257980021995,70.23397416465653,45.25537184111531,104.17734826119325
54.8372293639627,43.622064180819244,81.13449562942807,92.64380414612472,70.27332585975115,45.28227739021772,104.23716192916976
54.870190047270725,43.625574892408075,78.86043350752222,93.60365105939859,70.31018451367464,45.29851256417758,104.28858559378807
54.90532928808528,43.617671366360845,76.58179154548922,94.61472341390954,70.34412978717332,45.30409569870697,104.33160979899597
54.94272892871571,43.598253373878116,74.3050232197837,95.67948731522202,70.37468625727502,45.29907332974402,104.36629108989483
54.982428062030486,43.567288271129,72.03646561716728,96.80028884003741,70.40133479730116,45.28354929122379,104.39272544246673
55.024442211683834,43.524809747026595,69.7822996500738,97.97962127970379,70.4235495093944,45.257694519071556,104.41101446330791
55.06877248597051,43.47090284655398,67.54853631837383,99.22039092228346,70.44081873958059,45.2217330108574,104.42128097238869
55.115387046380874,43.405699667938634,65.34101355449432,100.52591322832802,70.4526333823769,45.17593477673972,104.42370833683745
55.164202281611395,43.32939273025377,63.165375826957145,101.89967380131847,70.45847687969797,45.120634867290256,104.41853966905963
55.2150952687246,43.24224566947005,61.027040255742854,103.3450527956111,70.45784821686189,45.056254443760295,104.40603961683861
55.26793481955798,43.14458483265234,58.93117722036235,104.86520830476674,70.4502957387421,44.98329419975551,104.38648245453419
55.3225919570674,43.03678442899759,56.88271303628977,106.46326011896657,70.43542098919743,44.90231065032616,104.36018538197078
55.37892178028449,42.91926679512732,54.88632895273679,108.14265161272296,70.41285839065685,44.81390720981829,104.32752838533229
55.43674967143953,42.792515059320316,52.94643567262815,109.90732734147127,70.38227738117263,44.71874432742849,104.2889192497243
55.49588407169782,42.65707422933108,51.06713762369468,111.76156283843973,70.34342284869132,44.61754081313867,104.24474607401098
55.5561348975076,42.513531089608044,49.25221614951224,113.70962727589948,70.2961496116521,44.51105175438453,104.19538203380806
55.61731078938945,42.36249266880061,47.505136568342344,115.75550262266046,70.24041287244307,44.40004647272643,104.1412354029949
55.67920875593941,42.204582834050306,45.829053070091376,117.90273308481643,70.17624027249973,44.28531190266765,104.08277248100006
55.741627594458635,42.04044801356239,44.22679147437982,120.15435933559476,70.10373104749497,44.16766821116197,104.0204819159696
55.80439858136653,41.870751945666676,42.70082510774802,122.51285620507204,70.02307777431854,44.04796454877091,103.95483863582977
55.867394753319836,41.69616301351412,41.25327441456393,124.98005215677406,69.9345672116268,43.92705237195124,103.88632346077607
55.93050802850717,41.517354945805195,39.88593483755189,127.5571470214972,69.8385474434941,43.805764049663004,103.81546422213036
55.99362863303744,41.33502108567026,38.60030244079318,130.2449560317871,69.735399982612,43.68491063495617,103.74283014018232
56.05665574862201,41.149877904925866,37.39757266031455,133.0442477789586,69.62554831562237,43.56528136379595,103.6689838986736
56.119521257811044,40.962646090662446,36.27862683642746,135.9558832961165,69.50947945892929,43.44762669727549,103.59445905698573
56.182189338414815,40.7740273076895,35.244034974730326,138.98077061464963,69.38773627102425,43.332630822998595,103.51978697597198
56.24463050482013,40.58469936291466,34.294074251632594,142.12011732664945,69.26088230607692,43.22089233559544,103.4455165417717
56.30680463011364,40.395327688432445,33.428737539649674,145.37632561232274,69.12947895829161,43.1129222937396,103.37218362852049
56.36867178232512,40.206569752456204,32.64772318993896,148.75401845358007,68.99409265398744,43.009149526894184,103.30027243674861
56.43020769812246,40.01906250180261,31.95043014199274,152.26033448310667,68.85530448074027,42.90991870458404,103.2302239884922
56.49139513632427,39.833412960966456,31.335979006414362,155.90436883937426,68.71369425448964,42.81548748274027,103.16246890042274
56.5522028722633,39.65020958153476,30.803243547917024,159.6962780636952,68.56981455140078,42.726040759652726,103.09742320171885
56.612590056233685,39.47003894269024,30.350864221636204,163.64648677201563,68.42418896816491,42.64171626827072,103.03545000881418
56.672539728368356,39.293483347316105,29.97724490736345,167.76527449671434,68.27733263071481,42.56261436736818,102.97685104991733
56.73207895197826,39.1211036607394,29.680559402603194,172.06287763789635,68.12975812925089,42.48878491592003,102.9219063004089
56.791260410958735,38.95343260873125,29.458780513988973,176.54984354113077,67.98195075905825,42.42021522357859,102.87089992857416
56.85013519488211,38.79098729129491,29.309712831342903,181.23717014289946,67.83433690210931,42.35683878711275,102.82408937939374
56.90875271913822,38.63428130573274,29.231005535379538,186.13604053155439,67.68726922042114,42.298553445333106,102.7816598970448
56.96717778077364,38.48381722567992,29.22015214652844,191.25726336613283,67.54102265494409,42.24522608963758,102.74372746955956
57.02548987074739,38.34006682594619,29.27450244956959,196.61064976144993,67.3957842318394,42.19668486672275,102.71038319522457
57.0837610984001,38.20346183881484,29.391287877953012,202.2046108915498,67.25164296249488,42.15272071594861,102.68171206593624
57.142045894677345,38.07440282888123,29.567635968980163,208.04609365751745,67.1086039271,42.11310520412239,102.65775805459324
57.2003996123349,37.95326808642094,29.800564869138135,214.14064712536063,66.96662409515113,42.07760458253518,102.63848868992267
57.258898576528615,37.840403835772925,30.086980676899806,220.49237674426325,66.82563402757275,42.04597238509115,102.62381082306034
57.31763115555112,37.736102500810524,30.423699018146223,227.10379524315059,66.68552523241078,42.01792967969256,102.61360913731357
57.37667290729276,37.640593447631396,30.80747835336542,233.97578960869257,66.54612127503192,41.99315703095978,102.6077461111974
57.436082349152976,37.55405752716158,31.23503765505478,241.10788956819513,66.40715829875697,41.97130758957067,102.60602609031966
57.49592109239169,37.47664606218943,31.70305940308697,248.49864863435585,66.26828140107678,41.952023558560256,102.60818533299118
57.556262630393306,37.4084790465603,32.20820343350705,256.1457050380459,66.1290462826153,41.9349359257125,102.61392936353852
57.61717071612082,37.34962846646,32.747136164373956,264.04542008536623,65.98891365117241,41.919654768649316,102.62296187681338
57.67867470683315,37.30011594555636,33.3165496199953,272.19246437194255,65.84723700015418,41.90577495335683,102.63496414926713
57.740773638074586,37.25993380686883,33.91315631368222,280.57986591530806,65.70326254026475,41.892902849875085,102.64956708918429
57.80345855745087,37.229063774038835,34.533679779776115,289.1996582236509,65.55616221209114,41.88067928197857,102.66636982512735
57.866718100721336,37.20747108245863,35.17486592752926,298.0436404083025,65.40509159310174,41.86877744681736,102.68498190893605
57.93052352914245,37.19508662859829,35.83351006195911,307.10372033660025,65.24923830252483,41.85688651583776,102.70502745849775
57.9948254480541,37.19180204554096,36.50647069207967,316.3718055526669,65.08784946451485,41.84470658042887,102.72610964226345
58.05957299807074,37.197478568938145,37.19066018299907,325.83951856102533,64.92025495452522,41.83196106724783,102.74779775513969
58.12472410829643,37.21194848717614,37.883036912814816,335.49802090734744,64.74588293607674,41.81840652410862,102.76966346887455
58.190225255883774,37.23500053200065,38.58062296389913,345.3379708359126,64.56425088175197,41.80382341136508,102.79131204306142
58.255984318264346,37.26636939698211,39.28053629450028,355.3493865049379,64.37494967127896,41.78799966456215,102.8123652617369
58.32187202594889,37.30574931453158,39.98000655274825,365.52137676218786,64.17765759219823,41.770733424071736,102.83243803708656
58.38775029258022,37.35281949173196,40.67636926908421,375.8419416982334,63.97218043919745,41.75186082693717,102.8511605030775
58.45348963483505,37.40725320859866,41.367066059961765,386.29786138656436,63.758471184605064,41.73128097545689,102.86821747552375
58.518954499451524,37.4687070744878,42.04966610645122,396.8745062999957,63.536604858592966,41.70895413088893,102.88334448239073
58.583981087211775,37.536815698804105,42.72188657518452,407.5556372925597,63.30674007367607,41.68488898823568,102.89628405390468
58.64838116344523,37.61120796305933,43.381588607779165,418.32362130908996,63.06912262717862,41.659146660690816,102.90676397411507
58.71196663438256,37.69152751451209,44.02676381104687,429.1602794396785,62.82415141939578,41.631855865519974,102.91452148498657
58.77455964073349,37.77743277943397,44.655547028046946,440.0478176914656,62.57245608401303,41.60321131662891,102.91932273419918
58.83597670886563,37.86858107009763,45.266258512793975,450.9691199989726,62.314919963291224,41.57344861750016,102.92093506993525
58.89601883181531,37.964621394680314,45.85743335169928,461.9073959916342,62.05264286258168,41.54282067793311,102.91908613927174
58.95449433906372,38.06520263927895,46.4278085235738,472.84576506680656,61.786877381645375,41.51160094307979,102.91346661080694
59.01125213931132,38.169977510907195,46.97628995487294,483.7673977451785,61.518970326842755,41.48010570077429,102.90377053308897
59.06618489471445,38.278589153696274,47.501935934263,494.65626809858,61.25035044258925,41.44870225844148,102.88971304127804
59.119203093401474,38.39065566635382,48.00395893828393,505.49777415701203,60.98258540213362,41.41779048135492,102.8710006974744
59.170218310429604,38.5057746120832,48.48171959298547,516.2786773458231,60.7174553478553,41.38778276763428,102.8473025854536
59.21915403239395,38.623543798480846,48.934701760126906,526.9867383155565,60.45696330846945,41.359104730245825,102.81827024265961
59.265958198658964,38.74357169508361,49.36249166017051,537.610507225709,60.20327354690733,41.332203796276545,102.78358155801
59.310590503097814,38.86546527091792,49.7647838694434,548.1391881989526,59.95864484884293,41.30754173505602,102.7429490162704
59.35300014799805,38.988813178229094,50.14140052518783,558.5625537200568,59.72543240229253,41.285574981333596,102.69608974774658
59.393126811130095,39.113184427472895,50.49229188564208,568.8710858352958,59.50615269641495,41.26674699242999,102.64271287467038
59.430920687476565,39.23813814322431,50.81751464449736,579.0561706085314,59.30351756792957,41.25149596879831,102.58254612917165
59.46634619255765,39.363225298885006,51.11721593397515,589.1100877071875,59.12037524675593,41.24025424859494,102.51535519069142
59.49935872140894,39.48797903190696,51.39163895452542,599.0259220454842,58.95959577361496,41.23342818221861,102.44091948995079
59.52988611124273,39.61191277396532,51.64113021871113,608.7974622086907,58.82395813168212,41.23137963811638,102.35899999592819
59.55784246347467,39.73453782813887,51.8661248647437,618.4188767993563,58.71605444800171,41.234433023022525,102.26935196738009
59.58315690890916,39.85538244668113,52.067121551674894,627.8841411030467,58.63820979569551,41.24289855167991,102.17177053352164
59.60577952406872,39.9739904085778,52.244676437312094,637.186560235407,58.592426501149745,41.25707939077917,102.06610739862835
59.6256623872258,40.08990682442842,52.39941655676355,646.3189204188309,58.58036404844411,41.27725359553205,101.95223859532987
59.64275060271149,40.20267761561817,52.53204136454526,655.2743446366873,58.60335070831895,41.303657739292895,101.83003481697205
59.65699814491008,40.31187141528084,52.64329812224784,664.0470485577085,58.66240394014758,41.33649241647856,101.69938299498124
59.668380520382776,40.41710298964197,52.7339559455918,672.6322789846733,58.758232143995784,41.37593279882725,101.56023386638867
59.67688022394515,40.518036061722874,52.80480368225183,681.0256682763182,58.891214275670784,41.42211945597183,101.41261217342797
59.682463381322826,40.61437357067402,52.85666006127037,689.2225744950264,59.061381713310375,41.47513678397767,101.25658176468559
59.685081042859785,40.70585893993556,52.89036858247447,697.2177118909054,59.268418075793726,41.53500747969755,101.09222375026083
59.68469383823687,40.79228816992798,52.9067775614774,705.0051136886038,59.51166445840659,41.60170852607503,100.91966182217948
59.68128384328267,40.87351006333054,52.90673343211626,712.5782129634362,59.79011692757355,41.67518188656088,100.73909361732393
59.67483520606027,40.94940832388869,52.891098635651836,719.9298213089735,60.102439394560975,41.75532272561615,100.55077953290828
59.66530925635406,41.01988661695297,52.86076768794712,727.0521197631033,60.44704334155704,41.84196525446705,100.35501061974787
59.65264645043663,41.084871596345955,52.816656099058434,733.937000572974,60.82223194179513,41.93489430289087,100.15211082880606
59.636788988576775,41.144320368811236,52.7596773042448,740.5767953619275,61.2263144373628,42.03387665025616,99.94247221055585
59.617688633156156,41.198213552885164,52.69074146532985,746.9648554818881,61.65762235710959,42.13867843513494,99.72656498649341
59.595287281633055,41.246540612747154,52.61077793269337,753.0955059673188,62.114470269986164,42.249053438119745,99.50490003530723
59.56950030699609,41.28930066741493,52.5207469162215,758.9635536707136,62.5951295785828,42.36472325782977,99.27799579607334
59.54023118517499,41.32652253807955,52.42162095944045,764.5637997554155,63.09782327608824,42.48537563473027,99.04639793231752
59.50740166379728,41.3582798004848,52.31435843554312,769.8907618228387,63.62071230490031,42.610678879159074,98.81072093499672
59.47096008356477,41.38468303480174,52.1998964367154,774.9386189494114,64.16186759402434,42.740287422806105,98.57164736162726
59.430865066122074,41.40586277017453,52.07915771107206,779.7013668856567,64.71926072580416,42.873828685911406,98.32988673327027
59.38707916340383,41.421968127958564,51.9530464523728,784.1731709402453,65.29079411413392,43.01089040775491,98.08616025554433
59.33958834390505,41.433182471458565,51.822428424614905,788.3488298474687,65.87433826922509,43.151023531127315,97.84123526440202
59.2884194500327,41.43973108890544,51.688119920419005,792.2241230358936,66.46774424583124,43.29374871777999,97.59594959982982
59.233629655927864,41.441866620259205,51.550900931701634,795.7958942225587,67.06886915135202,43.43855087534264,97.3511809196891
59.17528460356377,41.43984927049555,51.411532419664255,799.0619550333331,67.67566389660142,43.584871370286805,97.1078047138116
59.113457460248156,41.43394327524702,51.270750487617086,802.0208606533203,68.28627994603411,43.73212116671291,96.8666984947084
59.04824762721395,41.42442491991657,51.12924316268534,804.6715595819786,68.89910504215716,43.879713974264824,96.62877109777187
58.97978737014811,41.411580465871694,50.98763968617582,807.0131138809004,69.5127157701624,44.02708902606381,96.39495542784917
58.908223818309864,41.3956908503832,50.84652201719705,809.0446850594088,70.12581643040672,44.173704137467276,96.16616182969072
58.83370255290665,41.377027656042934,50.706433845560284,810.7657343276802,70.7372228393259,44.31901519996069,95.9432521211428
58.75637552317253,41.35587607820101,50.567867398252844,812.1764043857216,71.34588192976018,44.462471665636464,95.72705979411133
58.67641593729574,41.33256351112422,50.43124444449591,813.2780693942864,71.9508763966605,44.6035362918812,95.51840488118364
58.594010531970376,41.30746263850692,50.29691976589619,814.0737011266233,72.5513993534783,44.74170565925968,95.31806194911209
58.50933404344846,41.280970485431766,50.16520552392184,814.5677846485588,73.14674197285153,44.87650833490355,95.12671993671538
58.42253899266967,41.25349214474865,50.0363857447027,814.7661361610666,73.73631568958672,45.00749239469546,94.94498714377522
58.33377332870238,41.225443743437474,49.910706660246376,814.6759692294248,74.31966231136762,45.1342269548799,94.7734226068473
58.24319801963239,41.19725708511922,49.7883671760673,814.3059700309004,74.89641078720044,45.25631334706442,94.6125360864415
58.15097800738012,41.169365375117145,49.669532797982654,813.6661690644966,75.4662049607805,45.373382697931646,94.46275353382723
58.05726159615928,41.14217713022811,49.55435778483313,812.767855518337,76.02865091506574,45.48507865722606,94.32440393621577
57.96218029224441,41.11606298837334,49.44298641306167,811.6236167046151,76.58329878125498,45.591049844072145,94.1977496422852
57.865867649419954,41.09136386450013,49.33553690499563,810.247201356997,77.12963319593239,45.69096634417321,94.08300917652105
57.76846458383781,41.06840015424829,49.232098183258756,808.6531566018853,77.66705241633828,45.78454199566566,93.98033077589284
57.67009946390958,41.04746228092022,49.132747189914205,806.8564794068867,78.19487902012735,45.87153660385048,93.88975075367934
57.57087139958882,41.028792299406874,49.03755953703183,804.8722884132828,78.71248210727191,45.95174386806266,93.81119516020446
57.47086124007572,41.012581584312024,48.946595300330785,802.7153780453835,79.21949380380295,46.02499572378623,93.74452281449209
57.3701528196215,40.99898985075324,48.85987806115579,800.3997432378932,79.71596684207579,46.09118944412641,93.68954955379708
57.26883131863892,40.988161776179666,48.77739307967595,797.9383496010279,80.20236800663353,46.15030488011798,93.64602306689045
57.166960405095075,40.98022080130938,48.69910182866469,795.343328246277,80.67946313771468,46.202389843779024,93.61359285427157
57.06457538270446,40.97525215191863,48.624946767706604,792.6263833891593,81.1481866880028,46.24753416900177,93.5918292460871
56.96171296764386,40.97330190441197,48.5548349605698,789.7989472744277,81.60952571529884,46.28586121275238,93.58027462586578
56.85844835198048,40.97439542440974,48.48862046486178,786.8719189574331,82.0644165774037,46.31753410985663,93.57846375037505
56.75490163214706,40.97855045776258,48.42610816083676,783.8552978489812,82.51365726841141,46.34275238914209,93.58590050600327
56.65122285699557,40.98576762695005,48.3670720883058,780.7581778316714,82.95785290815604,46.36173208057625,93.60204600671383
56.54758936264263,40.996012017446276,48.31126232505498,777.5892031200024,83.39742343522498,46.37469109423509,93.62634681139139
56.44421517258878,41.00921209061646,48.25839633614906,774.3570069925444,83.83266590118957,46.38185661715228,93.65825845474757
56.34134417312087,41.02528118679871,48.20816207958036,771.0702289225283,84.26380226188625,46.38347950032732,93.69722630105412
56.23922336185734,41.044137061205014,48.16024842172329,767.7372597124071,84.69096217419882,46.37983104964988,93.74266131785319
56.138088184243934,41.065697127231196,48.11437726753374,764.365983348012,85.11412548773556,46.37118480987207,93.79396335779114
56.03818060126045,41.08985964931954,48.07030684343811,760.9636127299908,85.53307271618122,46.35780807607362,93.85057158556889
55.93977470747327,41.11649562389021,48.027814868689795,757.5366517328767,85.94737238747368,46.33997164558379,93.91197738301884
55.84317213331434,41.14545443484702,47.98669362105783,754.0910193530665,86.35641548853552,46.31795721328382,93.9776902582689
55.7486701226231,41.17656484164086,47.9467646681235,750.6323551675167,86.75948659279912,46.29204455452492,94.0472155536343
55.6565400909803,41.20962445601682,47.907887563794276,747.1663384451172,87.15584687200582,46.26248974856338,94.12007888286065
55.5670351686882,41.24439832858191,47.869944073042674,743.6987926839483,87.54479897666934,46.22951937544913,94.19585577134215
55.48040164199553,41.280644663044704,47.83281500853471,740.2356759468812,87.92571225381711,46.19334545688227,94.27415638077969
55.39686616063804,41.318149225421486,47.7963777182975,736.7831710192002,88.29802484746281,46.154178116491586,94.35458615160191
55.316609231690634,41.35673534640793,47.760523185029754,733.3478177672085,88.66125486616237,46.112217334293874,94.43674125532438
55.23975605840166,41.396248784283515,47.725163500231965,729.93664258652,89.01500745332788,46.0676355108451,94.52024298072202
55.16639217252781,41.43654682446238,47.690216171522835,726.5573903771703,89.35894786427248,46.02057682767792,94.60475263942708
55.09657875261715,41.477507265886864,47.65558916022828,723.2187002728316,89.69276186474828,45.9711791489051,94.68993806586664
55.03034740113552,41.51903992034134,47.62119170145121,719.9299385468133,90.01614439409524,45.91959389314736,94.7754376371117
54.96768802779413,41.561080162884124,47.58695798383339,716.7007975121728,90.32881232145633,45.86598248683746,94.86087101250598
54.90854909999142,41.603572934058185,47.552851771867516,713.5409264256235,90.63050563669836,45.81050282325495,94.9458748472178
54.85284058276957,41.646468855080926,47.51885062551507,710.4595682289373,90.92096212616266,45.753312170061875,95.03010518432974
54.800422148152514,41.68973110473431,47.48494243312581,707.4650881187652,91.1999016157238,45.694584794313336,95.11320096960262
54.75108532230634,41.73333118174122,47.45115044834545,704.5644606948158,91.46708845040716,45.63451811006065,95.19476471850109
54.70455491133541,41.77722781711328,47.41755889657726,701.7628749309679,91.7224865597691,45.573318489079924,95.274391422239
54.66051569039927,41.82135229368982,47.38430751861641,699.0636026172891,91.96641491645713,45.51119115101761,95.35170248736912
54.61863749218792,41.8656204052873,47.351564857337166,696.4681261602001,92.1995992720424,45.4483571060592,95.42633552011634
54.57857406938619,41.90995661971014,47.31951373896285,693.97628133094,92.42311997422786,45.38508236465327,95.49791301735914
54.53995021832761,41.95430028328999,47.2883572282213,691.5862196364799,92.63832759700806,45.32168476257797,95.56604844680308
54.502370190224894,41.998593797232346,47.2583197668642,689.2942965901627,92.8467633861778,45.25851285129683,95.63039033459154
54.465448637872186,42.04278390428592,47.22962551520928,687.0950818770032,93.05008439195157,45.19592668599116,95.6906430908162
54.42883056924404,42.08684866909724,47.20247051799251,684.9815699006597,93.25002971645911,45.13430105102245,95.74653581515673
54.39218598152422,42.130820811911526,47.17701782926167,682.9455713882137,93.4484551289636,45.07403404483779,95.79778831938624
54.35520624820644,42.17477997325188,47.15341784874376,680.978119652,93.64736619466171,45.015535477750255,95.84412708269288
54.317622562251636,42.21882823649814,47.131823290128,679.0696446171422,93.84887598244455,44.95920168140244,95.88532800241015
54.27922631134541,42.263077980437316,47.112376886463764,677.2098752705242,94.05511030571255,44.90540539557561,95.92122321884078
54.23986299494403,42.3076525674002,47.09518939062801,675.387658404173,94.26810626510448,44.85450748674484,95.95166748850377
54.199403390854776,42.352678121981555,47.08033931613973,673.5908714590937,94.48972597917938,44.80686488105695,95.97652465328923
54.15772264211839,42.398260601216144,47.06789546040355,671.8065326735258,94.72162849678281,44.76281576271877,95.9957006614469
54.11470662227958,42.444470107019136,47.05793054936256,670.02110844032,94.96533206333324,44.72265596587616,96.0091703605018
54.07026798751363,42.49135159356421,47.05050735134648,668.2208493489757,95.22232416598382,44.68663015728666,96.01695439782732
54.02434275081523,42.53894801227365,47.04565774132966,666.392018687957,95.4941377501863,44.654938538952386,96.01908595998668
53.97687073182483,42.58730652574459,47.04338173034481,664.5210877329395,95.7823420217872,44.627738673054225,96.01562624582054
53.927787427782675,42.636467538259915,47.04366161932142,662.5949726567544,96.08845791069348,44.60513142181511,96.00671114017007
53.87703307418875,42.68646616314272,47.04646497923168,660.6012319451495,96.4138709435838,44.58714668625229,95.9925617870276
53.8245555374738,42.73735721314079,47.0517296790909,658.5281595522226,96.75981835841499,44.57375272624259,95.97344957868154
53.77029526109359,42.789236035819236,47.05935405850401,656.3648017429313,97.12744050978768,44.56488651511236,95.94967797512349
53.714174258028734,42.842230358587095,47.06920871021601,654.1008905058266,97.51780751574938,44.56047286382155,95.92160906058396
53.656111501370546,42.89647683799657,47.08115353773225,651.7267266458842,97.93187962460281,44.56041483099181,95.88968057365402
53.59604943516953,42.95211409060117,47.09503717165928,649.2332360194973,98.37045230552867,44.56457781800237,95.85436901219023
53.5339583364547,43.00929916823834,47.11068607939868,646.6123619265335,98.8341232897886,44.572792391797236,95.8161364093487
53.469814512429906,43.068219964794906,47.12790944693047,643.8576281944926,99.32325434139592,44.58486750926902,95.77542253485679
53.4035812218307,43.1290798094012,47.14652146962546,640.9646275050815,99.83793100117055,44.60059131327349,95.73267931865104
53.33521356535294,43.19206638196274,47.16635268027893,637.9314147107674,100.37801222859568,44.61972112596912,95.68838493887809
53.26467338559747,43.25733520235447,47.18723560409851,634.7588351216293,100.94330578809439,44.64198866954459,95.64300772034053
53.19192905429184,43.32501724710767,47.20898786360396,631.4505909661384,101.53372604450638,44.667129564684465,95.59696599365043
53.116945093011516,43.39522854231373,47.231423305810964,628.0128679251396,102.14929339183807,44.694909373742085,95.55063509077532
53.039688053826545,43.468059687135735,47.25438580522232,624.4537062373433,102.79001474633071,44.725120884566394,95.50438201708124
52.960149622239804,43.54355476195955,47.2777681796657,620.7824081798628,103.45575170079702,44.75756715536341,95.45856888650161
52.8783562622885,43.621707988629566,47.30150151318687,617.0090475631151,104.14612377729942,44.79205990346463,95.41351631458407
52.794350615430204,43.70248622318215,47.3255451150102,613.144033317808,104.86044653608221,44.82843274093186,95.36948043996517
52.70816952235642,43.785850496823585,47.3499001553667,609.1977186854444,105.59769215713843,44.86654217706125,95.3266752407004
52.61984743713906,43.871751495088304,47.37462500403039,605.18005180691,106.35648234274889,44.906246149299086,95.28530018137121
52.529437524849236,43.960111443235874,47.39982400524245,601.1002882908734,107.13513590251044,44.947383691821656,95.24552678542442
52.43701917702584,44.050820026678664,47.42562149031939,596.9668978942636,107.9317441197271,44.989780558280515,95.20746657306333
52.342686563015555,44.14374471910393,47.45215355365625,592.7877602738565,108.74421131373374,45.03327147633831,95.17117667391275
52.24654679620696,44.23873173248961,47.479580406862155,588.570471220377,109.57024517559299,45.077708229459596,95.13670263294809
52.148739223690775,44.33558971809395,47.508089010973066,584.3224897817214,110.40733949220699,45.12294572893459,95.10409720800733
52.04944801391618,44.43407908955887,47.53787036628679,580.0510812860596,111.25278717813984,45.168830139327625,95.07338728613261
51.94888706648637,44.5339259489731,47.56909397846585,575.7631475533224,112.10371164521155,45.21520555647115,95.0445379319104
51.847276778719504,44.63484424725873,47.60190485829018,571.4650222483012,112.9570764768655,45.26192353191787,95.01746421257923
51.744843262507004,44.7365384392557,47.6364341106352,567.1623363297109,113.80966765814703,45.308833904332324,94.99206858982618
51.64183817916752,44.83869046861517,47.672795121556405,562.8600841560161,114.65808466215492,45.355762582297736,94.96824573385568
51.538547391674555,44.94095968335053,47.71106171567199,558.5630063581683,115.49876229594945,45.402501040705694,94.94584971782578
51.435273097265835,45.04300376502673,47.75125626149705,554.2762009088267,116.32801096916596,45.448817252248965,94.92467960952925
51.33231396489998,45.144495466291,47.793365517364464,550.0055405830919,117.14206291833352,45.494469062171895,94.9045155918793
51.22997079063759,45.24511491714109,47.83736276061872,545.7576775580508,117.9371357137343,45.53919984940457,94.88516266863326
51.12856622508865,45.34453026172914,47.8832063733969,541.5400140725865,118.70953503743661,45.582725118851684,94.86644805098763
51.02844473060322,45.442393512897716,47.93081858353874,537.3609282412502,119.45577581837767,45.62473404076904,94.84818930405062
50.92994662230734,45.538357595339136,47.98007158207798,533.2299411443585,120.17265113366761,45.66490834615674,94.8301934975378
50.833388351578606,45.632091709703495,48.03079282857921,529.1575241517332,120.8572254262368,45.70293476635,94.81229657715397
50.73907694186181,45.7232754234902,48.082773388267796,525.1547267770172,121.50680410469866,45.738498050457615,94.79438542045622
50.64734214631863,45.81158282317795,48.135761589512036,521.2328702786925,122.1189159680959,45.77127411340916,94.77636863679764
50.55854563079067,45.89668133183858,48.18945001909098,517.4032940322182,122.69129683104566,45.80094550048417,94.75814069706509
50.47305995641483,45.97824727655272,48.24347945180988,513.6770952271255,123.22185984631369,45.82722788879097,94.73959596520277
50.39125047007986,46.05597468428206,48.29746390895237,510.0649066353293,123.70866031162527,45.849878432395144,94.72067602671372
50.31347883080825,46.12956255617233,48.3510115743638,506.57677925502026,124.14987051687126,45.868683965615745,94.7013845450542
